0,0,0,78,79,80,81,81,81,81,80,78,77,76,74,73,72,71,70,70,69,69,69,69,69,69,69,69,70,70,70,71,71,71,71,71,71,71,71,72,72,72,73,73,73,73,73,73,73,73,73,73,72,72,72,72,72,73,73,73,73,73,73,73,73,72,72,72,72,72,72,72,71,71,71,71,72,72,73,73,74,74,74,75,75,76,78,79,80,80,81,80,78,77,76,75,74,74,74,74,73,73,72,72,72,71,71,71,71,70,70,70,70,70,70,70,71,71,71,71,72,71,71,72,71,71,71,71,71,71,72,71,71,71,71,71,71,71,71,72,72,72,73,73,73,73,73,74,74,74,74,75,75,75,75,75,75,75,74,74,74,74,74,74,75,75,75,75,75,75,74,73,73,73,73,73,74,75,75,75,76,76,76,76,76,76,77,78,79,80,80,80,79,78,77,76,76,75,76,76,75,75,75,75,75,74,74,73,73,72,73,73,74,75,75,75,76,76,76,76,76,76,76,77,78,78,79,80,81,82,83,83,84,85,85,86,86,85,84,83,82,81,80,80,79,79,79,79,78,77,77,76,76,75,75,75,75,75,76,76,76,76,77,77,77,77,77,76,75,75,74,74,74,74,74,74,74,75,76,77,79,81,83,86,88,89,91,91,91,91,90,88,86,83,80,78,78,79,81,83,85,86,87,86,85,84,82,81,80,81,82,83,84,84,84,84,83,82,82,82,82,82,82,82,82,81,80,80,78,77,76,75,75,75,76,77,77,78,78,77,77,76,75,75,75,75,75,75,75,75,75,76,76,76,77,77,78,78,78,78,77,77,77,77,77,77,77,78,78,78,79,79,79,79,79,80,80,81,82,82,82,83,83,83,83,82,82,81,81,80,79,78,77,77,76,76,76,76,77,77,78,79,79,79,80,80,80,80,80,80,81,81,82,81,81,80,79,78,77,76,76,75,76,76,76,76,76,76,76,76,77,77,76,76,76,77,77,77,77,77,78,78,78,78,78,78,78,78,79,79,79,80,80,80,80,79,79,79,79,79,80,80,80,81,81,81,81,81,81,81,81,81,81,81,81,81,81,81,81,81,81,81,81,82,82,82,82,82,83,83,83,83,84,84,84,84,83,83,82,82,82,82,82,82,82,82,82,82,82,81,81,81,82,82,82,82,83,83,83,82,82,81,81,80,81,81,82,82,83,83,83,83,83,83,83,83,83,84,85,86,88,88,89,89,88,88,87,86,87,89,91,93,95,95,95,94,92,90,88,86,85,84,84,83,82,82,81,81,81,80,80,79,78,78,77,76,76,76,76,76,76,76,77,77,77,77,78,78,78,78,78,78,78,78,78,78,79,79,79,79,79,79,79,78,78,77,77,77,76,76,76,77,77,78,78,78,79,79,79,79,79,79,79,79,78,78,78,77,77,77,77,77,78,78,78,78,78,78,78,78,78,78,78,78,79,79,80,81,81,81,81,80,79,78,78,77,77,77,77,76,76,76,76,76,76,76,75,75,74,74,74,74,74,73,73,73,73,73,73,74,74,74,74,73,73,73,72,72,72,73,73,73,74,73,73,73,72,72,72,71,72,72,73,74,75,76,76,76,75,75,74,73,72,71,71,71,71,71,71,72,72,72,73,73,73,74,74,74,74,73,73,72,72,71,71,70,70,71,70,70,71,71,71,71,72,72,72,73,73,73,73,72,72,72,72,72,72,72,72,72,72,72,72,71,71,71,72,72,72,71,71,71,72,72,72,71,71,72,72,73,74,75,75,75,75,74,74,73,73,73,73,73,73,74,74,74,74,74,74,73,73,73,73,73,74,74,74,75,75,75,75,74,74,74,74,74,74,74,75,75,75,75,75,75,75,75,75,75,74,74,74,73,73,73,72,72,72,73,74,74,75,75,75,75,75,75,75,75,75,76,76,78,80,81,83,85,88,91,94,98,100,102,103,102,101,98,94,89,85,82,79,78,78,78,78,78,78,77,77,76,76,76,76,77,77,78,78,78,78,78,77,76,75,75,75,75,74,74,74,74,74,74,74,74,74,74,74,73,73,73,72,72,73,73,73,73,73,73,73,73,73,74,74,74,75,75,75,74,74,74,73,73,72,73,73,73,73,73,73,73,73,72,72,72,72,72,73,73,73,73,73,73,74,74,74,74,75,75,75,75,75,74,74,74,74,75,75,75,76,76,76,76,76,75,75,75,75,75,75,75,75,75,75,75,74,74,74,75,75,75,75,75,75,75,75,75,75,75,75,75,75,75,75,76,76,77,78,78,80,82,85,87,89,90,91,92,92,91,89,87,85,83,81,81,81,82,84,86,88,89,90,91,91,91,92,92,92,92,92,92,92,92,92,92,92,92,92,91,91,91,91,91,91,91,91,90,90,91,92,93,95,96,97,98,98,99,99,99,99,98,98,97,97,96,96,96,96,96,96,96,95,95,95,95,94,94,94,94,94,94,93,92,91,90,89,89,89,89,89,89,88,88,88,88,88,88,89,90,90,90,90,89,88,88,89,90,90,91,91,90,90,89,89,89,89,89,90,91,92,92,92,91,91,91,91,91,92,92,92,93,93,94,93,93,93,92,92,91,91,91,91,91,91,91,91,92,92,92,92,92,93,93,93,93,93,93,93,93,94,94,95,95,95,95,95,95,95,95,95,95,95,94,94,94,94,94,94,95,95,96,96,96,96,95,95,95,96,96,96,96,96,96,96,95,95,94,94,93,92,92,91,91,90,89,89,89,89,89,89,88,88,88,87,87,87,87,87,88,89,89,90,90,90,90,90,90,90,91,92,93,95,95,96,96,96,96,96,97,97,98,98,99,99,100,101,102,102,103,104,104,105,106,106,107,107,108,108,108,108,108,108,108,108,108,108,108,108,108,109,109,109,108,108,107,107,107,107,108,109,110,111,113,113,113,113,113,113,112,112,112,112,112,112,112,112,112,113,113,113,114,114,114,114,114,114,114,115,115,115,116,116,115,115,115,115,115,116,116,116,116,116,116,116,116,116,115,115,113,111,108,105,103,102,102,102,102,102,102,102,103,103,103,103,102,101,99,98,96,95,95,95,96,97,98,97,96,95,94,93,93,93,95,96,97,98,97,96,94,92,91,91,92,93,94,95,95,95,94,93,92,91,90,88,88,88,88,89,90,91,91,91,92,91,90,89,87,85,83,81,79,78,78,77,77,76,76,75,75,76,77,79,82,84,86,87,87,87,87,86,86,86,86,87,87,88,89,89,89,89,89,90,90,91,93,94,95,96,97,97,97,97,96,96,96,96,97,97,97,98,97,97,97,98,98,99,99,100,101,101,102,103,103,103,102,101,100,98,97,96,96,96,97,97,98,98,98,99,99,99,99,99,99,99,98,99,99,99,100,100,100,100,100,100,100,100,99,98,98,97,96,96,97,97,98,98,98,98,98,98,98,97,97,97,97,97,97,96,96,95,95,95,96,96,96,97,97,97,96,96,95,94,94,94,94,94,95,96,96,97,97,97,96,96,96,96,97,98,99,100,101,101,102,102,102,102,102,103,103,105,106,107,108,110,112,113,115,116,117,117,117,116,115,114,113,112,111,111,111,111,111,112,112,112,111,111,110,110,109,109,109,109,108,108,107,106,105,105,105,104,104,104,104,105,106,107,108,109,109,109,108,108,107,106,107,107,108,108,109,110,111,111,112,112,112,112,112,111,110,110,110,109,109,109,109,109,110,110,110,110,111,111,111,111,110,109,109,108,107,107,107,107,107,107,108,108,107,107,107,107,107,107,108,108,107,107,107,107,106,106,107,107,107,108,108,108,108,108,108,109,109,109,109,109,109,109,108,107,107,106,106,106,107,108,109,109,110,111,111,112,112,113,114,116,117,118,120,121,122,123,123,123,123,123,123,123,124,125,126,127,127,127,126,126,126,125,125,125,124,123,123,123,123,123,123,123,123,123,122,122,122,122,122,123,123,123,124,124,124,124,125,124,125,125,124,124,124,123,123,123,122,122,122,121,121,121,121,121,121,120,120,120,120,120,121,121,122,122,122,122,122,121,121,120,120,120,120,121,121,121,121,121,121,121,121,121,121,121,121,121,121,121,120,120,120,120,120,120,120,120,120,120,120,120,120,120,120,120,120,120,120,120,119,118,117,116,114,113,112,110,110,109,109,109,109,109,108,108,108,107,107,107,106,105,104,103,101,100,99,98,97,98,98,99,99,98,97,95,94,93,92,92,92,92,92,91,90,90,90,90,91,91,92,92,92,91,90,90,90,92,94,95,97,97,96,95,94,93,92,92,92,92,92,94,95,96,98,98,98,100,106,111,117,127,134,140,145,150,149,150,149,148,148,149,149,150,151,151,152,153,155,156,159,160,161,162,161,159,157,154,151,150,150,149,150,150,150,150,151,151,151,153,154,155,157,158,160,161,161,159,158,157,155,156,157,159,160,160,160,160,160,160,161,162,162,162,162,163,163,163,163,161,160,160,160,159,161,161,162,163,165,167,168,167,165,162,160,159,158,160,160,161,161,161,160,161,161,162,163,165,166,168,169,170,170,170,170,170,170,170,170,171,171,172,173,174,174,174,174,173,173,173,173,172,172,171,170,169,168,167,166,165,163,162,161,160,159,157,156,153,151,149,148,148,147,147,147,147,146,145,144,143,142,142,142,142,142,142,141,140,139,137,135,134,133,132,132,132,132,132,131,130,129,128,127,126,126,126,125,125,124,122,121,120,120,120,120,120,121,121,122,122,121,121,119,117,116,115,114,114,114,115,115,116,116,116,116,116,115,114,113,113,112,112,112,112,112,112,112,112,112,112,111,111,111,110,110,109,109,108,108,107,107,106,107,107,108,109,109,110,110,109,109,108,108,108,108,108,108,108,107,107,107,106,106,106,106,106,107,107,107,107,107,106,106,105,105,105,106,106,106,106,106,105,104,103,103,103,104,105,106,107,107,106,105,104,104,104,105,105,106,106,105,104,104,103,103,103,103,104,105,106,107,107,107,106,105,104,103,102,102,102,102,102,101,100,99,99,99,99,100,100,101,101,100,100,100,100,101,101,101,101,101,101,101,101,101,102,102,103,103,103,103,102,102,101,101,102,103,104,105,105,105,105,104,104,103,104,105,107,108,109,109,108,106,104,101,99,99,98,99,99,99,99,99,99,99,99,99,100,100,101,101,102,103,104,104,105,105,106,106,107,108,109,109,108,107,106,104,103,102,101,101,102,102,104,105,106,107,107,105,102,100,97,96,97,98,100,102,103,103,102,101,99,98,98,98,98,98,97,97,96,95,94,94,95,97,99,101,102,102,102,102,102,102,103,103,104,105,105,106,106,105,103,101,99,98,99,101,102,104,106,106,105,105,104,104,105,106,107,108,108,108,107,106,105,105,105,106,109,112,116,119,122,123,123,123,123,123,123,123,122,120,118,115,112,110,109,108,110,111,113,115,117,118,119,120,122,125,127,130,133,134,135,137,138,140,141,143,144,146,148,151,154,155,156,157,158,159,160,162,163,164,164,164,165,166,166,166,167,167,167,167,168,169,169,168,168,168,167,168,169,170,171,172,173,173,174,175,175,174,173,172,170,170,171,172,173,175,175,176,176,177,177,178,178,178,179,179,179,179,178,177,177,176,175,174,174,173,174,175,177,179,182,182,182,182,182,182,182,182,182,182,182,182,182,182,182,183,183,183,183,183,182,182,182,183,183,183,183,183,183,182,182,182,182,183,184,185,185,186,186,186,186,187,187,187,187,187,187,187,187,188,189,190,191,191,190,188,187,186,186,186,187,187,187,187,187,188,188,188,188,188,187,187,187,187,188,188,189,189,189,189,189,189,189,190,190,191,191,191,191,192,192,192,192,191,190,190,190,190,190,190,190,190,189,189,188,187,187,187,187,187,188,188,188,189,190,190,191,191,191,191,191,191,191,192,191,191,191,191,191,191,190,187,183,179,176,173,171,168,166,170,174,179,185,190,190,190,190,191,191,192,191,191,191,191,191,192,192,192,192,192,192,192,191,191,191,191,191,191,191,192,192,192,192,192,192,192,192,192,192,192,192,192,192,192,192,192,192,192,192,192,192,191,190,189,187,185,184,183,181,181,180,179,179,178,177,177,176,174,173,172,172,171,0,0,139,139,139,139,139,139,139,139,139,139,139,139,139,139,138,136,135,134,133,132,132,132,132,131,131,130,129,128,128,127,127,127,126,125,125,124,124,124,125,126,126,126,126,126,125,125,124,123,122,121,121,120,120,120,120,120,120,120,120,120,120,120,120,120,120,120,120,120,120,120,119,119,119,118,118,118,118,117,117,117,116,116,116,116,116,116,116,117,117,116,116,115,115,114,114,114,114,114,114,113,113,113,112,112,112,112,112,112,112,112,112,112,112,112,112,112,112,112,112,112,112,112,112,112,111,111,111,112,112,112,112,112,112,112,112,112,112,112,111,110,110,110,109,109,109,109,109,109,109,108,108,108,108,108,108,108,108,108,108,108,109,110,111,111,112,112,113,113,113,114,114,114,114,114,114,115,115,116,117,117,118,118,118,118,118,118,118,118,117,117,117,116,116,116,116,117,117,117,118,118,118,119,119,120,121,121,121,119,118,117,116,116,117,118,120,121,121,121,120,118,117,115,115,115,115,116,117,117,117,117,117,117,116,117,117,119,120,121,121,121,121,120,120,121,122,124,126,127,128,128,127,126,124,123,122,121,122,122,122,123,123,123,123,124,124,125,125,125,124,123,122,122,122,123,124,125,125,125,125,125,125,126,127,127,125,124,121,119,117,116,116,116,116,116,117,118,119,120,121,123,124,125,126,126,126,125,125,125,126,125,125,124,