2018-05-15,14:03:11.483,10,-20,-16,-18,0,17,87,454,953,1643,910,-1377,-1587,-761,-120,252,277,242,253,268,264,250,266,263,256,251,276,274,284,308,322,319,320,327,356,345,333,319,285,249,224,187,156,112,88,26,-70,-154,-232,-290,-324,-335,-339,-333,-306,-260,-241,-226,-193,-172,-157,-140,-126,-135,-115,-95,-94,-93,-81,-84,-94,-68,-64,-74,-87,-42,-40,-46,-11,-1,34,74,98,137,164,149,137,95,20,-46,-68,-42,-17,-37,-20,18,287,762,1401,1270,-1050,-1820,-983,-321,96,255,243,242,250,256,247,230,219,245,248,259,263,258,273,282,300,302,314,313,298,302,254,226
2018-05-15,14:03:12.170,184,156,106,81,54,-1,-54,-153,-250,-315,-357,-403,-428,-417,-403,-388,-359,-330,-287,-255,-248,-210,-201,-189,-184,-165,-148,-155,-132,-109,-122,-125,-109,-94,-88,-90,-88,-87,-77,-50,-34,20,51,52,106,167,138,87,71,30,-39,-101,-101,-70,-80,-56,-49,157,579,1205,1544,-408,-1869,-1289,-459,67,229,213,228,226,204,221,214,202,204,211,229,238,255,261,265,276,309,314,303,299,285,271,238,200,174,135,94,57,10,-58,-137,-238,-311,-371,-415,-449,-445,-415,-399,-357,-348,-300,-226,-191,-185,-187,-173,-159,-159,-148,-140,-145,-160,-145,-111,-89,-113,-113,-102,-87,-72,-66
2018-05-15,14:03:13.207,-73,-69,-43,-24,8,51,105,94,146,112,106,85,19,-60,-91,-46,-24,-28,-20,-4,371,893,1352,980,-1128,-1688,-863,-310,85,264,262,272,296,299,309,299,281,274,285,295,289,293,302,303,318,322,307,292,296,300,254,219,170,123,78,70,44,-7,-67,-148,-212,-282,-331,-351,-392,-398,-368,-355,-336,-321,-298,-244,-236,-221,-175,-185,-207,-185,-192,-187,-199,-174,-144,-191,-202,-181,-149,-132,-104,-100,-62,-33,-8,22,37,70,106,112,92,50,19,-23,-93,-106,-91,-87,-79,-41,196,624,1097,1172,-679,-1890,-1305,-537,-4,203,204,225,244,224,200,196,194,206,211,211
2018-05-15,14:03:14.245,233,291,301,318,318,322,341,377,371,339,329,302,275,188,129,102,44,-2,-77,-153,-226,-320,-382,-418,-401,-405,-402,-375,-326,-292,-282,-266,-252,-248,-239,-192,-195,-186,-184,-193,-196,-192,-193,-185,-183,-171,-142,-154,-141,-111,-69,-29,-5,38,75,111,81,52,10,-77,-156,-151,-109,-90,-89,-83,189,706,1172,1189,-674,-1967,-1372,-538,96,303,274,320,334,316,309,292,284,287,282,282,294,322,335,360,369,369,376,376,384,379,343,318,285,231,189,131,117,67,-38,-133,-222,-318,-379,-392,-396,-389,-383,-348,-315,-273,-263,-247,-202,-187,-161,-155,-157,-157,-152,-165,-163,-163
2018-05-15,14:03:15.282,-162,-145,-134,-145,-134,-105,-64,-12,1,21,60,59,18,-25,-60,-121,-212,-198,-166,-151,-140,-134,140,634,1096,1208,-789,-2151,-1534,-622,19,234,225,206,207,199,214,215,200,182,195,213,231,257,271,282,300,316,339,350,341,318,306,268,235,204,153,112,76,24,-67,-174,-270,-357,-389,-400,-413,-412,-391,-361,-326,-313,-292,-264,-227,-210,-189,-167,-168,-164,-151,-128,-126,-130,-128,-147,-145,-141,-121,-70,-18,7,22,54,93,56,48,30,-50,-136,-159,-136,-129,-91,-83,-14,379,928,1473,561,-1610,-1768,-919,-183,203,239,235,259,268,261,241,246,246,258,252,254,296,284
2018-05-15,14:03:16.319,294,310,302,297,314,326,312,296,274,241,208,168,174,146,66,-15,-111,-206,-288,-363,-408,-437,-429,-416,-390,-356,-340,-293,-260,-248,-231,-215,-209,-218,-196,-175,-166,-159,-154,-153,-186,-204,-186,-158,-175,-155,-151,-157,-156,-116,-52,11,89,131,155,161,179,131,80,34,-32,-41,-34,-6,-25,-34,179,633,1262,1407,-639,-1857,-1206,-430,107,279,235,249,283,275,264,250,245,273,280,274,276,289,306,319,312,299,320,320,306,295,250,244,231,196,196,184,142,95,20,-72,-159,-242,-313,-367,-386,-362,-356,-348,-327,-311,-275,-251,-233,-224,-212,-195,-190,-196,-174,-171,-163,-180
2018-05-15,14:03:17.356,-163,-137,-133,-130,-107,-91,-92,-98,-72,-56,-37,-33,-3,36,57,104,144,108,85,45,-17,-75,-96,-83,-90,-88,-66,-21,330,840,1369,727,-1418,-1693,-876,-295,101,273,264,268,275,247,242,244,229,257,255,244,240,263,296,266,252,278,293,296,294,273,247,200,185,182,157,132,78,13,-37,-111,-205,-268,-310,-374,-402,-392,-356,-338,-338,-324,-271,-228,-232,-207,-201,-211,-184,-163,-150,-168,-171,-176,-170,-149,-137,-135,-138,-135,-133,-122,-101,-92,-95,-75,-27,52,72,100,139,99,85,72,8,-63,-122,-136,-89,-87,-97,-24,257,701,1258,1122,-1051,-1842,-1064,-287,175,276
2018-05-15,14:03:18.394,247,243,236,239,254,274,248,213,241,287,276,278,273,283,351,383,328,282,279,399,282,168,238,341,243,204,134,105,130,-51,-197,-175,-264,-389,-334,-267,-274,-382,-220,-163,-247,-243,-241,-223,-160,-197,-207,-180,-178,-180,-234,-206,-236,-293,-217,-100,-236,-253,-172,-128,-195,-179,-191,-274,-144,30,-17,-68,11,87,96,46,106,2,-142,-114,-42,-117,-45,-33,-71,35,344,648,1090,585,-1458,-1739,-955,-131,263,203,144,312,286,189,256,319,210,278,309,293,228,190,291,367,330,308,276,321,264,265,246,168,148,176,156,91,77,8,-67,-130,-239,-304,-391,-416,-427,-461
2018-05-15,14:03:19.431,-441,-418,-389,-353,-316,-324,-316,-304,-299,-295,-284,-292,-300,-286,-263,-259,-264,-259,-243,-255,-235,-210,-208,-211,-185,-161,-149,-107,-59,-34,5,19,-7,1,-30,-93,-158,-173,-146,-125,-99,-107,-73,227,711,1254,588,-1402,-1598,-805,-320,41,202,197,190,209,248,240,227,237,232,232,246,249,252,263,269,272,270,262,239,225,257,263,233,199,177,153,143,83,25,-30,-119,-225,-316,-376,-417,-430,-423,-407,-392,-377,-329,-293,-279,-247,-229,-226,-200,-180,-204,-217,-183,-154,-160,-172,-147,-110,-103,-117,-100,-87,-78,-60,-6,62,74,110,150,147,102,64,27,-7,-64,-71,-44,-27
2018-05-15,14:03:20.468,3,-13,104,497,1023,1563,67,-1786,-1434,-600,-17,268,274,265,292,298,275,266,282,284,275,299,308,308,330,331,333,352,354,343,340,355,327,272,235,211,197,165,131,80,-11,-96,-182,-285,-355,-390,-407,-396,-374,-363,-333,-299,-274,-269,-225,-191,-193,-190,-173,-183,-174,-160,-149,-143,-139,-140,-134,-114,-123,-120,-94,-95,-82,-57,-27,35,39,70,88,104,124,75,7,-65,-113,-95,-65,-75,-83,-84,11,365,865,1573,734,-1494,-1534,-716,-157,194,216,198,189,158,193,212,208,200,202,223,235,254,278,257,253,280,246,244,265,242,223,175,150,104,65,102,54,15
2018-05-15,14:03:21.505,-37,-151,-198,-289,-315,-361,-389,-395,-398,-412,-336,-316,-314,-263,-218,-215,-183,-187,-184,-192,-154,-136,-144,-147,-124,-118,-128,-88,-9,-19,-96,-102,-59,-21,3,41,90,82,36,17,-34,-114,-150,-122,-122,-146,-112,-71,87,490,951,1143,-441,-1856,-1415,-675,-153,212,255,214,191,217,224,224,216,214,205,247,291,295,299,279,287,287,299,290,288,274,252,212,181,136,107,57,0,-61,-145,-209,-302,-395,-448,-475,-489,-478,-446,-436,-450,-412,-400,-365,-288,-263,-315,-319,-278,-282,-260,-249,-276,-271,-238,-210,-210,-197,-183,-174,-167,-120,-85,-65,-48,10,33,-4,-41,-94,-125,-213
2018-05-15,14:03:22.543,-217,-171,-166,-177,-148,73,533,1077,1195,-571,-1916,-1405,-661,-106,191,204,192,240,253,251,270,260,235,258,263,287,308,330,386,364,360,393,422,375,337,303,253,241,200,143,119,63,1,-69,-133,-172,-292,-405,-402,-386,-380,-339,-333,-292,-206,-158,-129,-147,-105,-52,-43,-83,-33,-9,-43,-79,-79,-60,-51,-46,-14,15,-14,-38,-46,18,82,110,142,166,159,128,109,59,-34,-76,-77,-97,-82,-60,-43,199,710,1094,1088,-471,-2006,-1599,-723,32,362,349,333,349,357,328,301,304,301,326,335,340,346,337,351,366,368,367,377,381,366,329,306,266,201,160,116,67
2018-05-15,14:03:23.580,-13,-110,-195,-290,-377,-440,-484,-490,-489,-460,-424,-396,-319,-293,-280,-249,-213,-186,-167,-166,-161,-181,-176,-165,-168,-152,-151,-146,-144,-120,-132,-125,-103,-91,-80,-81,-45,19,47,74,117,111,90,56,0,-45,-117,-126,-106,-86,-44,-35,123,562,1001,1386,108,-1851,-1644,-734,-4,309,303,300,313,313,308,301,307,309,305,314,321,331,342,355,372,395,417,386,387,377,350,327,283,235,215,177,117,67,-7,-109,-225,-300,-343,-389,-428,-425,-394,-374,-343,-308,-281,-229,-191,-180,-160,-151,-130,-130,-129,-130,-113,-137,-134,-110,-113,-110,-111,-107,-98,-63,-59,-74,-77,-50,-30,-33
2018-05-15,14:03:24.617,-22,20,50,63,108,180,176,142,106,48,-19,-62,-55,-64,-47,-13,-10,210,692,1198,1217,-775,-1914,-1217,-447,31,294,274,272,281,287,305,290,274,270,268,261,265,293,294,321,342,332,341,328,319,325,288,258,225,168,128,101,63,-2,-92,-189,-251,-301,-391,-436,-450,-446,-432,-398,-368,-342,-316,-276,-249,-228,-209,-178,-173,-172,-174,-168,-149,-157,-158,-152,-159,-161,-168,-159,-138,-135,-116,-108,-99,-69,-59,-57,-61,6,55,56,82,103,76,52,-10,-63,-120,-155,-140,-139,-132,-104,-23,316,755,1212,690,-1481,-1929,-1062,-248,195,254,255,275,277,288,287,264,257,275
2018-05-15,14:03:25.654,270,272,304,340,323,337,337,348,361,382,381,345,299,248,217,190,132,86,24,-40,-149,-232,-315,-400,-459,-468,-486,-461,-424,-383,-362,-330,-285,-248,-230,-219,-202,-198,-175,-161,-157,-169,-167,-179,-158,-127,-132,-116,-138,-133,-104,-88,-79,-67,-57,-58,-56,-18,-13,-20,-28,-38,14,82,76,99,148,155,142,114,74,21,-65,-111,-97,-61,-41,-63,-12,316,792,1343,879,-1408,-1886,-1022,-249,191,249,240,247,264,284,261,245,251,239,266,288,293,304,308,315,323,328,339,343,335,300,281,244,191,162,114,80,31,-49,-139,-229,-312,-383,-448,-487,-479,-466,-451,-413,-376
2018-05-15,14:03:26.692,-356,-330,-268,-225,-223,-194,-194,-191,-181,-158,-139,-155,-168,-173,-170,-157,-130,-121,-118,-115,-121,-116,-114,-109,-68,-68,-54,-49,-58,-48,-21,-6,-18,22,59,70,131,200,162,120,88,20,-68,-98,-94,-99,-83,-68,-51,239,698,1136,975,-1202,-1981,-1186,-426,64,272,282,282,271,273,263,245,260,267,268,276,272,277,306,328,320,311,316,332,333,310,270,235,172,136,126,94,44,-22,-110,-214,-304,-362,-415,-470,-487,-453,-411,-400,-372,-338,-297,-279,-271,-220,-176,-172,-152,-148,-152,-140,-131,-145,-165,-164,-164,-136,-136,-134,-126,-132,-129,-91,-80,-90,-82,-71,-57,-54,-27
2018-05-15,14:03:27.729,-31,-28,-18,11,44,67,122,171,153,127,95,42,-29,-89,-93,-88,-72,-59,-53,166,613,1060,1262,-601,-2066,-1444,-501,145,324,285,278,298,317,294,288,294,285,280,296,305,313,329,330,331,355,379,369,351,345,298,271,258,197,160,110,58,-7,-86,-202,-314,-410,-456,-476,-486,-489,-453,-425,-393,-363,-340,-295,-272,-274,-226,-188,-172,-180,-165,-162,-166,-140,-122,-128,-147,-136,-111,-115,-144,-117,-86,-71,-59,-68,-57,-42,-41,-52,-64,-54,-36,-38,-53,-4,25,39,88,147,113,126,91,34,-6,-54,-33,-56,-42,14,19,288,773,1123,1025,-669,-1901,-1286,-514,-6,340
2018-05-15,14:03:28.766,338,326,323,333,301,301,294,272,265,279,269,272,305,305,294,281,278,284,274,262,246,229,166,105,92,83,91,4,-116,-220,-320,-377,-430,-481,-496,-467,-441,-413,-384,-344,-290,-254,-244,-246,-241,-225,-192,-175,-156,-132,-140,-116,-106,-116,-67,-107,-143,-103,-70,-73,-47,-52,-51,-46,0,26,15,2,14,70,101,143,188,218,165,116,130,65,-16,-58,-19,3,7,27,32,377,863,1207,641,-1326,-1756,-996,-261,198,285,249,295,292,278,309,323,253,253,288,267,316,322,280,319,352,315,319,360,349,317,316,265,157,145,125,79,15,-49,-142,-250,-356,-462,-486
2018-05-15,14:03:29.803,-478,-492,-490,-466,-403,-360,-396,-361,-273,-233,-224,-184,-196,-225,-204,-180,-178,-164,-153,-159,-160,-146,-113,-129,-131,-111,-118,-114,-109,-94,-74,-71,-73,-24,25,30,62,111,106,75,37,-14,-75,-137,-148,-139,-122,-113,-120,89,530,1081,1206,-802,-1958,-1314,-581,-68,176,172,176,196,189,176,161,162,176,190,192,199,212,233,228,227,268,282,284,297,273,255,248,212,152,120,70,31,-42,-132,-235,-324,-399,-452,-489,-501,-494,-469,-449,-391,-333,-313,-293,-278,-230,-206,-190,-184,-171,-164,-150,-143,-124,-122,-109,-111,-113,-103,-79,-78,-81,-65,-51,-57,-29,30,33,70,147,175
2018-05-15,14:03:30.840,133,107,80,6,-64,-70,-65,-54,-51,-50,-6,302,814,1428,911,-1275,-1755,-952,-347,110,294,284,281,291,281,278,289,290,294,295,306,326,343,354,381,382,390,427,431,437,435,390,337,286,224,182,128,57,-24,-124,-231,-329,-417,-444,-474,-470,-440,-403,-381,-359,-326,-297,-259,-232,-208,-189,-162,-147,-166,-170,-127,-118,-130,-122,-119,-106,-105,-105,-81,-25,6,29,54,86,80,61,12,-55,-120,-127,-117,-119,-104,-82,-19,291,794,1216,684,-1377,-1888,-1117,-456,8,280,298,298,289,293,286,285,285,281,287,302,310,302,314,329,342,342,360,384,377,369,327,290,254
2018-05-15,14:03:31.878,215,163,106,34,-57,-161,-261,-355,-428,-466,-475,-464,-446,-413,-379,-345,-311,-276,-247,-227,-204,-188,-173,-164,-166,-164,-155,-155,-148,-153,-148,-141,-121,-109,-104,-62,-26,-5,35,77,50,32,15,-43,-127,-171,-144,-135,-143,-125,-104,177,695,1218,1097,-1043,-2050,-1344,-510,56,280,284,274,281,302,297,294,305,305,300,300,310,338,356,353,396,435,424,422,438,436,417,368,329,278,208,130,48,-39,-164,-299,-380,-443,-494,-519,-520,-515,-487,-445,-399,-373,-336,-281,-252,-229,-205,-188,-166,-160,-158,-143,-118,-121,-117,-114,-115,-107,-60,-4,-2,22,77,87,54,19,-24,-79,-162
2018-05-15,14:03:32.915,-171,-127,-115,-116,-109,52,475,1008,1448,64,-1904,-1728,-821,-112,234,249,229,247,266,264,254,250,260,269,274,300,322,332,338,364,393,417,418,427,427,401,384,346,270,205,151,76,-27,-130,-241,-352,-430,-481,-515,-497,-468,-451,-418,-384,-348,-315,-282,-249,-224,-205,-197,-195,-173,-143,-143,-157,-155,-148,-143,-129,-76,-40,-19,18,69,48,21,-7,-42,-118,-195,-179,-154,-145,-136,-111,160,642,1147,1217,-732,-2077,-1475,-546,101,307,292,286,296,298,278,271,270,278,282,289,300,330,347,368,379,400,421,426,420,403,402,369,319,265,205,135,47,-51,-164,-287,-380,-442
2018-05-15,14:03:33.952,-504,-531,-517,-494,-462,-424,-381,-328,-290,-272,-245,-220,-192,-177,-173,-165,-165,-164,-159,-157,-144,-111,-50,-27,-10,49,55,27,-11,-65,-120,-173,-174,-151,-139,-120,-88,144,637,1208,1289,-524,-1979,-1467,-651,-71,230,256,257,269,274,260,266,272,272,273,300,303,326,346,369,380,392,394,392,399,396,375,331,278,225,181,109,41,-53,-163,-263,-363,-441,-471,-470,-466,-446,-406,-377,-345,-303,-266,-234,-204,-186,-184,-177,-158,-162,-155,-140,-154,-165,-141,-71,-59,-35,3,12,-20,-30,-66,-126,-193,-202,-171,-161,-164,-129,85,556,1103,1341,-320,-2070,-1668,-770,-69,255,250,235,259
2018-05-15,14:03:34.989,264,260,261,258,253,259,274,298,313,341,351,376,397,414,421,425,410,381,347,296,242,177,111,52,-32,-140,-249,-349,-417,-465,-487,-480,-449,-418,-390,-360,-316,-276,-243,-222,-205,-183,-171,-176,-188,-182,-170,-164,-155,-155,-152,-142,-141,-111,-69,-28,0,31,69,74,59,18,-33,-91,-139,-131,-111,-104,-87,-37,274,764,1323,1248,-1003,-2045,-1306,-415,152,246,215,235,242,255,247,245,246,255,258,271,281,295,317,326,353,362,365,390,379,357,334,303,261,207,155,90,29,-60,-167,-267,-356,-428,-472,-479,-467,-430,-404,-371,-322,-288,-270,-241,-221,-190,-170,-172,-158,-147
2018-05-15,14:03:36.027,-145,-144,-144,-151,-138,-143,-129,-119,-110,-121,-111,-101,-90,-57,-18,19,32,77,126,88,63,32,-27,-100,-124,-101,-93,-83,-61,112,567,1051,1255,-225,-1926,-1655,-798,-118,250,294,288,305,299,288,280,281,275,278,298,310,314,314,347,365,371,391,400,401,388,358,325,270,207,159,127,71,-19,-99,-194,-295,-390,-442,-461,-460,-451,-448,-417,-368,-323,-294,-270,-223,-196,-182,-155,-142,-136,-136,-127,-134,-140,-134,-135,-144,-140,-134,-139,-116,-100,-90,-84,-83,-79,-54,-56,-64,-37,-5,47,64,77,111,133,106,57,11,-45,-103,-121,-117,-107,-90,-32,322,802,1259,1041,-1268
2018-05-15,14:03:37.064,-2077,-1240,-355,182,262,243,259,272,276,280,286,278,268,270,261,273,310,332,338,353,359,363,367,360,338,305,254,210,188,152,102,44,-34,-116,-222,-330,-403,-447,-475,-473,-451,-415,-380,-348,-317,-280,-248,-232,-211,-182,-166,-169,-175,-170,-175,-186,-179,-166,-166,-165,-160,-157,-143,-137,-134,-119,-115,-105,-88,-74,-56,-24,-17,-21,-17,-6,-4,-3,4,14,60,93,115,151,185,165,129,92,36,-42,-71,-62,-66,-61,-21,250,752,1212,1161,-788,-1999,-1346,-558,5,296,285,278,287,295,278,268,265,274,277,287,304,294,290,315,328,335,345,346,352,339,303,262,211
2018-05-15,14:03:38.101,173,137,86,35,-18,-95,-192,-285,-363,-416,-447,-465,-437,-420,-414,-375,-337,-300,-266,-245,-206,-185,-173,-155,-133,-130,-144,-142,-137,-148,-151,-127,-123,-138,-120,-107,-101,-102,-89,-78,-73,-74,-73,-65,-71,-52,-38,-46,-41,-34,-24,53,95,111,145,181,153,129,80,3,-89,-136,-121,-110,-86,-68,101,543,1000,1295,44,-1950,-1790,-839,-48,299,272,275,296,275,261,264,273,259,255,271,275,272,278,302,316,330,341,351,368,358,335,303,262,215,158,95,49,-21,-106,-201,-298,-397,-476,-523,-528,-503,-487,-464,-431,-394,-352,-317,-289,-271,-246,-231,-196,-189,-183,-188,-194,-184
2018-05-15,14:03:39.138,-187,-188,-185,-176,-162,-160,-162,-154,-142,-118,-122,-134,-119,-98,-93,-90,-68,-69,-62,-58,-68,-72,-52,-34,-38,-29,24,56,51,115,161,142,101,70,23,-54,-127,-125,-121,-125,-121,-70,261,741,1265,1018,-1213,-2002,-1201,-395,123,194,170,188,222,205,205,212,198,187,188,199,208,246,257,262,287,300,324,343,329,309,296,267,238,188,146,95,32,-39,-126,-233,-333,-409,-466,-479,-480,-482,-463,-430,-399,-335,-296,-269,-233,-214,-199,-182,-169,-156,-142,-146,-144,-137,-114,-107,-104,-107,-98,-107,-104,-77,-47,-50,-48,-36,-25,-33,-36,8,15,5,18,27,26,32,54,113
2018-05-15,14:03:40.176,120,122,182,234,190,158,119,57,-32,-99,-79,-71,-80,-46,97,519,1002,1285,173,-1794,-1768,-880,-159,272,320,310,321,318,301,307,315,300,308,310,299,306,319,331,348,382,388,397,400,396,379,350,305,255,221,169,92,25,-56,-144,-243,-327,-400,-457,-455,-453,-443,-409,-355,-318,-296,-275,-251,-212,-191,-168,-159,-152,-144,-129,-143,-137,-138,-115,-114,-116,-119,-111,-109,-104,-91,-77,-78,-77,-65,-39,-35,-45,-34,-28,-36,-35,-23,-26,-36,-14,-5,-4,39,95,84,120,161,178,147,106,65,2,-95,-108,-47,-15,-14,17,295,773,1219,1221,-732,-2035,-1396,-460,182,340
2018-05-15,14:03:41.213,297,301,303,296,274,255,249,241,251,261,257,256,282,308,320,326,330,323,322,340,310,274,226,165,130,84,32,-38,-110,-215,-315,-407,-471,-518,-529,-521,-505,-479,-427,-387,-363,-318,-289,-267,-253,-228,-211,-205,-204,-198,-196,-175,-176,-175,-176,-174,-163,-163,-145,-133,-121,-111,-99,-105,-97,-95,-99,-89,-66,-64,-64,-55,-41,-33,-42,-31,39,46,53,118,158,106,89,67,1,-100,-125,-104,-106,-108,-85,89,542,1025,1200,-201,-1940,-1634,-790,-171,198,230,219,228,236,237,226,227,218,214,220,222,223,244,258,260,287,312,305,299,300,279,256,224,174,112,80,44
2018-05-15,14:03:42.250,-6,-90,-187,-271,-349,-415,-463,-479,-464,-459,-431,-390,-355,-315,-289,-255,-215,-193,-184,-177,-160,-156,-157,-142,-125,-125,-128,-120,-114,-126,-118,-63,-2,0,-12,-7,10,41,57,40,35,29,29,25,51,125,139,141,158,193,163,119,70,6,-103,-148,-113,-90,-89,-88,90,548,987,1221,-108,-1972,-1763,-794,0,330,318,303,313,321,322,316,312,308,284,299,316,331,333,343,359,382,398,400,404,409,399,359,323,278,219,181,126,40,-56,-167,-270,-355,-432,-475,-484,-477,-453,-414,-393,-371,-326,-279,-248,-228,-206,-187,-164,-158,-149,-150,-148,-146,-140,-133,-120,-115,-113,-103
2018-05-15,14:03:43.287,-98,-87,-81,-80,-65,-45,-48,-51,-50,-44,-29,-15,-8,39,108,101,127,190,184,138,117,81,-5,-87,-88,-80,-84,-78,-31,313,815,1263,990,-1151,-2043,-1281,-375,190,312,278,280,285,289,293,289,274,277,272,285,293,307,317,338,356,365,372,378,384,363,329,316,290,241,187,142,87,-3,-107,-218,-326,-402,-446,-477,-480,-467,-438,-413,-386,-353,-314,-272,-239,-212,-194,-186,-169,-167,-164,-149,-140,-139,-132,-132,-115,-107,-91,-85,-76,-70,-60,-64,-58,-54,-41,-29,-15,-9,-8,5,38,80,91,122,174,168,139,101,49,-37,-110,-111,-101,-94,-71,-33,258,779,1174
2018-05-15,14:03:44.325,941,-1135,-1988,-1252,-469,90,318,311,303,319,311,294,284,282,282,286,292,286,290,316,329,336,353,370,376,364,349,327,290,240,207,162,113,65,-20,-113,-207,-304,-386,-436,-478,-481,-456,-429,-404,-382,-355,-332,-297,-271,-246,-221,-202,-183,-168,-163,-161,-163,-159,-160,-155,-153,-151,-137,-133,-127,-113,-105,-92,-83,-73,-61,-46,-47,-40,25,62,67,103,139,126,100,53,4,-78,-139,-131,-117,-110,-90,-28,317,828,1226,808,-1332,-2055,-1233,-335,228,314,290,287,299,301,281,268,255,247,255,267,279,300,310,318,341,357,369,384,393,375,354,338,271,215,154,111,41
2018-05-15,14:03:45.362,-52,-149,-253,-357,-432,-478,-496,-481,-479,-461,-415,-383,-353,-319,-272,-244,-231,-214,-194,-182,-183,-170,-164,-163,-151,-157,-152,-132,-131,-118,-96,-103,-104,-95,-87,-90,-80,-65,-65,-54,-43,-51,-40,-14,62,79,91,128,161,126,103,67,10,-83,-105,-98,-94,-83,-66,99,554,1038,1335,-14,-1905,-1751,-824,-61,273,274,263,279,285,282,274,262,263,263,270,274,282,282,318,345,354,367,376,376,366,355,323,291,250,211,175,120,52,-47,-156,-257,-360,-439,-478,-502,-505,-487,-447,-416,-380,-355,-321,-288,-263,-244,-228,-214,-192,-195,-198,-180,-168,-175,-165,-148,-149,-148,-136,-116
2018-05-15,14:03:46.399,-108,-106,-95,-100,-86,-81,-67,-59,-70,-59,-39,-36,-30,16,69,67,97,160,163,118,94,51,-28,-108,-101,-80,-69,-65,-46,206,721,1157,1052,-825,-1991,-1397,-571,19,290,300,291,293,290,298,278,273,288,283,286,288,306,319,341,360,368,372,377,380,369,335,305,275,223,174,128,78,-1,-92,-197,-296,-360,-412,-456,-485,-477,-444,-406,-388,-348,-303,-282,-249,-222,-200,-192,-178,-164,-156,-145,-148,-154,-152,-152,-159,-151,-149,-135,-127,-117,-118,-113,-103,-99,-89,-76,-73,-57,-43,-25,-18,-16,55,83,88,127,173,154,108,63,0,-71,-113,-105,-99,-91,-71,15,423
2018-05-15,14:03:47.436,939,1302,455,-1723,-1934,-1041,-205,257,298,285,287,285,298,308,297,283,280,280,293,302,318,334,344,354,363,377,386,397,384,354,311,260,208,154,93,20,-71,-170,-252,-356,-447,-501,-526,-532,-507,-467,-436,-398,-359,-330,-297,-274,-254,-215,-197,-180,-178,-164,-150,-161,-166,-164,-148,-125,-130,-130,-117,-107,-93,-88,-75,-65,-72,-63,-40,-35,-52,-58,-40,-21,-13,-8,14,71,80,98,146,186,153,108,62,19,-74,-134,-107,-85,-94,-77,31,456,958,1358,546,-1733,-1945,-1038,-180,272,296,272,279,290,289,278,268,265,266,259,267,306,329,331,345,360,365,385,404,398
2018-05-15,14:03:48.474,375,351,307,266,218,165,98,45,-32,-150,-260,-362,-443,-492,-523,-514,-481,-459,-432,-392,-363,-326,-286,-261,-232,-200,-177,-169,-172,-164,-151,-151,-157,-160,-166,-160,-155,-155,-138,-124,-112,-110,-100,-86,-76,-54,-40,-39,-37,-30,-29,-10,-8,-8,2,21,38,110,122,120,154,190,158,116,82,19,-76,-113,-90,-93,-102,-88,0,396,920,1340,613,-1677,-1924,-1030,-232,225,284,253,245,246,264,273,270,266,250,269,281,296,309,303,312,342,365,374,378,379,377,347,303,260,217,169,98,23,-42,-133,-245,-342,-426,-474,-486,-477,-463,-445,-422,-379,-345,-316,-272,-234,-209,-200
2018-05-15,14:03:49.511,-185,-163,-153,-150,-134,-132,-153,-144,-121,-122,-126,-125,-125,-114,-96,-90,-86,-80,-80,-65,-40,-42,-56,-41,-28,-26,-21,-24,1,59,84,84,115,135,121,90,47,-12,-87,-99,-91,-106,-85,-80,-34,314,851,1252,849,-1354,-2072,-1261,-417,163,318,291,288,297,297,290,280,261,268,293,285,300,313,310,317,331,358,387,392,380,373,356,311,270,246,180,95,35,-33,-127,-225,-332,-415,-477,-512,-513,-512,-490,-458,-407,-352,-318,-279,-269,-257,-224,-196,-171,-169,-151,-138,-141,-142,-135,-132,-136,-137,-109,-112,-114,-104,-92,-88,-71,-60,-55,-47,-44,-51,-46,-32,-35,-6,5
2018-05-15,14:03:50.548,-12,-1,12,68,98,101,137,171,137,111,95,34,-42,-92,-94,-84,-73,-73,-8,323,812,1243,968,-1234,-2095,-1297,-384,200,308,277,278,277,301,304,279,278,272,269,277,285,292,301,314,326,333,352,374,392,379,328,301,269,221,166,112,55,-25,-122,-230,-328,-388,-464,-502,-506,-501,-476,-445,-416,-369,-337,-307,-285,-247,-214,-200,-179,-158,-153,-153,-169,-166,-150,-138,-133,-132,-119,-118,-119,-111,-108,-100,-76,-47,-51,-65,-65,-56,-34,-28,-20,-16,-19,-17,-15,-29,-17,10,68,79,77,116,137,106,58,22,-33,-97,-105,-83,-73,-67,-54,84,511,1021,1399,279,-1871
2018-05-15,14:03:51.585,-1767,-834,-102,270,277,259,278,291,289,282,288,269,279,274,290,303,310,313,321,341,349,355,365,354,354,331,302,260,218,169,95,26,-50,-157,-258,-354,-422,-464,-473,-461,-451,-436,-415,-378,-340,-311,-289,-245,-219,-220,-204,-182,-174,-161,-147,-141,-146,-159,-148,-136,-149,-155,-133,-100,-93,-87,-84,-82,-62,-55,-59,-50,-38,-45,-40,-20,-11,1,63,85,82,107,126,113,69,14,-9,-55,-96,-89,-80,-74,-55,76,508,1019,1309,198,-1873,-1894,-961,-164,277,308,280,289,298,296,290,284,277,286,281,287,312,314,325,334,354,376,382,393,389,380,343,298,264,219
2018-05-15,14:03:52.623,161,94,19,-71,-173,-281,-385,-460,-516,-532,-507,-477,-452,-416,-385,-358,-331,-296,-273,-247,-234,-213,-179,-181,-173,-154,-147,-143,-135,-139,-136,-135,-132,-135,-131,-117,-88,-95,-87,-73,-61,-45,-43,-56,-31,-24,-25,-16,-8,27,88,93,99,117,137,109,66,12,-20,-74,-79,-59,-52,-50,-18,282,808,1255,1022,-1078,-2077,-1340,-409,196,317,297,283,294,294,285,282,291,279,276,263,277,306,310,316,335,342,353,367,362,352,348,325,288,234,186,132,74,-19,-118,-207,-313,-409,-475,-504,-517,-528,-494,-448,-411,-375,-339,-307,-283,-250,-205,-190,-184,-163,-156,-164,-152,-156,-165
2018-05-15,14:03:53.660,-139,-134,-136,-142,-139,-134,-98,-85,-79,-83,-74,-51,-51,-46,-33,-24,-19,-18,-30,-23,-6,10,69,100,88,81,107,97,44,-2,-41,-92,-94,-70,-57,-55,-3,353,873,1326,927,-1237,-2011,-1224,-376,189,308,274,276,294,301,294,291,262,281,296,288,296,309,318,318,322,374,390,383,379,374,350,306,251,215,180,123,43,-22,-112,-219,-340,-427,-486,-513,-500,-498,-453,-416,-396,-366,-335,-296,-250,-215,-198,-192,-191,-169,-149,-146,-144,-140,-134,-132,-126,-125,-141,-111,-90,-100,-98,-88,-88,-78,-76,-66,-51,-55,-47,-45,-14,15,61,64,68,124,110,48,6,-33,-80
2018-05-15,14:03:54.697,-107,-71,-29,-38,-43,184,697,1154,1131,-672,-2050,-1558,-664,28,322,320,305,318,319,305,281,288,282,286,308,297,282,312,343,346,366,369,385,400,401,396,359,308,252,188,128,91,17,-93,-215,-324,-415,-492,-498,-507,-501,-479,-457,-432,-387,-336,-316,-269,-237,-204,-198,-192,-168,-149,-134,-138,-138,-137,-138,-138,-151,-124,-115,-127,-123,-104,-88,-95,-96,-83,-74,-65,-66,-61,-34,-24,-27,-26,25,71,74,94,97,72,48,0,-44,-84,-73,-68,-77,-71,42,464,988,1414,530,-1683,-1918,-1041,-176,283,299,288,299,292,291,294,279,258,264,279,278,286,306,321,344,353
2018-05-15,14:03:55.734,355,360,377,399,377,342,308,272,220,151,79,33,-47,-173,-281,-390,-475,-522,-544,-538,-482,-467,-439,-401,-357,-322,-304,-272,-221,-196,-185,-180,-164,-161,-160,-162,-148,-125,-132,-143,-151,-147,-128,-114,-111,-111,-105,-92,-82,-77,-88,-80,-63,-52,-33,-33,-23,-5,59,81,71,115,100,50,32,-4,-69,-75,-55,-48,-62,-67,129,629,1133,1450,-89,-2031,-1712,-753,15,314,293,281,297,304,294,265,276,275,273,270,273,275,293,314,332,373,386,388,390,370,347,341,322,272,216,165,111,31,-72,-196,-305,-357,-432,-500,-524,-510,-478,-444,-422,-391,-360,-299,-270,-244,-217,-191
2018-05-15,14:03:56.772,-193,-198,-159,-152,-169,-149,-129,-131,-134,-137,-126,-122,-119,-115,-120,-97,-76,-81,-72,-58,-59,-66,-63,-57,-53,-20,-21,13,76,81,123,146,93,38,17,-28,-68,-50,-28,-38,-51,65,509,1030,1303,287,-1736,-1809,-935,-242,206,289,269,252,276,298,282,272,265,256,248,255,286,296,288,313,335,344,352,391,386,355,334,304,251,197,151,105,41,-45,-153,-262,-347,-418,-474,-498,-508,-485,-421,-406,-377,-336,-303,-270,-251,-227,-188,-167,-166,-161,-162,-164,-153,-158,-159,-137,-134,-136,-114,-109,-109,-111,-91,-78,-70,-70,-66,-63,-56,-44,-53,-51,-26,-13,30,68,70,132
2018-05-15,14:03:57.809,106,53,4,-33,-71,-79,-63,-56,-56,-22,219,711,1166,1272,-466,-2026,-1554,-597,94,324,298,286,288,286,316,293,279,278,284,285,282,282,314,328,334,358,376,395,413,398,382,358,318,266,218,160,95,0,-112,-239,-337,-414,-488,-518,-531,-542,-513,-482,-438,-374,-340,-316,-294,-269,-229,-214,-199,-180,-152,-141,-148,-142,-136,-140,-142,-141,-136,-124,-106,-119,-98,-89,-87,-89,-78,-80,-73,-47,-52,-53,-40,-35,-15,-4,61,107,89,125,110,64,28,-2,-58,-68,-44,-41,-47,-49,173,666,1167,1343,-386,-1985,-1569,-647,52,285,261,264,280,270,256,279,281,259,265,271
2018-05-15,14:04:15.483,290,290,311,339,372,385,400,396,384,358,312,268,212,138,63,-22,-126,-243,-354,-457,-512,-542,-554,-558,-519,-481,-439,-411,-371,-340,-303,-280,-248,-217,-208,-198,-203,-201,-202,-188,-169,-152,-142,-136,-139,-132,-93,-93,-95,-34,16,49,76,128,118,97,59,9,-41,-102,-127,-114,-95,-72,-63,38,457,1036,1405,448,-1615,-1829,-1047,-405,81,272,282,278,293,280,272,276,284,275,288,293,308,332,337,367,417,440,463,488,505,488,465,446,417,342,258,163,20,-124,-237,-336,-452,-526,-581,-614,-606,-574,-534,-489,-429,-386,-352,-316,-293,-253,-202,-178,-174,-173,-163,-154,-147,-114
2018-05-15,14:04:16.769,-122,-129,-115,-118,-104,-97,-73,-28,-18,28,83,91,61,22,-17,-52,-100,-122,-113,-94,-82,-64,-32,259,839,1532,1270,-1026,-1767,-1042,-481,-97,186,212,203,189,194,212,200,190,187,196,188,211,233,244,260,275,290,331,371,429,407,397,385,329,276,235,132,25,-61,-185,-305,-403,-476,-532,-564,-554,-536,-516,-467,-431,-404,-364,-315,-286,-251,-229,-214,-194,-174,-163,-160,-162,-145,-131,-126,-123,-99,-47,-29,-3,48,64,43,0,2,-29,-98,-121,-95,-77,-68,-56,-5,330,916,1352,966,-999,-1878,-1256,-590,-114,237,309,305,324,341,345,346,354,358,362,355,369,417,430
2018-05-15,14:04:17.807,423,436,460,467,500,525,512,494,461,402,363,294,207,128,44,-76,-197,-300,-394,-442,-459,-465,-462,-433,-402,-372,-342,-293,-242,-217,-206,-173,-137,-133,-127,-106,-97,-104,-99,-105,-122,-126,-124,-126,-125,-102,-97,-61,-7,10,51,104,100,85,63,31,1,-49,-81,-60,-31,-38,-19,33,400,1010,1501,911,-1205,-1856,-1112,-455,14,257,274,268,263,258,264,258,246,248,272,261,272,272,290,309,331,372,415,422,440,436,405,374,348,280,202,151,38,-108,-243,-372,-481,-572,-622,-638,-640,-591,-551,-547,-506,-466,-431,-392,-360,-325,-304,-298,-266,-238,-242,-221,-211,-232,-212,-199
2018-05-15,14:04:18.844,-198,-185,-177,-173,-176,-139,-84,-54,-29,11,24,19,-14,-38,-72,-127,-101,-93,-103,-115,-95,-44,256,839,1597,1413,-911,-1737,-1019,-465,-96,170,179,171,191,198,193,194,210,217,223,251,248,242,289,333,342,351,372,398,386,384,404,359,286,254,210,128,37,-47,-158,-274,-363,-430,-490,-516,-504,-484,-454,-422,-395,-351,-296,-255,-221,-198,-189,-176,-157,-152,-152,-165,-162,-155,-150,-166,-143,-105,-88,-41,-12,-3,35,64,37,3,-35,-100,-137,-127,-103,-100,-87,-80,-43,355,973,1431,876,-1168,-1807,-1115,-493,-55,234,265,246,250,235,235,265,262,257,256,269,283,293,327
2018-05-15,14:04:19.881,339,343,369,404,404,418,415,390,367,313,270,220,130,32,-76,-197,-332,-423,-482,-522,-518,-520,-509,-455,-434,-426,-365,-334,-305,-308,-434,-279,-131,-103,-87,-99,-125,-147,-133,-118,-153,-198,-180,-124,-125,-172,-155,-102,-66,-40,6,0,-37,-68,-102,-146,-167,-190,-174,-153,-136,-116,4,432,985,1437,605,-1498,-1793,-1020,-410,78,279,283,294,298,274,277,295,288,306,308,327,357,373,383,428,443,440,463,490,505,509,489,454,402,344,264,176,67,-55,-174,-314,-445,-512,-524,-547,-544,-504,-465,-426,-394,-352,-306,-283,-252,-230,-230,-211,-174,-156,-142,-132,-144,-140,-144,-146,-148
2018-05-15,14:04:20.918,-139,-98,-106,-99,-43,-7,17,66,81,41,3,5,-35,-104,-146,-136,-106,-96,-110,-67,329,920,1402,865,-1223,-1813,-1115,-488,-132,142,249,255,258,274,260,179,108,149,223,352,368,297,263,271,278,289,310,340,335,310,302,267,224,185,114,42,-33,-109,-205,-303,-388,-449,-513,-515,-492,-467,-444,-410,-364,-324,-277,-235,-200,-169,-151,-150,-121,-77,-76,-83,-94,-84,-74,-76,-84,-67,-20,17,40,79,103,75,44,6,-28,-48,-84,-87,-80,-88,-79,-27,240,815,1251,1096,-543,-1941,-1573,-841,-256,177,301,293,303,314,314,300,299,307,302,302,318,319,323,336,363,381
2018-05-15,14:04:21.956,368,386,418,434,403,373,366,307,237,147,78,-47,-185,-316,-473,-561,-479,-431,-438,-460,-453,-409,-387,-423,-553,-417,-98,-27,-93,-63,-60,-103,-112,-142,-211,-216,-165,-160,-192,-231,-256,-225,-202,-181,-118,-94,-96,-51,-31,-56,-71,-69,-72,-167,-218,-200,-163,-145,-127,19,524,1092,1344,291,-1649,-1839,-1036,-360,113,313,321,319,347,345,329,343,345,341,358,355,373,397,397,411,426,440,466,507,523,503,479,460,425,349,264,171,55,-52,-176,-299,-387,-473,-538,-541,-534,-523,-484,-429,-392,-379,-335,-283,-232,-204,-192,-169,-158,-156,-142,-157,-165,-151,-160,-158,-145,-141,-117,-56
2018-05-15,14:04:22.993,-32,-33,-10,8,13,-53,-107,-150,-186,-111,-72,-93,-85,-68,-51,136,629,1264,1547,-266,-1751,-1227,-495,-76,218,229,195,195,197,157,123,193,211,205,228,235,225,232,247,282,292,298,328,366,392,377,351,321,312,239,143,61,-45,-149,-242,-361,-455,-509,-524,-503,-476,-451,-413,-366,-333,-294,-242,-186,-163,-126,-111,-108,-85,-86,-81,-98,-108,-121,-105,-59,-13,-10,4,49,70,36,10,-23,-63,-108,-149,-145,-117,-87,-66,-27,300,884,1355,1058,-955,-1970,-1333,-660,-152,193,249,245,245,254,253,233,230,260,260,252,250,263,282,301,332,360,372,384,403,400,382,352
2018-05-15,14:04:24.030,317,272,170,35,-60,-115,-373,-300,-167,-277,-406,-461,-558,-667,-778,-481,-162,-237,-222,-160,-204,-309,-475,-237,18,-51,-82,-41,-85,-132,-153,-170,-184,-199,-195,-174,-135,-100,-77,-50,-22,2,-4,-34,-56,-86,-168,-187,-151,-108,-77,-68,99,568,1138,1461,315,-1696,-1752,-943,-325,149,325,345,378,371,361,341,338,352,339,322,342,372,399,406,420,434,457,477,486,516,509,470,439,393,316,250,177,58,-59,-186,-305,-393,-463,-542,-562,-550,-550,-534,-481,-428,-393,-361,-304,-252,-220,-202,-187,-172,-159,-154,-157,-161,-163,-175,-147,-138,-124,-72,-50,-27,39,48,-69,-124,14,-14
2018-05-15,14:04:25.067,-174,-302,-201,-89,-33,-48,-85,167,843,1534,1171,-732,-1627,-1019,-332,77,333,324,278,239,187,142,107,109,98,78,71,74,86,89,90,138,180,187,210,270,279,267,263,239,182,112,43,-44,-147,-252,-342,-423,-473,-518,-544,-523,-490,-448,-393,-361,-314,-266,-223,-162,-112,-109,-77,-62,-55,-32,-39,-50,-42,-52,-16,20,7,9,37,40,89,128,153,182,249,219,184,135,109,51,-19,-25,-32,-19,5,50,320,886,1340,1211,-505,-1911,-1451,-649,-74,284,355,344,352,335,316,296,280,287,296,280,267,242,284,386,431,384,401,469,442,271,329,484,390,422,380,180
2018-05-15,14:04:26.105,180,200,22,-257,-371,-295,-307,-428,-532,-540,-526,-503,-469,-453,-414,-384,-373,-359,-341,-306,-254,-233,-243,-233,-200,-203,-207,-193,-172,-155,-134,-115,-109,-56,-9,4,38,82,83,67,31,6,-47,-113,-120,-91,-82,-89,-71,115,619,1110,1189,-152,-1821,-1653,-913,-313,145,303,287,302,300,290,316,319,287,279,305,318,320,339,350,365,384,391,391,423,411,394,356,306,251,184,113,30,-60,-167,-278,-362,-436,-514,-557,-561,-565,-571,-545,-500,-438,-423,-381,-344,-330,-307,-251,-210,-227,-306,-227,-231,-191,-109,-162,-194,-135,-158,-218,-194,-101,66,195,159,60,1,25,10,-77,-162
2018-05-15,14:04:27.142,-146,-117,-175,-198,-154,230,876,1367,660,-1390,-1940,-1252,-620,-161,120,157,167,225,257,252,252,259,240,254,276,299,313,326,357,368,394,420,432,468,467,445,404,362,313,272,183,88,-13,-122,-222,-312,-360,-410,-439,-445,-441,-437,-388,-346,-296,-264,-232,-200,-184,-151,-142,-130,-143,-146,-160,-153,-139,-140,-139,-141,-131,-142,-146,-144,-143,-136,-97,-39,-9,11,88,72,42,27,-1,-66,-153,-180,-148,-131,-123,-136,-11,431,962,1404,428,-1556,-1714,-1025,-498,35,332,319,275,212,124,188,333,311,266,276,291,256,273,354,378,394,382,343,379,408,390,357,313,257,178,119
2018-05-15,14:04:28.179,50,-31,-121,-221,-304,-367,-433,-476,-499,-485,-431,-400,-362,-327,-308,-281,-240,-196,-183,-157,-143,-134,-134,-117,-112,-113,-106,-90,-89,-76,-72,-66,-58,-64,-30,25,41,69,139,134,108,68,32,-16,-89,-84,-74,-70,-81,-52,72,499,1000,1237,365,-1531,-1756,-1030,-442,-11,259,303,294,289,281,275,264,270,281,264,257,273,297,306,292,318,350,344,345,347,336,310,251,229,207,134,66,-6,-93,-222,-313,-345,-475,-481,-499,-642,-686,-447,-291,-407,-189,-35,-116,-56,-19,-60,-170,-132,-19,-57,-133,-171,-167,-153,-167,-204,-212,-212,-208,-203,-153,-126,-131,-80,-35,-13,-35,-53
2018-05-15,14:04:29.216,-72,-136,-196,-177,-159,-159,-138,-80,298,886,1254,891,-964,-1977,-1376,-638,-90,281,347,333,326,336,352,330,317,331,340,349,359,375,381,386,393,416,479,505,498,482,468,429,381,327,260,167,77,-27,-137,-226,-337,-424,-502,-532,-509,-510,-485,-429,-394,-361,-318,-296,-272,-221,-176,-171,-166,-171,-170,-174,-177,-180,-192,-191,-204,-183,-172,-133,-109,-103,-54,-51,-30,19,-113,-165,-36,71,-14,-15,-19,55,83,34,-5,9,302,901,1597,1321,-829,-1795,-1188,-624,-71,207,161,123,143,140,121,121,128,120,112,127,167,209,248,272,307,342,374,408,434,451,421,389,342,278
2018-05-15,14:04:30.254,218,134,46,-47,-154,-249,-340,-408,-455,-499,-505,-473,-445,-413,-363,-331,-306,-269,-221,-182,-157,-136,-134,-146,-136,-118,-100,-111,-86,-71,-77,-62,-9,5,14,62,99,85,45,18,-17,-104,-161,-166,-137,-122,-130,-69,282,890,1250,770,-1145,-1930,-1345,-691,-196,183,287,281,271,255,260,255,260,246,228,208,232,291,303,390,381,356,373,402,424,421,363,86,-23,393,487,332,190,89,-68,-239,-401,-481,-417,-405,-526,-475,-358,-391,-402,-381,-386,-367,-346,-323,-311,-286,-260,-248,-236,-218,-212,-190,-177,-181,-157,-146,-134,-114,-74,-6,19,33,79,106,78,63,43,-4,-67,-101
2018-05-15,14:04:31.291,-90,-107,-90,-46,29,454,1013,1260,513,-1382,-1880,-1176,-457,81,324,341,365,376,390,371,339,311,317,333,348,364,382,399,398,400,409,419,409,415,406,363,308,277,222,140,74,1,-92,-195,-295,-368,-408,-473,-532,-560,-547,-508,-473,-423,-357,-320,-333,-322,-285,-246,-221,-205,-195,-183,-178,-171,-163,-135,-123,-127,-109,-141,-328,-342,17,63,262,350,252,206,88,-57,-75,-98,-122,-136,-123,24,452,1056,1452,375,-1567,-1667,-918,-387,49,247,261,289,318,334,340,369,381,376,391,410,438,438,448,467,488,508,524,534,540,533,508,452,391,335,273,189,91,-9,-105,-218
2018-05-15,14:04:32.328,-296,-358,-405,-426,-431,-433,-410,-358,-338,-319,-274,-236,-205,-173,-160,-155,-156,-153,-149,-154,-163,-176,-191,-193,-157,-161,-143,-84,-65,-93,-146,-178,-202,-259,-280,-274,-282,-298,-282,-149,288,860,1154,124,-1786,-1923,-1152,-560,-107,84,89,97,89,91,87,81,61,-72,-99,-53,48,256,305,329,354,358,313,156,117,364,345,204,250,258,210,128,18,-92,-188,-293,-385,-451,-485,-505,-486,-451,-421,-359,-310,-291,-245,-197,-159,-135,-124,-135,-121,-128,-115,-109,-124,-128,-101,-102,-68,-18,-10,17,72,89,69,39,19,-21,-89,-110,-110,-114,-96,-60,40,450,969,1263,552,-1445,-1825,-1078
2018-05-15,14:04:33.365,-387,113,296,301,309,321,324,309,310,313,307,303,299,303,313,326,337,350,360,386,396,382,385,351,298,264,205,158,83,-21,-103,-210,-300,-376,-468,-506,-531,-546,-597,-545,-374,-304,-298,-311,-318,-276,-191,-181,-212,-195,-189,-180,-185,-208,-192,-139,-118,-104,-66,-23,14,-22,-70,-95,-95,-155,-177,-167,-172,-131,-95,-31,293,900,1419,746,-1338,-1746,-1044,-495,-64,230,289,325,335,329,347,384,389,370,399,415,429,450,442,459,487,499,504,506,496,493,448,404,367,291,225,164,94,-13,-104,-189,-260,-330,-380,-389,-381,-358,-330,-295,-252,-208,-182,-156,-146,-118,-99,-99
2018-05-15,14:04:34.403,-96,-112,-129,-118,-113,-119,-136,-141,-89,-40,-13,36,54,18,-5,-21,-63,-127,-179,-193,-193,-182,-161,-130,212,790,1343,982,-1150,-2028,-1357,-625,-99,100,118,189,218,195,120,140,118,-124,24,99,131,353,536,523,441,377,394,380,349,310,305,331,304,236,160,95,35,-62,-149,-250,-335,-393,-438,-453,-449,-422,-382,-328,-285,-253,-209,-178,-154,-134,-117,-93,-87,-81,-79,-82,-92,-65,-51,-7,14,39,80,108,101,53,9,-26,-84,-128,-115,-107,-75,-64,-15,412,953,1166,539,-1338,-1910,-1245,-513,48,319,348,339,331,331,325,315,306,311,314,316,305,318,308,333,347
2018-05-15,14:04:35.440,350,354,347,341,341,297,263,231,186,122,52,-19,-100,-231,-313,-395,-482,-530,-548,-510,-370,-346,-470,-490,-452,-400,-341,-311,-277,-246,-220,-224,-219,-321,-366,-211,-242,-71,53,116,151,109,-21,-205,-361,-220,-16,21,17,13,-47,-34,299,894,1348,561,-1451,-1839,-1152,-568,-155,108,154,180,211,235,241,256,269,273,289,304,338,341,354,371,385,421,435,459,461,434,419,379,312,267,200,135,74,-11,-114,-222,-301,-348,-393,-395,-394,-394,-347,-327,-309,-258,-214,-180,-161,-147,-146,-153,-152,-128,-128,-130,-122,-113,-120,-76,-44,-35,-6,1,-13,-23,-63,-105,-150,-195,-201,-160
2018-05-15,14:04:36.477,-157,-167,-82,313,923,1494,732,-1396,-1828,-1099,-494,-70,106,117,94,17,97,241,200,98,83,182,191,211,290,311,270,165,100,148,477,554,524,500,456,335,257,83,-90,121,13,-63,-44,-187,-356,-425,-471,-497,-486,-483,-459,-431,-379,-347,-285,-225,-196,-183,-158,-138,-128,-118,-100,-90,-39,-7,33,79,103,77,26,-11,-39,-100,-146,-131,-81,-56,-66,-4,380,938,1383,775,-1214,-1758,-1096,-473,3,275,267,251,275,275,300,301,314,315,309,311,301,315,332,358,393,402,397,399,392,361,345,293,240,167,105,50,-16,-132,-218,-292,-379,-440,-482,-496,-486,-465,-424,-374
2018-05-15,14:04:37.514,-349,-346,-298,-269,-298,-283,-208,-189,-235,-259,-214,-204,-224,-332,-70,138,117,-24,-250,-386,-224,-204,-332,-279,-103,-3,74,179,596,1224,1615,-105,-1776,-1564,-861,-330,6,100,100,85,85,96,97,107,145,196,245,262,300,355,379,412,431,457,473,486,495,463,427,373,343,298,233,158,95,-5,-120,-217,-293,-334,-364,-369,-368,-351,-321,-281,-241,-228,-208,-183,-167,-155,-149,-178,-191,-181,-185,-164,-132,-116,-115,-113,-79,-81,-101,-147,-183,-225,-292,-303,-284,-279,-278,-284,-103,376,1027,1356,-276,-1945,-1642,-927,-416,-96,-26,-19,-23,0,28,-15,-33,5,33,-19,-59,-69,-62,-117
2018-05-15,14:04:38.551,170,358,313,259,254,200,125,-44,-84,-95,-156,-216,-31,94,-67,-292,-440,-470,-494,-620,-627,-582,-490,-405,-422,-481,-418,-273,-237,-237,-233,-240,-240,-237,-222,-196,-112,-83,-51,-1,48,31,10,6,-6,-55,-90,-86,-76,-45,-31,25,417,1013,1468,752,-1261,-1668,-969,-380,65,340,384,397,419,415,412,407,393,393,419,418,424,440,460,501,539,555,557,557,557,527,492,431,365,328,258,191,106,3,-79,-173,-277,-332,-357,-375,-368,-348,-307,-273,-250,-190,-132,-106,-118,-159,-164,-159,-158,-173,-182,-123,-98,-71,29,55,-31,-264,-128,81,12,-44,-54,-92,-134,-102,65,651
2018-05-15,14:04:39.589,1322,1676,5,-1683,-1422,-791,-272,195,267,217,118,219,281,218,211,195,204,259,290,295,311,325,343,379,423,430,423,432,430,392,347,328,283,235,178,74,-23,-139,-247,-306,-356,-387,-399,-374,-352,-315,-295,-261,-232,-203,-171,-145,-158,-143,-131,-135,-119,-68,-49,-33,5,8,-5,-28,-62,-104,-173,-188,-158,-139,-131,-136,-43,355,921,1398,801,-1390,-1890,-1117,-455,29,224,215,219,218,226,226,223,197,220,261,287,304,293,317,357,367,365,366,335,273,252,329,320,305,235,203,158,79,-45,-180,-326,-475,-432,-391,-430,-480,-416,-369,-336,-279,-373,-515,-175,-73,-213,-171
2018-05-15,14:04:40.626,-219,-227,-148,-111,-99,-67,-83,-94,-93,-126,-207,-231,-215,-177,-165,-158,-172,-87,289,959,1627,710,-1511,-1734,-953,-368,81,285,281,286,280,267,264,283,287,286,295,306,322,335,342,366,389,403,424,424,431,408,390,333,253,215,188,110,5,-99,-189,-287,-367,-401,-428,-438,-430,-400,-372,-341,-282,-229,-211,-195,-183,-182,-172,-137,-117,-94,-46,-38,-63,-73,-93,-153,-212,-256,-246,-223,-213,-198,-174,-9,460,1223,1634,-81,-1869,-1543,-812,-348,2,75,63,67,102,133,117,104,107,115,138,160,199,228,245,261,271,305,318,304,283,273,238,134,59,102,199,163,-7,-122
2018-05-15,14:04:41.663,-185,-266,-343,-409,-428,-398,-367,-337,-315,-266,-252,-257,-255,-207,-176,-144,-100,-65,-6,42,57,33,9,-22,-56,-77,-126,-107,-95,-96,-73,-53,211,731,1261,1053,-801,-1855,-1330,-655,-192,173,263,266,268,245,262,297,280,222,269,262,241,279,290,303,364,391,388,376,413,400,325,305,272,209,155,93,24,-72,-176,-270,-368,-411,-436,-482,-487,-399,-384,-377,-334,-300,-258,-230,-208,-194,-174,-57,44,-152,-266,-194,-112,-84,-99,-113,-99,-135,-104,-164,-248,-299,-264,-173,143,763,1346,1058,-969,-2012,-1484,-744,-165,165,212,174,181,242,253,228,209,218,242,249,249,251,284,294
2018-05-15,14:04:42.701,324,312,330,375,352,309,272,210,178,185,120,51,12,-20,-117,-201,-276,-337,-361,-354,-397,-415,-371,-285,-286,-274,-281,-234,-198,-181,-163,-150,-150,-163,-84,17,-4,-75,-26,10,-25,-72,-106,-129,-181,-170,-158,-143,-103,-35,358,984,1451,829,-1362,-1929,-1156,-454,62,271,277,308,297,266,247,249,258,250,215,204,189,297,405,380,367,393,398,390,376,340,307,270,213,149,116,92,39,-49,-138,-231,-341,-422,-435,-432,-476,-477,-451,-477,-245,-142,-227,-186,-190,-209,-150,-160,-371,-253,-37,35,35,37,-1,-43,-124,-225,-278,-292,-308,-266,-246,-241,-171,192,860,1522,826,-1391
2018-05-15,14:04:43.738,-1787,-1103,-577,-139,102,113,143,178,174,170,220,266,280,277,288,321,329,347,363,377,410,423,428,445,428,372,329,275,224,205,139,87,40,-69,-170,-257,-308,-347,-362,-353,-355,-348,-293,-239,-212,-169,-138,-141,-145,-112,-129,-149,-151,-148,-134,-95,-73,-58,-25,19,-2,-54,-80,-94,-147,-182,-179,-159,-129,-91,225,818,1334,1067,-1045,-2033,-1323,-627,-115,150,186,185,167,162,149,150,157,86,71,258,312,294,302,292,299,320,321,312,295,289,179,131,129,159,179,127,120,58,-114,-221,-239,-285,-368,-428,-423,-402,-412,-384,-345,-319,-269,-257,-278,-271,-227,-204,-207,-198
2018-05-15,14:04:44.775,-164,-158,-152,-134,-100,-30,5,59,110,79,36,17,-3,-58,-91,-82,-56,-39,-14,306,872,1397,1126,-923,-1886,-1217,-544,-47,274,300,266,271,278,316,295,294,303,318,319,324,333,332,362,370,360,352,349,351,323,286,240,178,132,108,69,16,-32,-104,-200,-260,-346,-419,-433,-378,-365,-380,-395,-389,-358,-326,-337,-344,-325,-282,-218,-189,-216,-213,-214,-244,-265,-146,-92,-113,-59,-65,-106,-109,-135,-168,-274,-233,-185,-107,-71,-48,349,985,1462,580,-1576,-1857,-1107,-511,-40,156,146,116,128,160,183,202,224,248,249,258,291,306,334,363,410,415,405,398,395,379,326,281
2018-05-15,14:04:45.812,239,218,185,155,127,73,-8,-84,-173,-241,-269,-305,-320,-312,-294,-276,-243,-186,-159,-165,-153,-134,-108,-127,-148,-139,-135,-135,-122,-139,-139,-116,-83,-77,-45,-16,8,-7,-32,-51,-92,-128,-179,-162,-149,-155,-139,206,775,1292,1171,-888,-1994,-1360,-662,-193,114,156,161,143,130,145,100,74,12,113,266,364,354,291,263,252,244,219,242,203,77,66,140,232,241,183,145,89,10,-56,-143,-240,-305,-357,-390,-419,-411,-394,-380,-330,-288,-266,-233,-217,-181,-150,-148,-152,-124,-108,-133,-114,-65,-59,-27,21,41,63,115,130,106,66,45,32,-31,-67,-61,-63,-32,41,456,1001
2018-05-15,14:04:46.849,1192,472,-1419,-1830,-1146,-518,-23,297,315,291,297,294,307,318,309,305,296,295,313,325,333,353,346,345,340,348,337,285,230,197,140,82,59,43,35,-10,-73,-140,-190,-265,-312,-353,-356,-354,-350,-326,-292,-269,-235,-226,-235,-207,-214,-212,-182,-195,-210,-199,-206,-199,-191,-141,-83,-64,-38,2,-5,-34,-65,-100,-156,-340,-338,-185,-76,-32,103,562,1255,1685,143,-1760,-1619,-868,-301,29,80,99,117,103,107,111,112,122,156,177,188,201,218,233,258,277,316,309,332,326,303,258,205,174,130,112,91,65,11,-76,-138,-189,-252,-301,-321,-319,-311,-305,-253,-209,-187,-196
2018-05-15,14:04:47.887,-189,-170,-156,-182,-188,-181,-162,-153,-150,-140,-133,-136,-100,-58,-19,15,39,30,0,-20,-65,-121,-174,-176,-153,-158,-160,80,593,1204,1420,-322,-1887,-1491,-769,-269,90,182,174,175,179,162,167,154,148,151,167,157,156,187,189,188,189,226,228,237,238,233,201,152,90,9,25,72,24,-1,-66,-151,-225,-265,-280,-301,-313,-269,-293,-292,-265,-245,-247,-232,-228,-204,-161,-156,-175,-193,-192,-178,-126,-73,-33,12,72,65,36,8,-26,-44,-103,-113,-84,-61,-52,-16,320,875,1242,893,-925,-1896,-1368,-678,-144,254,373,367,357,353,351,328,309,319,319,336,341,341,341,330
2018-05-15,14:04:48.924,354,373,362,380,375,350,279,236,202,175,144,123,83,48,-21,-119,-203,-273,-314,-337,-358,-357,-337,-321,-296,-245,-214,-206,-212,-203,-188,-214,-224,-238,-232,-217,-223,-233,-214,-169,-136,-106,-39,-8,-71,-175,-167,-25,23,-73,-111,-144,-154,-166,-254,-133,720,1518,1391,-631,-1826,-1278,-586,-110,127,155,120,125,110,86,123,124,129,148,162,177,210,219,246,247,290,298,296,318,329,310,268,236,217,180,156,138,100,29,-40,-99,-175,-236,-284,-302,-309,-284,-240,-223,-208,-174,-164,-163,-151,-153,-174,-190,-186,-182,-155,-96,-68,-39,-19,3,1,-37,-72,-101,-167,-198,-188,-169
2018-05-15,14:04:49.961,-164,-131,109,635,1136,1155,-385,-1941,-1675,-937,-366,66,224,226,224,246,246,254,234,252,254,233,244,256,233,240,266,283,312,277,267,262,233,211,167,133,96,56,3,-93,-135,-116,-86,-173,-243,-268,-321,-349,-360,-359,-333,-313,-341,-298,-179,-140,-169,-186,-204,-220,-239,-229,-229,-211,-139,-97,-66,-6,25,0,-47,-82,-104,-145,-178,-151,-134,-117,-109,28,525,1098,1477,329,-1711,-1789,-945,-292,178,330,317,316,322,310,311,300,290,293,302,314,314,324,337,358,365,359,375,367,340,316,272,210,167,148,155,121,66,14,-51,-131,-212,-291,-346,-355,-335,-306,-297,-272
2018-05-15,14:04:50.998,-246,-233,-218,-215,-211,-217,-212,-187,-187,-195,-194,-155,-117,-93,-62,-28,-18,-60,-80,-100,-138,-193,-231,-210,-194,-188,-183,56,579,1073,1099,-459,-1897,-1608,-920,-406,8,166,161,148,122,8,61,272,263,209,255,305,290,251,220,216,238,243,224,224,206,192,154,102,78,63,27,-20,-49,-90,-146,-199,-240,-264,-288,-293,-265,-247,-217,-188,-142,-121,-109,-105,-80,-73,-74,-72,-73,-86,-91,-36,1,15,49,99,61,18,-1,-40,-117,-179,-154,-127,-125,-124,14,512,1054,1153,194,-1684,-2009,-1248,-487,94,331,346,340,322,314,310,302,291,270,263,257,262,277,304,312,319
2018-05-15,14:04:52.036,344,350,334,309,286,256,202,129,91,61,42,22,-51,-146,-187,-257,-332,-372,-371,-396,-418,-342,-274,-174,-163,-190,-202,-193,-190,-241,-328,-446,-348,-137,-9,-16,-29,-46,-28,0,6,-9,-61,-93,-132,-158,-150,-158,-156,-150,-131,-98,253,829,1416,1020,-1203,-1995,-1274,-583,-56,202,223,240,265,278,292,297,302,310,319,336,353,364,367,368,365,396,428,420,397,355,312,259,198,144,105,89,71,22,-40,-120,-191,-262,-312,-319,-336,-332,-270,-223,-215,-185,-176,-169,-136,-129,-126,-128,-136,-147,-145,-136,-98,-79,-59,-23,-1,-14,-33,-57,-95,-162,-194,-177,-170,-167,-160,-28
2018-05-15,14:04:53.073,452,1005,1156,121,-1662,-1816,-1155,-567,-95,182,213,211,219,214,203,195,201,198,182,204,222,181,25,-43,122,152,368,541,477,392,324,251,146,-8,30,-19,-78,82,74,-83,-248,-331,-356,-372,-393,-376,-349,-324,-290,-263,-259,-231,-216,-196,-183,-179,-173,-166,-148,-136,-143,-119,-54,-20,1,28,64,37,14,-1,-36,-89,-145,-142,-124,-111,-90,166,744,1153,994,-542,-2013,-1734,-940,-229,251,356,331,331,329,330,334,326,337,345,337,331,360,379,362,362,399,407,387,384,368,310,231,175,129,72,50,36,8,-45,-112,-186,-267,-298,-324,-342,-322,-303,-297,-262,-260,-259
2018-05-15,14:04:54.110,-241,-228,-235,-239,-217,-274,-324,-282,-227,-180,-81,-90,-113,-21,16,-19,-5,-72,-238,-427,-440,-149,103,94,-5,26,429,1006,1573,813,-1585,-2056,-1157,-333,143,218,167,155,150,143,133,118,119,130,139,163,191,229,258,273,312,320,329,332,311,282,252,197,134,86,84,68,36,-21,-100,-158,-224,-285,-309,-293,-282,-265,-225,-201,-186,-174,-171,-160,-142,-142,-145,-140,-146,-165,-108,-68,-35,5,37,25,3,-30,-65,-133,-193,-171,-131,-136,-133,-103,184,722,1273,1254,-787,-2076,-1442,-683,-136,190,249,237,236,227,227,217,222,231,246,236,233,213,198,179,292,334,303,315
2018-05-15,14:04:55.147,285,225,169,217,159,92,43,33,-33,29,-23,-180,-354,-420,-493,-341,-247,-220,-219,-251,-300,-306,-242,-213,-188,-219,-233,-233,-231,-166,-147,-127,-75,-45,-60,-92,-138,-188,-218,-215,-201,-178,-156,-114,-47,338,900,1406,823,-1419,-1968,-1136,-472,28,264,285,277,292,300,281,285,286,292,306,311,336,349,354,374,384,401,410,405,377,322,272,260,210,153,120,81,35,-33,-97,-139,-215,-260,-273,-295,-292,-263,-232,-217,-213,-197,-175,-169,-173,-155,-147,-132,-115,-57,-12,29,-4,-27,-74,-141,-190,-242,-248,-222,-191,-166,-161,25,533,1110,1127,-521,-1894,-1575,-871,-350,39,171,136
2018-05-15,14:04:56.185,98,66,4,58,208,188,49,283,415,389,347,308,312,287,206,223,267,253,197,115,63,30,8,14,-31,-120,-190,-225,-294,-337,-345,-345,-362,-355,-302,-250,-225,-206,-177,-146,-132,-122,-110,-82,-56,-23,-14,35,72,80,77,39,-7,-32,-97,-117,-94,-98,-99,-68,220,763,1208,1125,-481,-1905,-1568,-778,-122,267,330,328,353,339,300,294,317,324,317,316,320,313,311,326,329,340,346,350,343,290,225,153,108,85,66,12,-14,-51,-144,-225,-307,-353,-402,-428,-400,-368,-356,-361,-363,-405,-272,-256,-267,-203,-172,-193,-159,-127,-119,-118,-148,-271,-229,-203,-177,-165,-261,-263
2018-05-15,14:04:57.222,-282,-290,-160,-166,166,889,1629,1171,-1168,-1905,-1217,-577,-97,114,111,80,101,118,129,126,137,158,201,252,287,304,344,356,353,410,424,414,380,339,274,227,184,163,130,107,91,19,-65,-157,-228,-253,-276,-296,-283,-251,-225,-212,-202,-184,-181,-192,-188,-167,-128,-102,-68,-44,-18,-38,-79,-125,-168,-209,-234,-217,-208,-206,-186,-127,155,666,1147,906,-1077,-2032,-1429,-759,-257,111,185,155,149,169,147,126,127,135,135,128,113,115,136,170,204,192,180,185,143,134,97,56,1,-14,-18,-36,-90,-163,-244,-314,-396,-461,-468,-532,-530,-340,-216,-177,-169,-209,-213,-230,-235,-220
2018-05-15,14:04:58.259,-262,-230,-159,-147,-128,-98,-85,-96,-159,-227,-272,-319,-327,-300,-270,-248,-224,-62,406,1002,1333,13,-1929,-1818,-998,-345,102,192,180,177,189,180,188,204,200,211,215,225,257,280,311,311,320,329,341,332,297,232,194,132,52,2,4,-12,-63,-127,-215,-282,-308,-342,-356,-342,-298,-264,-236,-215,-188,-167,-158,-149,-155,-151,-142,-159,-127,-57,-24,14,51,58,27,-3,-33,-72,-141,-114,-70,-58,-56,-14,299,860,1519,1182,-964,-1860,-1281,-475,102,321,260,248,242,229,222,258,258,232,148,212,286,314,372,434,487,450,320,319,409,372,233,153,163,150,110,107,92,-9
2018-05-15,14:04:59.296,-74,-90,-152,-206,-233,-254,-263,-228,-172,-128,-92,-66,-52,-50,-44,-51,-47,-18,-7,21,67,90,64,30,0,-53,-115,-150,-141,-121,-111,-88,49,479,1025,1167,72,-1631,-1744,-1045,-433,50,272,270,276,265,291,298,292,326,326,313,328,345,348,345,333,350,370,383,343,278,212,157,109,62,48,45,15,-34,-80,-153,-234,-268,-280,-305,-328,-307,-298,-271,-237,-217,-221,-179,-186,-217,-209,-212,-204,-203,-159,-183,-135,-164,-200,-6,-1,-64,-115,-204,-238,-224,-237,-290,-241,-72,434,1190,1653,83,-1897,-1752,-925,-301,38,90,97,80,68,77,102,100,102,112,139,121,108,130
2018-05-15,14:05:00.334,164,186,240,275,274,269,250,199,152,120,94,72,43,18,-24,-105,-190,-253,-320,-340,-323,-311,-309,-278,-236,-226,-193,-188,-172,-146,-139,-119,-128,-130,-89,-56,-7,25,36,40,17,-27,-59,-88,-122,-128,-108,-104,-75,155,672,1182,1303,-230,-1848,-1502,-722,-229,157,261,247,251,248,263,277,272,257,261,298,309,339,356,335,343,375,351,337,322,276,224,190,124,78,56,30,8,-28,-127,-179,-242,-258,-298,-354,-335,-297,-313,-288,-225,-195,-240,-240,-138,-105,-162,-140,-89,-84,-64,-53,-60,-87,-119,-150,-185,-227,-213,-182,-157,-160,-163,149,723,1318,1099,-907,-1953,-1346,-660
2018-05-15,14:05:12.957,165,201,189,181,192,215,201,182,271,318,271,103,-56,-33,-14,-134,-209,-115,63,37,-89,-220,-285,-253,-236,-275,-287,-258,-228,-208,-209,-174,-122,-127,-169,-145,-70,-17,2,28,33,6,-30,-61,-99,-146,-174,-130,-114,-98,-88,175,738,1379,1341,-717,-1937,-1380,-702,-165,162,210,171,163,188,223,229,237,251,250,271,282,254,279,322,348,355,324,315,267,171,102,59,47,26,50,54,26,-54,-168,-225,-259,-302,-289,-296,-269,-254,-252,-249,-254,-235,-212,-267,-283,-195,-189,-130,-44,-54,-130,-67,-172,-324,-263,-187,-207,-399,-389,-98,36,152,799,1606,1329,-943,-1988,-1346,-713
2018-05-15,14:05:13.920,-263,33,80,83,87,120,129,119,137,186,201,224,245,307,350,342,341,356,349,340,313,264,205,150,148,125,104,92,64,-13,-95,-140,-152,-175,-188,-197,-165,-161,-139,-133,-114,-88,-85,-68,-54,-44,-30,-13,8,2,-41,-84,-144,-226,-281,-265,-236,-252,-260,-126,421,1107,1185,-277,-1870,-1726,-1023,-451,1,133,132,117,66,40,113,143,7,-47,131,138,123,64,70,-45,129,289,257,210,175,-103,-121,133,66,-80,-65,6,3,-142,-282,-324,-340,-373,-366,-292,-288,-281,-269,-254,-203,-195,-184,-172,-117,-81,-33,17,39,10,-31,-88,-146,-175,-231,-238,-216,-199,-182,-158
2018-05-15,14:05:14.957,251,907,1439,769,-1438,-2002,-1272,-559,-25,188,183,172,184,215,225,189,202,218,209,210,253,263,259,255,279,261,248,224,175,111,72,37,24,2,-19,-34,-71,-119,-172,-224,-281,-308,-293,-366,-367,-233,-212,-219,-271,-354,-356,-212,-24,-38,-46,63,100,-35,-407,-230,65,-88,-254,-110,-15,-134,-112,5,344,956,1446,572,-1481,-1861,-1184,-615,-116,169,186,164,166,199,250,268,284,321,317,321,340,343,354,372,404,394,377,342,294,253,204,164,107,76,89,42,19,18,-34,-97,-143,-177,-176,-154,-143,-135,-102,-79,-55,-35,-29,-14,32,37,39,66,61,2,-45,-101
2018-05-15,14:05:15.995,-152,-284,-266,-162,-180,-214,-145,105,658,1269,1232,-492,-1977,-1683,-974,-311,110,199,177,173,140,116,80,-19,23,62,216,339,346,242,127,304,390,309,232,207,97,39,166,164,53,67,76,28,-47,-124,-187,-234,-244,-272,-270,-250,-202,-140,-108,-94,-84,-51,-56,-16,28,39,77,99,76,57,4,-48,-103,-150,-150,-147,-140,-125,-61,278,891,1416,801,-1336,-1981,-1285,-555,2,256,290,287,285,298,282,280,268,273,301,308,309,296,302,314,315,302,273,242,178,148,125,87,29,3,0,-33,-56,-61,-110,-217,-265,-275,-304,-312,-337,-339,-376,-345,-114,-7,-14,-44,-48
2018-05-15,14:05:17.032,-54,-64,-42,-212,-125,51,-72,-187,-197,-255,-130,5,1,-59,335,941,1240,221,-1693,-1931,-1237,-647,-171,92,107,139,184,211,222,240,229,228,264,285,300,304,306,350,365,351,313,283,265,219,151,123,109,91,96,57,0,-69,-136,-190,-222,-231,-224,-216,-232,-221,-159,-116,-98,-106,-122,-120,-89,-77,-82,-63,-59,-130,-163,-230,-229,-207,-266,-279,-256,-279,-237,-23,555,1193,1212,-592,-2130,-1778,-966,-392,-78,61,2,-54,6,-33,-27,113,-19,17,280,356,242,67,52,147,99,129,255,250,251,192,102,61,53,52,27,-6,-77,-136,-150,-197,-232,-207,-192,-157,-122,-110
2018-05-15,14:05:18.069,-96,-76,-77,-87,-93,-66,-22,-11,6,44,51,11,-43,-102,-109,-142,-183,-162,-131,-125,-115,166,759,1194,1068,-637,-2030,-1540,-752,-108,244,277,263,288,309,294,288,298,276,278,285,272,276,280,295,319,294,190,227,360,293,166,113,78,44,3,4,-14,-84,-185,-255,-300,-340,-339,-346,-357,-305,-181,-277,-269,-242,-208,-196,-366,-132,151,329,202,134,89,21,-81,-207,-269,-218,-212,-224,-215,-23,499,1098,1099,-567,-1875,-1502,-843,-339,90,218,224,250,268,274,271,252,264,284,284,254,288,320,339,351,344,347,312,276,242,213,158,94,64,38,18,-6,-61,-113,-156
2018-05-15,14:05:19.106,-185,-215,-260,-285,-252,-226,-201,-193,-201,-172,-142,-147,-139,-137,-151,-139,-158,-178,-133,-191,-260,-297,-333,-331,-312,-308,-301,-185,213,810,1248,208,-1810,-1829,-1058,-546,-123,10,-59,-65,-133,-362,-238,8,17,217,378,291,190,148,152,127,99,167,206,184,123,74,36,3,0,32,37,4,-56,-110,-154,-203,-236,-240,-216,-187,-195,-205,-132,-93,-81,-97,-114,-70,-29,-10,18,42,-9,-40,-32,-51,-80,-146,-138,-137,-132,-114,-19,367,934,1438,871,-1307,-1900,-1132,-419,84,235,245,238,230,239,231,239,223,213,233,239,294,325,318,361,386,383,340,297,268,218,157,105,61
2018-05-15,14:05:20.144,30,62,44,-55,-218,-161,-160,-233,-192,-305,-399,-233,-103,-82,-163,-200,-104,-114,-87,83,177,133,28,-41,-83,-150,-207,-231,-213,-200,-180,-163,-33,434,1003,1205,60,-1653,-1695,-1000,-439,38,282,312,314,301,291,304,289,290,304,292,283,305,336,332,336,361,384,374,335,288,224,189,167,124,100,102,68,8,-49,-120,-163,-205,-221,-214,-207,-198,-168,-148,-154,-148,-138,-116,-78,-95,-69,-18,-32,-77,-91,-105,-175,-264,-312,-276,-232,-219,-190,154,692,1272,932,-1201,-2068,-1521,-716,-36,174,125,-45,10,236,115,46,165,138,243,354,316,284,282,287,311,323,325,304,243
2018-05-15,14:05:21.181,173,144,125,108,119,117,92,54,1,-76,-141,-200,-208,-175,-124,-123,-88,-75,-83,-67,-41,-49,-18,17,48,61,75,37,28,-36,-107,-141,-187,-200,-184,-161,-137,34,500,1028,1275,224,-1689,-1829,-1040,-389,80,219,187,169,180,162,160,171,167,75,108,232,314,358,333,332,304,271,264,238,148,0,-199,-224,-23,103,154,92,-12,-108,-179,-238,-311,-417,-449,-445,-328,-30,-49,-160,-247,-156,-61,-27,-45,-103,-145,-174,-103,-105,-160,-209,-274,-281,-239,-185,-154,-65,365,962,1280,243,-1627,-1785,-1063,-427,58,274,270,290,311,302,282,266,278,304,301,281,310,366,362,380
2018-05-15,14:05:22.218,389,356,333,311,261,204,163,145,143,149,124,52,-14,-60,-115,-160,-201,-242,-256,-266,-224,-198,-166,-213,-250,-173,-68,46,63,8,-5,-43,-56,-68,-150,-204,-258,-367,-327,-283,-303,-282,-134,290,938,1475,438,-1723,-1926,-1141,-454,-33,22,9,23,25,12,126,183,194,180,141,143,150,192,209,246,273,281,271,241,206,163,132,113,126,123,116,101,51,-26,-86,-124,-149,-161,-169,-136,-119,-87,-87,-87,-73,-56,-31,-4,10,36,78,55,31,-2,-56,-111,-157,-201,-214,-215,-204,-184,64,609,1141,1107,-437,-1907,-1641,-898,-307,94,198,182,180,177,165,152,147,130,101
2018-05-15,14:05:23.255,67,38,180,292,311,323,300,300,290,209,112,48,-33,-67,-97,-85,-37,-88,-154,-207,-254,-322,-345,-369,-424,-343,-267,-222,-220,-240,-231,-171,-77,-75,-49,-15,-29,-81,-106,-132,-173,-226,-251,-214,-179,-170,-143,64,580,1203,1380,-219,-1903,-1615,-851,-281,139,256,263,257,259,264,244,240,247,253,254,288,289,293,333,339,338,311,293,292,217,149,88,49,53,41,45,53,-12,-98,-152,-195,-246,-231,-217,-208,-196,-178,-162,-154,-129,-124,-131,-146,-173,-111,-33,-63,-61,-25,-103,-145,-199,-269,-253,-229,-250,-255,-138,294,887,1449,601,-1604,-2022,-1286,-550,-51,87,3,12,21
2018-05-15,14:05:24.293,6,-10,-196,-128,-150,163,493,440,337,314,302,285,251,212,189,147,122,137,129,110,107,99,87,18,-64,-80,-80,-94,-111,-89,-83,-101,-101,-64,-43,-10,-21,-30,6,31,77,90,115,79,19,-12,-48,-110,-139,-147,-127,-111,-121,-30,419,968,1199,371,-1484,-1864,-1198,-557,-28,228,243,232,223,213,183,168,165,131,156,170,140,157,124,218,335,345,284,224,170,156,97,-18,-60,-8,-18,-86,-226,-236,-141,-207,-361,-424,-238,-184,-247,-259,-285,-274,-211,-238,-179,-106,-107,-63,-112,-105,-56,-115,-179,-223,-279,-293,-265,-216,-177,-123,204,795,1272,862,-1147,-1967,-1335,-669
2018-05-15,14:05:25.330,-74,253,283,286,290,292,285,277,297,301,314,336,321,299,339,352,362,366,349,310,278,227,168,131,107,75,67,28,-20,-36,-66,-128,-169,-210,-218,-213,-196,-168,-146,-138,-133,-134,-146,-102,-66,-121,-170,-94,15,-26,-64,-116,-175,-239,-279,-262,-238,-259,-279,-83,513,1357,1327,-753,-2083,-1574,-852,-310,-10,28,0,11,49,-1,-142,9,262,194,172,209,176,158,198,224,180,167,158,155,127,88,72,79,86,86,74,78,17,-61,-120,-157,-138,-122,-111,-80,-57,-61,-37,-5,-22,-12,-5,18,51,80,107,105,76,23,-29,-85,-124,-131,-119,-134,-113,-109,108,650
2018-05-15,14:05:26.367,1145,1087,-472,-1907,-1622,-924,-317,141,253,254,250,240,232,221,192,195,193,190,197,202,191,212,149,263,376,304,197,138,88,38,-22,-27,-36,-58,-116,-169,-177,-216,-346,-404,-372,-379,-387,-261,-244,-251,-194,-44,-152,-325,-275,-329,-623,-341,286,458,217,5,-124,-223,-213,-187,-215,-205,-94,355,946,1271,436,-1545,-1897,-1152,-495,29,245,261,247,260,279,294,311,339,308,313,336,356,328,328,379,399,354,328,291,233,190,137,103,52,57,78,17,-32,-59,-95,-142,-183,-216,-221,-195,-144,-115,-113,-111,-116,-136,-160,-194,-196,-95,5,91,39,-83,-164,-177,-180,-257,-320
2018-05-15,14:05:27.404,-299,-299,-298,-245,120,756,1424,855,-1380,-2064,-1363,-690,-311,-15,42,100,188,96,83,197,202,56,2,171,127,95,335,321,288,356,317,180,122,65,63,80,64,59,50,2,-41,-66,-102,-156,-219,-211,-166,-136,-110,-96,-66,-59,-44,-29,-23,6,33,60,82,84,85,61,-4,-59,-124,-191,-201,-154,-113,-121,32,545,1064,1081,-145,-1813,-1752,-1024,-363,138,290,293,321,324,296,274,259,250,265,270,255,265,253,238,240,227,249,279,216,166,183,131,28,1,16,-33,-75,-128,-217,-303,-361,-445,-390,-245,-307,-402,-135,30,-82,-225,-170,-114,-42,-78,-49,-104,-178,-56
2018-05-15,14:05:28.442,26,-32,-167,-294,-330,-297,-275,-275,-199,214,824,1269,406,-1592,-1947,-1214,-534,8,229,234,241,246,235,232,254,263,283,304,332,348,346,356,366,366,359,341,291,206,151,108,71,63,86,65,18,-27,-95,-124,-156,-203,-194,-187,-163,-135,-109,-87,-84,-100,-118,-128,-118,-82,-85,-66,-62,-120,-195,-214,-141,-135,-192,-239,-252,-346,-310,-122,255,807,1505,1061,-1305,-2103,-1431,-718,-142,35,127,142,119,89,61,84,76,41,17,-47,7,349,440,341,282,182,257,273,80,64,177,139,74,88,67,9,-51,-111,-144,-145,-171,-178,-168,-156,-137,-101,-82,-59,-47,-46,-10,41
2018-05-15,14:05:29.479,57,72,132,144,108,49,-10,-75,-141,-169,-158,-143,-137,-109,98,663,1122,980,-526,-1913,-1638,-922,-325,146,299,265,255,277,275,272,277,284,281,263,277,301,308,278,296,297,303,263,177,36,4,120,77,34,5,13,31,-65,-269,-367,-437,-318,-167,-166,-201,-227,-178,-142,-152,-156,-161,-117,-107,-114,-105,-123,-170,-176,-92,-121,-207,-262,-236,-251,-279,-311,-161,308,1039,1470,231,-1738,-1829,-1085,-459,-18,125,144,168,173,188,211,249,243,232,239,266,276,313,311,317,331,339,306,243,180,138,92,74,41,29,20,-41,-97,-157,-191,-194,-223,-232,-196,-133,-107,-90,-78
2018-05-15,14:05:30.516,-69,-94,-82,-64,-49,-10,4,13,65,51,-13,-38,-63,-108,-212,-249,-188,-143,-126,-106,306,951,1592,1253,-1100,-2019,-1268,-561,-120,77,124,159,126,100,144,175,168,139,130,96,90,81,219,313,271,263,251,144,77,42,60,26,-7,10,-8,-95,-180,-205,-251,-312,-333,-330,-338,-335,-322,-300,-277,-279,-287,-285,-253,-188,-155,-148,-123,-97,-151,-208,-240,-273,-336,-393,-407,-390,-366,-363,-285,127,700,930,39,-1782,-2140,-1469,-820,-322,-16,19,2,9,30,35,32,42,25,75,113,129,132,166,205,204,178,164,132,73,17,-26,-41,-62,-66,-113,-58,-87,-101,-123,-189,-208
2018-05-15,14:05:31.553,-214,-250,-253,-158,-65,-46,-72,-126,-141,-67,-26,22,90,114,54,-7,-3,-34,-89,-189,-154,-93,-94,-85,11,160,695,1447,1553,-347,-1924,-1562,-838,-267,97,241,308,309,294,287,276,266,292,352,374,391,417,428,444,454,463,457,422,351,304,256,223,190,188,187,121,65,-7,-55,-86,-108,-128,-121,-102,-85,-72,-50,-40,-54,-32,-6,-21,22,78,77,84,120,104,60,-9,-54,-80,-157,-152,-116,-106,-101,11,482,1119,1537,374,-1865,-2004,-999,-303,163,330,312,279,265,235,225,231,229,219,232,246,263,291,309,355,370,327,262,229,209,116,61,88,165,165,105
2018-05-15,14:05:32.591,92,70,-36,-167,-234,-206,-187,-186,-182,-172,-132,-130,-142,-154,-126,-81,-36,-10,15,43,67,43,-1,-58,-111,-184,-169,-161,-152,-100,-64,205,759,1241,918,-932,-1988,-1473,-781,-255,137,252,251,250,240,244,255,249,259,268,280,295,304,332,331,341,352,343,307,246,157,103,89,52,28,-3,-67,-172,-253,-266,-245,-259,-255,-246,-200,-216,-184,-150,-140,-151,-201,-168,-119,-139,-113,-46,-20,-75,-113,-141,-217,-306,-361,-366,-290,-272,-222,-11,512,1225,1364,-404,-2043,-1710,-1000,-400,-25,54,52,62,94,113,132,150,171,184,198,199,209,236,287,302,298,292,269,251,229,200
2018-05-15,14:05:33.628,159,146,149,127,69,0,-57,-106,-161,-168,-195,-188,-160,-154,-141,-118,-130,-112,-101,-99,-103,-55,-4,16,44,53,-15,-53,-82,-119,-166,-226,-218,-187,-183,-166,-12,431,1049,1564,391,-1782,-1800,-998,-440,-69,-32,-14,49,70,110,218,223,201,175,198,213,196,180,169,190,225,249,235,197,131,87,33,-1,-9,59,1,-83,-180,-278,-142,-161,-284,-261,-225,-212,-193,-234,-256,-205,-195,-213,-217,-152,-71,-54,0,67,32,-17,-59,-89,-123,-153,-134,-99,-50,-53,76,532,1138,1382,51,-1740,-1640,-885,-331,118,274,264,271,251,216,220,247,254,272,287,285,304,314,317,350
2018-05-15,14:05:34.665,385,357,319,257,181,138,115,109,94,55,-3,-75,-134,-199,-258,-299,-323,-352,-306,-296,-248,-244,-229,-117,-35,-95,-112,-86,-71,-64,-48,-18,-91,-146,-175,-221,-267,-309,-299,-284,-254,-249,-32,582,1266,1142,-876,-2092,-1589,-860,-374,-51,44,117,102,94,86,71,46,55,97,155,203,199,254,309,332,324,287,275,235,171,158,176,192,169,123,75,0,-49,-108,-149,-167,-189,-188,-172,-134,-94,-79,-72,-56,-54,-71,-81,-36,-3,20,60,43,-15,-28,-82,-126,-152,-200,-202,-190,-190,-176,23,546,1143,1446,-14,-1958,-1791,-956,-364,4,86,43,61,45,36,124,188,171,151
2018-05-15,14:05:35.702,201,233,223,238,241,232,229,225,180,120,68,26,63,93,78,44,-68,-124,-167,-358,-352,-330,-365,-519,-329,-73,-103,-222,-222,-162,-172,-236,-247,-237,-161,-77,-50,-33,-38,-92,-129,-164,-236,-259,-208,-158,-126,-120,120,659,1197,1249,-397,-1937,-1565,-832,-283,160,318,298,279,290,294,284,282,286,289,294,291,325,394,395,389,364,355,338,263,188,181,191,133,66,49,48,13,-71,-160,-225,-267,-283,-266,-214,-190,-183,-148,-132,-127,-125,-149,-102,-60,-56,17,2,-28,-27,-49,-150,-202,-212,-255,-286,-244,-208,-113,285,889,1387,559,-1553,-1863,-1151,-675,-83,272,201,123,151
2018-05-15,14:05:36.740,232,220,156,159,165,194,183,185,238,277,266,270,305,250,216,212,158,106,90,82,47,15,-32,-103,-159,-179,-210,-233,-253,-234,-206,-159,-154,-121,-69,-57,-84,-94,-54,7,2,0,-3,-18,-67,-124,-143,-188,-216,-217,-189,-168,-141,18,476,1080,1454,127,-1828,-1778,-946,-290,114,178,137,117,131,123,127,136,152,157,118,192,249,241,217,251,335,344,288,221,163,82,31,64,41,-18,-73,-69,-206,-376,-300,-269,-263,-243,-314,-302,-370,-449,-297,-100,-133,-174,-145,-93,-94,-111,-73,-59,-102,-160,-184,-194,-245,-244,-223,-193,-188,-130,232,859,1393,796,-1323,-1877,-1127,-490
2018-05-15,14:05:37.777,5,280,294,284,299,326,339,334,346,360,369,388,400,403,422,414,408,421,384,316,267,224,151,111,109,84,19,-68,-98,-153,-204,-250,-250,-242,-225,-208,-173,-123,-88,-80,-85,-95,-73,-26,-35,-42,-29,-77,-97,-109,-156,-217,-284,-273,-247,-228,-189,-133,165,725,1196,699,-1262,-2135,-1429,-650,-171,74,116,146,159,71,-8,167,95,-5,279,313,261,321,268,146,135,259,395,381,241,146,98,89,96,77,11,-40,-110,-193,-257,-255,-260,-250,-220,-180,-149,-119,-80,-50,-53,-27,-28,-11,14,57,87,95,62,31,6,-39,-109,-193,-186,-160,-141,-116,-44,351,921,1369
2018-05-15,14:05:38.814,598,-1585,-1989,-1210,-412,144,286,252,265,276,265,274,279,265,266,285,293,304,306,320,351,373,379,353,243,198,158,103,129,102,56,6,-55,-165,-209,-247,-316,-417,-463,-297,-181,-256,-300,-221,-144,-128,-195,-254,-230,-218,-42,-92,-183,-54,-85,-218,-340,-227,-93,-157,-229,-277,-269,12,593,1198,891,-1051,-2034,-1465,-788,-242,126,186,179,195,202,222,282,313,317,351,358,363,389,422,433,445,438,428,395,316,239,180,152,110,77,39,-3,-61,-159,-213,-227,-244,-242,-220,-191,-150,-101,-95,-69,-61,-57,-11,25,28,43,47,42,-2,-73,-132,-164,-207,-255,-275,-275,-212
2018-05-15,14:05:39.851,-180,67,717,1214,848,-1010,-2084,-1585,-865,-224,100,135,131,164,202,283,186,-14,18,131,145,181,210,205,328,355,369,337,247,243,251,228,211,143,61,24,-58,-139,-203,-259,-320,-339,-310,-279,-271,-262,-211,-183,-147,-120,-112,-110,-102,-74,-35,16,45,45,1,-46,-88,-117,-192,-212,-207,-177,-141,-110,233,832,1323,793,-1349,-2117,-1382,-630,-40,204,222,225,234,274,272,278,280,302,316,330,358,389,392,397,390,393,344,244,224,167,61,14,52,61,-21,-66,-128,-196,-289,-328,-353,-348,-308,-318,-362,-279,-234,-197,-170,-188,-293,-289,-52,-4,-30,-62,-57,-37,-215,-365
2018-05-15,14:05:40.889,-274,-217,-159,-177,-125,-101,-13,497,1315,1507,-177,-1915,-1737,-1033,-448,-31,89,108,120,124,117,114,154,188,228,247,273,316,387,419,447,465,449,416,357,302,256,209,177,146,90,39,-22,-104,-182,-218,-248,-222,-182,-163,-158,-155,-140,-101,-68,-64,-43,24,42,11,30,66,27,-18,-76,-110,-180,-234,-238,-208,-193,-185,39,628,1215,1031,-861,-2083,-1633,-917,-268,112,164,145,151,98,88,153,173,174,148,86,186,248,232,184,254,321,262,77,97,102,47,69,94,63,35,-53,-172,-247,-302,-349,-380,-419,-391,-351,-309,-265,-229,-193,-157,-156,-124,-61,-36,-32,-6,52
2018-05-15,14:05:41.926,58,18,-52,-71,-102,-138,-119,-104,-53,-42,188,733,1397,1502,-377,-2028,-1649,-822,-219,143,212,213,215,223,216,210,212,242,251,277,332,369,399,431,448,437,381,274,341,349,208,94,53,159,86,-91,-213,-164,-139,-173,-256,-297,-306,-290,-277,-246,-217,-227,-228,-194,-157,-109,-103,-102,-58,-16,-68,-109,-134,-205,-293,-293,-183,-158,-199,-232,-121,323,1015,1410,250,-1725,-1892,-1170,-575,-148,-23,2,87,94,149,170,163,150,148,141,172,160,184,190,211,233,247,228,159,113,80,32,-23,-29,-75,-129,-216,-311,-360,-372,-383,-417,-421,-404,-414,-355,-271,-213,-208,-180,-174,-178
2018-05-15,14:05:42.963,-191,-149,-109,-99,-106,-108,-179,-260,-281,-283,-250,-243,-244,-175,-7,480,1072,1130,-217,-1951,-1780,-990,-393,160,373,237,134,150,266,253,298,381,315,241,194,243,314,310,374,433,436,424,391,202,85,117,138,64,-22,-64,-142,-174,-213,-231,-187,-260,-264,-312,-247,-184,-197,-153,-100,-91,-82,-44,-40,-10,10,35,15,-23,-82,-141,-122,-201,-254,-189,-125,-102,9,490,1105,1461,336,-1736,-1849,-1040,-389,98,251,226,255,272,255,254,253,294,342,373,408,403,424,486,485,475,457,443,426,347,263,209,151,132,78,-51,-227,-232,-123,-167,-240,-285,-313,-272,-206,-226,-224,-262
2018-05-15,14:05:44.000,-248,-118,-61,-37,-29,-43,-47,34,61,-20,-227,-141,-34,-128,-171,-137,-145,-267,-28,540,1146,1348,-18,-2054,-2149,-996,-483,-204,428,354,286,300,167,230,266,184,165,207,229,227,224,284,375,402,376,349,335,281,204,164,166,143,116,66,14,-53,-125,-163,-153,-141,-137,-143,-115,-56,-39,-25,-14,10,37,34,31,60,119,91,32,-34,-43,-103,-178,-197,-179,-147,-111,55,577,1132,1188,-29,-1778,-1794,-1016,-374,87,241,243,245,208,169,181,184,188,224,257,348,343,313,346,413,421,365,322,246,137,21,-97,43,161,16,-133,-113,-137,-219,-350,-407,-408,-662,-792,-147
2018-05-15,14:05:45.037,207,21,-84,-113,-136,-150,-236,-129,-18,-57,-117,-118,-85,-128,-213,-302,-291,-275,-257,-235,-128,296,916,1486,538,-1725,-1924,-1091,-435,32,225,237,230,224,268,289,296,278,276,300,330,318,326,355,388,395,386,375,361,305,246,172,137,110,55,-15,-86,-178,-239,-265,-286,-271,-233,-201,-179,-153,-134,-118,-116,-135,-111,-78,-67,-59,-37,-59,-74,-121,-205,-217,-251,-301,-252,-203,-205,-166,180,754,1171,566,-1322,-1976,-1390,-729,-228,65,105,73,102,117,107,78,23,129,385,489,453,446,393,336,427,428,363,368,359,301,211,149,125,92,46,-36,-134,-195,-204,-214,-220,-192
2018-05-15,14:05:46.075,-175,-114,-61,-41,-27,0,30,51,95,113,131,142,103,69,20,-47,-121,-172,-175,-154,-142,-149,5,532,1118,1207,-90,-1874,-1846,-1089,-420,67,240,240,223,215,214,219,210,219,227,198,197,237,253,228,223,252,267,224,157,86,-8,-29,-73,-89,-86,-129,-228,-372,-409,-422,-469,-488,-420,-427,-393,-338,-306,-334,-463,-367,-229,-145,-95,-119,-115,-139,-218,-338,-505,-345,-198,-199,-301,-353,-183,-122,225,869,1543,798,-1470,-2024,-1296,-604,-122,20,14,22,65,65,71,95,134,170,208,216,226,283,346,348,357,376,362,301,219,146,140,122,62,32,-32,-114,-163,-242,-278,-281
2018-05-15,14:05:47.112,-284,-270,-253,-216,-201,-137,-123,-121,-102,-58,-34,-23,19,47,30,5,-25,-72,-113,-186,-204,-165,-156,-151,-96,300,881,1291,503,-1504,-1890,-1200,-518,-20,228,228,203,201,255,259,230,234,255,269,287,292,284,246,249,430,475,400,346,372,298,242,185,85,22,-25,-114,-200,-239,-255,-288,-315,-282,-257,-223,-189,-160,-164,-147,-72,-15,3,45,65,77,35,1,-47,-125,-162,-180,-166,-125,-113,-111,145,761,1230,873,-897,-2008,-1565,-874,-286,154,226,219,240,210,205,237,245,261,300,292,324,382,369,383,449,454,417,359,274,201,148,103,71,38,-32,-101,-190,-236,-287
2018-05-15,14:05:48.149,-343,-316,-298,-290,-265,-246,-211,-206,-162,-109,-122,-121,-123,-34,7,-18,-75,-74,-101,-144,-214,-378,-441,-170,-71,-87,76,597,1366,1679,-97,-1926,-1691,-937,-339,1,9,10,111,160,136,125,121,125,128,164,205,202,249,309,335,317,321,311,260,218,163,149,161,136,57,-39,-134,-209,-227,-275,-307,-288,-287,-255,-249,-220,-167,-164,-152,-140,-105,-81,-47,2,0,-24,-48,-111,-132,-139,-190,-191,-161,-147,-110,66,541,1096,1320,-91,-1919,-1713,-918,-335,69,158,138,168,224,239,214,209,248,292,304,328,367,317,314,385,404,386,296,200,196,127,87,154,151,-25,-148,-148
2018-05-15,14:05:49.186,-203,-260,-418,-453,-328,-267,-204,-230,-164,-81,-149,-209,-209,-210,-199,-152,-106,-134,-141,-160,-216,-258,-311,-300,-263,-246,-206,-119,279,902,1287,637,-1334,-1952,-1291,-582,-54,227,265,277,270,260,274,288,276,271,303,331,354,367,413,408,410,435,425,369,319,271,226,196,136,90,25,-71,-152,-202,-257,-290,-304,-289,-269,-241,-223,-199,-205,-148,-101,-179,-114,-67,-55,-19,-6,-55,-95,-111,-190,-277,-310,-285,-283,-255,-257,-44,457,1159,1435,-447,-1975,-1561,-886,-259,152,155,134,119,36,-132,-49,245,321,282,278,272,262,245,278,356,360,337,266,206,173,121,110,98,71,9
2018-05-15,14:05:50.224,-61,-125,-173,-230,-264,-253,-228,-210,-167,-124,-131,-125,-112,-93,-56,-12,5,42,62,4,-11,-18,-88,-103,-159,-190,-199,-169,-146,-34,377,961,1228,370,-1509,-1874,-1168,-504,10,271,293,271,263,270,257,220,223,225,231,229,232,233,294,351,370,354,312,263,198,167,140,47,-11,-42,-112,-175,-238,-292,-324,-358,-376,-404,-385,-439,-538,-170,69,-11,-74,-37,18,1,-130,-223,-246,-144,55,4,-155,-239,-225,-221,-250,-83,437,1025,1053,-493,-2018,-1734,-1016,-437,52,198,183,210,234,264,260,272,311,342,364,372,399,432,476,465,458,440,388,318,238,190,173,138,82,15
2018-05-15,14:05:51.261,-90,-161,-180,-203,-252,-260,-219,-192,-172,-159,-122,-80,-78,-77,-45,-7,4,24,28,-11,-43,-90,-139,-177,-255,-276,-247,-252,-247,-52,487,1166,1365,-143,-1922,-1826,-1063,-351,-2,71,86,73,89,105,124,109,98,44,25,144,241,378,448,417,380,372,357,306,248,166,111,162,117,-34,-107,-125,-203,-280,-352,-375,-337,-315,-301,-270,-211,-186,-170,-156,-129,-80,-58,-35,1,13,-24,-44,-76,-113,-162,-225,-227,-231,-230,-182,116,694,1282,1031,-916,-2092,-1561,-780,-157,138,176,176,216,236,243,242,250,255,276,300,320,347,393,443,460,441,400,333,261,180,132,106,89,43
2018-05-15,14:05:52.298,-55,-141,-238,-303,-337,-342,-360,-352,-339,-301,-284,-263,-243,-235,-236,-243,-215,-176,-183,-153,-125,-190,-290,-195,-132,-165,-222,-297,-347,-240,-212,-117,445,1358,1848,145,-1787,-1629,-917,-383,-74,-9,26,77,82,80,99,105,137,170,236,273,300,347,388,417,420,404,403,353,301,280,268,248,221,163,83,-32,-126,-180,-212,-231,-253,-221,-191,-186,-182,-182,-166,-153,-147,-112,-49,-1,-3,-19,-11,-47,-93,-148,-234,-241,-193,-169,-146,-84,255,778,1404,1081,-1254,-2033,-1235,-580,-79,128,136,148,134,121,130,181,203,204,219,242,293,302,287,307,330,309,261,215,33,7,246,247
2018-05-15,14:05:53.335,143,28,-219,-306,-277,-309,-146,-17,-76,-142,-186,-224,-176,-217,-249,-164,-104,-90,-129,-86,-42,-39,-65,-100,-123,-179,-244,-242,-218,-189,-177,-147,133,699,1431,1219,-942,-1946,-1309,-611,-100,189,213,208,197,200,208,233,247,274,290,296,325,342,363,371,400,428,440,398,330,270,226,186,131,87,27,-50,-128,-218,-273,-288,-288,-277,-277,-245,-212,-195,-195,-182,-122,-87,-45,-10,16,-31,-61,-124,-178,-229,-299,-263,-247,-274,-223,-53,406,955,1210,-53,-1823,-1772,-1060,-493,-106,90,164,85,114,-8,207,477,422,278,248,247,223,242,247,244,248,249,232,199,137,86,46,27
2018-05-15,14:05:54.373,-19,-33,-68,-151,-228,-251,-288,-317,-307,-274,-230,-210,-175,-149,-124,-104,-90,-53,-1,-14,-62,-107,-186,-247,-285,-338,-341,-353,-328,-306,-141,373,933,958,-357,-2059,-2029,-1257,-547,-31,136,117,112,116,108,111,105,107,107,118,132,162,188,228,234,271,266,212,152,106,54,-15,-86,-121,-96,-153,-267,-341,-393,-436,-430,-451,-426,-338,-308,-322,-336,-358,-271,-89,33,41,-21,-97,-163,-158,-137,-268,-288,-251,-139,-90,-157,-180,62,644,1550,1534,-858,-2110,-1436,-696,-134,138,150,164,187,216,237,266,286,338,375,411,440,483,519,548,561,577,560,516,472,329,308,248,208,183
2018-05-15,14:05:55.410,110,12,-70,-138,-182,-211,-230,-231,-181,-132,-92,-75,-56,-17,30,42,59,90,55,28,-7,-39,-86,-119,-154,-153,-140,-130,-65,286,885,1271,547,-1338,-1895,-1270,-620,-128,244,312,301,278,271,249,239,261,270,257,259,215,278,354,279,329,419,323,283,281,193,117,105,53,-242,-130,24,-169,-281,3,2,-144,-221,-219,-193,-188,-171,-101,-44,-5,22,55,112,114,64,46,7,-57,-79,-112,-105,-86,-73,-32,257,837,1361,1189,-635,-2004,-1549,-787,-174,190,245,259,264,240,240,244,257,268,263,277,294,338,404,445,456,456,429,367,276,214,182,138,113,80,22,-55
2018-05-15,14:05:56.447,-173,-230,-287,-322,-341,-314,-331,-307,-216,-201,-213,-159,-117,-87,-109,-143,-76,-15,-54,-136,-133,-186,-236,-296,-301,-272,-300,-346,-193,267,924,1439,20,-2247,-2107,-900,-121,182,188,164,112,106,153,161,133,123,174,215,244,281,320,366,391,385,370,320,261,205,176,165,184,148,93,35,-51,-135,-193,-220,-203,-203,-214,-178,-165,-120,-93,-100,-74,-31,-19,21,66,-2,-49,-59,-77,-166,-262,-263,-247,-238,-189,-16,469,999,914,-434,-1923,-1782,-1088,-480,41,241,237,259,240,212,194,196,206,206,200,208,258,277,338,371,324,294,271,229,146,94,50,19,-6,-62,-155,-180
2018-05-15,14:05:57.484,-185,-379,-441,-366,-331,-424,-355,-243,-183,-167,-242,-297,-238,-125,-60,-71,-162,-33,91,29,-96,-205,-280,-283,-272,-253,-208,131,759,1315,850,-1270,-2132,-1488,-718,-112,178,217,227,251,262,296,298,300,323,358,376,409,431,438,467,466,461,422,352,275,251,225,209,190,129,27,-83,-167,-185,-230,-275,-278,-239,-192,-181,-170,-153,-151,-160,-157,-131,-105,-82,-58,-23,-57,-98,-140,-195,-334,-346,-226,-183,-193,-186,-77,345,926,1331,262,-1868,-2011,-1165,-527,-50,131,115,112,122,123,121,127,144,150,138,154,170,213,281,289,225,210,186,122,104,89,46,16,-4,-79,-136,-168
2018-05-15,14:05:58.522,-226,-241,-228,-217,-205,-162,-122,-105,-102,-83,-64,-26,23,76,102,147,184,128,110,109,64,23,-63,-93,-58,-37,-39,70,502,1074,1017,-223,-1708,-1738,-1142,-568,-62,223,221,211,220,241,241,250,246,251,258,263,283,312,329,388,395,364,321,283,234,208,175,166,121,-10,-4,33,-68,-185,-222,-223,-212,-186,-179,-134,-139,-133,-78,-87,-116,-69,-50,-47,-74,-38,-59,-116,-216,-419,-365,-174,-137,-211,-236,-208,-104,346,1109,1409,-169,-1987,-1885,-1170,-537,-85,59,92,121,129,159,162,146,139,165,216,242,271,307,355,405,425,391,368,332,292,273,274,255,246,164,50
2018-05-15,14:05:59.559,-57,-107,-150,-223,-241,-214,-209,-207,-191,-162,-119,-100,-111,-125,-92,-36,-37,-35,15,18,-4,-44,-78,-129,-157,-157,-139,-132,-105,-39,365,1025,1555,814,-1366,-1971,-1247,-569,-54,202,261,275,266,264,264,272,278,287,281,308,331,340,374,391,372,375,353,236,173,121,53,37,49,-25,-110,-230,-299,-321,-377,-402,-408,-412,-361,-325,-324,-292,-257,-231,-163,-69,-21,3,40,74,42,12,-21,-52,-62,-84,-89,-70,-43,1,222,743,1224,965,-580,-1821,-1490,-820,-280,170,349,356,328,291,284,281,258,261,261,267,291,303,321,337,354,348,317,270,252,209,166,130,113,39
2018-05-15,14:06:00.596,-70,-125,-198,-240,-252,-295,-331,-338,-321,-308,-274,-246,-227,-208,-206,-228,-220,-139,-118,-108,-87,-115,-154,-199,-261,-276,-310,-406,-370,-368,-327,-323,-100,518,1225,1059,-999,-2220,-1673,-923,-458,-237,-152,-97,-74,-33,-54,87,195,176,138,123,136,163,202,245,292,342,317,279,232,190,171,184,195,138,58,-25,-94,-140,-173,-201,-183,-170,-152,-133,-89,-86,-68,-60,-57,-70,-64,-50,-43,-10,1,-8,-23,-36,-71,-117,-171,-197,-198,-212,-187,-128,173,736,1146,822,-992,-2103,-1567,-795,-147,195,251,249,264,257,254,256,260,259,265,275,269,311,317,287,306,335,318,260,187,119
2018-05-15,14:06:01.633,64,-32,-90,2,42,-92,-232,-314,-343,-352,-367,-363,-329,-292,-309,-450,-397,-343,-204,-8,8,-75,-115,-203,-457,-222,86,139,-2,-172,-262,-271,-238,-255,-221,124,714,1065,434,-1303,-1923,-1379,-747,-190,210,285,298,317,332,361,366,374,377,416,454,450,486,500,507,522,486,455,390,330,296,281,249,201,128,12,-73,-124,-166,-203,-226,-207,-189,-156,-142,-140,-106,-73,-81,-99,-88,-56,-40,-49,-38,-12,-31,-71,-111,-160,-224,-326,-358,-293,-242,-207,-120,364,1018,1396,238,-1853,-2027,-1227,-540,-100,40,50,60,53,94,128,102,117,157,10,103,261,360,416,345,344,345,233
2018-05-15,14:06:02.671,223,255,201,166,112,137,95,-9,-113,-184,-226,-268,-278,-268,-246,-223,-176,-131,-117,-107,-86,-91,-94,-50,-20,1,41,87,74,43,-24,-55,-109,-171,-158,-139,-138,-142,25,545,1096,1116,-286,-1906,-1746,-1013,-423,63,256,285,275,281,279,278,284,307,318,338,345,368,407,413,426,426,395,339,261,186,119,63,27,-37,-93,-183,-214,-223,-263,-321,-338,-282,-269,-255,-236,-243,-239,-207,-259,-244,-121,-10,-1,-9,0,-58,-101,-164,-203,-258,-319,-370,-422,-442,-221,71,540,1264,1301,-426,-1917,-1698,-1034,-445,-2,117,139,149,162,190,194,205,230,243,283,324,375,415,443,468
2018-05-15,14:06:03.708,462,437,397,361,326,264,249,205,152,82,-20,-117,-169,-223,-260,-279,-292,-265,-219,-187,-154,-143,-148,-133,-110,-112,-42,-34,-13,16,9,-22,-51,-91,-137,-202,-228,-204,-187,-159,-96,279,890,1435,848,-1420,-2134,-1358,-615,-81,158,191,183,171,147,148,149,179,201,203,260,272,250,297,325,300,301,272,199,149,1,-82,46,20,-89,-34,-42,-117,-243,-298,-295,-293,-360,-310,-258,-248,-251,-249,-215,-198,-181,-132,-103,-91,-66,-38,-41,-45,-77,-110,-141,-180,-167,-132,-119,-100,34,534,1153,1392,113,-1741,-1719,-965,-366,100,277,296,287,280,268,262,303,325,323,334,359,362
2018-05-15,14:06:04.745,366,411,441,426,443,389,318,277,201,155,132,83,11,-82,-159,-231,-271,-285,-295,-296,-289,-275,-236,-214,-216,-175,-171,-118,-126,-153,-83,-18,5,-2,-98,-180,-187,-215,-272,-302,-294,-278,-252,-229,35,663,1284,806,-1219,-2019,-1408,-774,-294,25,87,42,61,119,81,61,145,231,258,297,308,351,386,402,411,414,378,320,248,197,161,131,98,45,-13,-82,-126,-182,-222,-202,-191,-206,-181,-125,-74,-59,-36,-42,-9,-21,-53,-21,-11,3,-16,-11,-46,-14,-44,-105,-144,-217,-219,-211,-220,-169,28,524,1098,1297,-22,-1935,-1910,-1056,-332,141,226,202,201,195,213,210,215,212
2018-05-15,14:06:18.020,171,85,-13,-111,-193,-268,-264,-240,-244,-217,-177,-158,-142,-126,-136,-140,-108,-114,-113,-79,-24,23,-16,-43,-99,-144,-165,-240,-237,-198,-177,-151,24,518,1024,1063,-285,-1913,-1790,-1025,-401,48,211,204,195,186,173,181,206,248,231,228,294,349,362,408,422,399,404,357,240,211,190,133,68,-4,-83,-190,-243,-299,-376,-453,-311,-221,-246,-246,-265,-256,-236,-258,-266,-239,-145,-160,-136,-23,-25,-76,-134,-165,-192,-258,-236,-205,-186,-157,25,546,1171,1178,-502,-1939,-1573,-854,-266,148,264,273,282,289,288,263,283,302,319,365,394,403,431,469,486,482,455,385,313,274,210,154
2018-05-15,14:06:18.845,137,110,28,-80,-164,-210,-218,-251,-233,-216,-215,-208,-164,-121,-101,-111,-131,-148,-111,-59,-34,-34,3,-16,-60,-126,-123,-168,-246,-207,-179,-204,-209,-114,346,1093,1603,348,-1743,-1842,-1088,-520,-86,45,54,42,7,54,72,50,78,86,26,99,196,242,276,300,318,303,292,259,215,157,157,183,141,75,8,-91,-193,-244,-247,-225,-211,-199,-189,-196,-143,-89,-87,-93,-34,2,15,38,85,66,36,-10,-53,-114,-188,-170,-173,-190,-150,7,459,1004,1036,-300,-1946,-1804,-1083,-478,43,244,237,223,233,261,261,230,288,315,334,353,351,378,424,415,403,404,341,290,229,167
2018-05-15,14:06:19.882,115,43,1,-17,-85,-183,-220,-247,-305,-335,-281,-228,-223,-240,-190,-95,-115,-133,-63,-88,-128,-39,-36,-87,-140,-187,-222,-299,-352,-318,-278,-300,-276,101,831,1506,644,-1496,-1974,-1285,-646,-166,58,77,110,126,145,159,143,157,206,245,279,317,340,396,419,415,416,389,318,233,196,211,174,111,12,-61,-89,-176,-244,-263,-303,-300,-251,-255,-230,-152,-153,-162,-175,-100,-76,-61,-12,19,-30,-86,-99,-121,-172,-247,-250,-240,-223,-165,-31,368,1049,1707,360,-1857,-1723,-927,-392,-32,71,88,70,75,85,86,116,148,178,192,165,227,295,363,450,456,437,378,281,193,157,163
2018-05-15,14:06:20.920,110,10,-44,-151,-251,-310,-320,-347,-318,-296,-280,-275,-254,-263,-240,-158,-135,-133,-96,-36,-37,-75,-120,-181,-204,-281,-325,-317,-239,-182,-168,149,738,1128,456,-1421,-1989,-1372,-748,-239,124,178,167,202,205,174,169,201,190,223,272,287,311,324,346,389,357,296,237,195,193,168,107,31,-26,-93,-173,-243,-285,-292,-308,-301,-276,-224,-184,-154,-135,-116,-42,-22,-9,-27,-43,-39,-71,-92,-81,-146,-287,-247,-194,-192,-193,-50,406,945,1231,-280,-1836,-1589,-904,-326,37,90,31,55,145,147,66,27,186,164,178,297,292,302,368,424,445,392,362,333,301,230,217,176,62,-32
2018-05-15,14:06:21.957,-91,-147,-158,-176,-199,-185,-163,-134,-76,10,57,11,-8,27,68,86,130,143,80,23,30,5,-63,-152,-296,-273,-209,-95,331,970,1541,1050,-1353,-2047,-1212,-450,156,488,725,918,645,188,57,169,233,239,274,387,597,734,581,484,375,399,419,374,302,185,100,94,11,-102,-206,-320,-476,-509,-506,-473,-452,-497,-439,-336,-282,-399,-389,-35,-62,-433,-624,-91,-8,168,379,62,27,-233,-500,-347,-231,-131,234,714,457,-1388,-2421,-1863,-1100,-498,-11,130,79,37,17,37,90,63,102,136,164,206,220,229,256,270,241,187,97,54,-26,-153,-204,-273,-368,-477,-593,-671,-642,-625
2018-05-15,14:06:22.994,-640,-682,-742,-737,-705,-661,-561,-566,-690,-554,-342,-401,-528,-399,-280,-299,-388,-448,-450,-579,-718,-305,50,167,870,748,-923,-1647,-1408,-930,-112,740,934,606,222,485,780,234,-45,176,275,270,358,396,455,614,714,737,730,647,576,539,463,425,388,263,201,156,45,6,-12,-35,13,-21,0,32,104,152,143,149,149,166,32,-197,-295,-337,-346,-285,-179,-108,-61,-14,-8,339,928,1673,794,-1417,-1838,-1223,-688,-252,-42,69,-46,73,242,53,-397,-104,164,67,660,882,410,315,204,-486,-17,1062,775,435,1013,1118,637,354,547,570,28,-344,-317,-379,-397,-372,-237,-49,-33,-2
2018-05-15,14:06:24.031,44,79,135,168,179,187,157,129,126,27,-107,-124,-87,-81,-8,346,851,1137,315,-1564,-1967,-1297,-761,-412,-80,86,213,144,140,164,184,225,170,214,355,353,262,227,265,233,63,107,214,270,164,99,14,-324,-757,-268,-409,-863,-659,-684,-908,-564,126,755,307,404,712,554,677,488,127,205,214,71,-5,-72,-216,-211,-123,-77,-41,288,900,1338,1039,-821,-1889,-1380,-672,-57,328,403,371,405,377,349,342,316,335,366,332,338,352,374,357,261,61,-122,-227,-261,-134,67,126,101,64,-122,-312,-192,-215,-505,-548,-580,-647,-572,-343,-39,-33,-85,-46,-92,-102,-120,-227,-216
2018-05-15,14:06:25.069,-494,-632,-416,-930,-1031,-606,268,867,885,1075,1591,1130,-814,-1632,-1494,-1022,-486,-217,-166,-207,-219,-40,32,37,85,120,198,263,259,319,355,404,457,452,394,321,224,216,183,86,44,-13,-151,-225,-333,-362,-420,-584,-763,-825,-739,-571,-435,-313,-72,106,109,-65,-188,-109,12,-146,-400,-463,-529,-427,-318,-257,136,910,1274,-28,-1715,-1727,-1104,-852,-846,-244,294,-262,-413,435,210,-705,-417,1267,1716,906,527,517,508,349,455,459,442,306,130,67,56,113,73,-40,-91,-95,-61,-146,-168,-102,-79,-8,18,38,120,163,217,276,281,229,202,125,61,3,-208,-396,-395,-482,-556,-349
2018-05-15,14:06:26.106,200,1005,1531,590,-1646,-2098,-1332,-490,-171,-62,-7,68,-49,-151,-149,-39,32,-24,121,-77,-609,203,829,20,-290,-384,-57,313,1168,1450,1068,639,451,692,604,173,-219,-312,-251,-309,-313,-262,-269,-219,-92,6,78,139,207,191,157,110,100,9,-50,-60,-10,-10,51,382,965,1148,524,-1251,-2019,-1391,-712,-210,125,166,167,175,85,190,293,318,291,232,269,395,423,262,211,179,224,379,277,162,123,57,-35,-86,-453,-645,-51,-569,-1337,-627,-492,-1511,32,1291,932,838,680,470,241,418,433,515,127,-357,-337,-252,-303,-266,-174,-180,140,799,1236,1031,-632,-1935,-1486,-796,-121,369
2018-05-15,14:06:27.143,429,453,481,490,516,493,432,440,419,371,231,231,163,6,-30,-12,79,77,96,150,102,-52,-60,221,27,-347,-482,-603,-375,-488,-650,-538,-343,-258,-169,-126,-182,-423,-780,-1103,-934,-272,-153,21,751,511,-60,-107,33,275,393,968,1525,577,-1793,-2232,-1640,-1001,-537,-194,-12,-19,35,59,75,178,249,228,248,301,331,306,322,353,343,343,319,249,212,79,16,14,-36,-183,-300,-482,-576,-595,-571,-475,-356,-251,-208,-212,-158,-62,38,-3,-195,-293,-310,-254,-255,-372,-370,-474,-445,-245,-174,-156,256,857,-837,-2118,-1309,-592,-370,-6,645,902,896,604,105,415,630,379,157,213
2018-05-15,14:06:28.180,245,232,187,251,471,480,414,456,450,380,404,371,272,193,76,-3,-67,-89,-117,-116,-95,-47,7,4,-23,10,-50,-178,-331,-464,-535,-566,-502,-415,-357,-267,-234,-249,-246,-16,826,1390,1377,-114,-1878,-1613,-786,-592,-356,294,412,160,65,282,94,-483,-370,-415,-699,-38,674,1026,1513,1021,732,742,785,799,568,351,161,-11,-41,-101,-241,-334,-274,-206,-289,-234,-133,-39,26,86,152,147,215,153,97,117,56,-101,-142,-193,-235,-204,-137,-57,340,809,637,-650,-2253,-2170,-1443,-715,-119,154,151,100,27,41,105,236,236,71,96,117,163,268,0,30,353,0,148,662,431,-359
2018-05-15,14:06:29.218,-228,301,-153,-482,-627,-587,370,610,216,223,396,265,87,231,182,-55,16,77,-135,-354,-296,-313,-381,-347,-374,-301,-157,-102,223,817,1065,523,-1386,-2212,-1554,-741,-142,235,384,382,320,310,300,296,237,166,79,-33,-99,-115,-28,129,349,489,438,243,189,214,500,414,59,-83,-241,-288,-214,-291,-492,-667,-383,-143,-298,-75,-13,-191,-69,-366,-905,186,429,-241,-238,351,613,515,265,-108,243,902,1427,1179,-759,-2245,-1926,-1311,-721,-76,131,92,166,249,343,342,347,411,421,452,447,498,499,529,601,630,593,524,456,487,343,246,106,0,-135,-389,-576,-566,-521,-420,-334,-247
2018-05-15,14:06:30.255,-95,-142,-103,81,235,217,-2,-155,-295,-415,-443,-281,-339,-618,-397,-145,1,356,800,469,-1458,-2057,-893,-221,224,515,-127,59,280,476,1147,735,359,491,534,259,56,187,333,289,255,324,371,324,205,251,309,253,163,126,39,-1,-116,-85,-119,-172,-148,-119,-51,19,176,255,256,108,61,-79,-360,-637,-667,-709,-786,-700,-565,-329,271,1052,1430,-103,-1856,-1424,-893,-619,-190,-4,-77,-116,-54,-173,-262,-190,35,351,282,-113,-421,-279,-849,-372,370,170,1210,995,745,627,668,506,809,829,428,162,0,-313,-423,-285,-235,-159,44,73,97,221,288,238,172,172,158,46,31,84
2018-05-15,14:06:31.292,89,120,421,1028,1160,641,-977,-1884,-1357,-702,-250,139,122,-50,-64,-59,-69,-25,30,114,196,131,92,161,361,630,424,202,193,118,44,197,241,129,-51,-172,-263,-329,-492,-654,-1065,-939,-717,-1377,-1059,265,-228,-41,898,595,166,136,-2,-210,-313,-351,-413,-491,-524,-211,427,1024,558,-1503,-2311,-1664,-877,-282,112,180,186,217,124,199,199,208,230,267,281,359,456,460,514,476,361,160,-78,-332,-453,-478,-468,-432,-404,-389,-255,-206,-420,-460,-79,30,-133,-392,-451,-106,149,147,-28,-27,-70,-180,-288,-540,-958,-862,-615,-591,-303,1034,2172,489,-2125,-1912,-395,-193,277,807,348,98
2018-05-15,14:06:32.329,420,228,78,78,100,93,183,320,324,430,521,539,562,540,460,457,475,394,356,362,280,174,111,56,-69,-62,-54,-38,-93,-129,-321,-435,-363,-314,-410,-384,-276,-159,-142,-279,-338,-244,77,182,287,912,1253,310,-1451,-1599,-1187,-604,-22,116,25,0,-107,-569,-334,-210,135,52,-189,-47,264,857,1191,1005,705,601,779,659,354,314,291,245,127,-39,-86,-64,-79,-154,-176,-170,-88,43,149,182,242,254,181,153,68,64,40,-66,-59,24,-4,55,308,828,1378,1004,-1358,-2725,-2251,-1581,-1037,-583,-371,-240,-65,35,96,175,490,636,276,346,535,505,396,369,290,-62,-304,155
2018-05-15,14:06:33.367,340,183,154,-273,-774,-122,-352,-721,-212,140,-88,101,624,521,463,524,393,261,8,-76,-185,-304,-349,-379,-266,-258,-196,-92,461,1186,1372,284,-1508,-1754,-1082,-452,112,465,458,437,503,501,463,462,488,520,420,264,159,77,-51,-113,-135,-70,43,120,237,202,145,102,206,443,263,-56,-300,-366,-296,-323,-254,-89,-77,71,185,83,-21,-138,-748,-833,-354,-488,-558,144,482,223,-86,590,1533,376,-1577,-1354,-712,-380,-352,-343,-258,-247,-233,-268,-170,-48,-71,9,193,221,262,331,380,343,357,324,370,389,321,263,491,457,55,43,-160,-336,-384,-531,-612,-570,-417,-587,-706,-780
2018-05-15,14:06:34.404,-896,-804,-639,-315,-199,-316,10,-1531,-905,270,293,407,1042,1715,1079,-1012,-1876,-1331,-862,-285,152,190,186,145,30,138,280,147,109,299,408,391,252,110,290,583,260,-115,149,175,34,153,180,65,63,66,-49,-211,-198,-179,-212,-88,44,79,99,148,175,159,66,3,-28,-47,-97,-158,-118,-35,247,768,1154,640,-1154,-2173,-1625,-818,-246,229,334,210,210,209,170,203,173,229,305,109,84,85,29,51,-17,125,144,46,-158,253,398,497,601,212,-456,-574,-456,-271,-458,-237,356,831,929,1016,653,226,48,0,-188,-343,-527,-520,-394,-355,-329,-131,419,1002,1149,-407,-2199,-1917
2018-05-15,14:06:35.441,-1009,-269,163,200,239,319,370,400,395,433,360,362,422,354,285,124,-29,-101,-140,-127,-75,6,148,140,-1,-30,28,313,65,-279,-373,-348,-395,-712,-830,-371,-228,23,182,-54,-35,-139,-452,-951,-1577,-1792,-534,21,63,1154,1878,1263,-697,-1622,-1420,-966,-514,-214,-390,-496,-391,-295,-189,-26,-46,-4,158,271,287,322,360,379,367,317,338,298,263,307,297,263,133,14,-70,-128,-185,-254,-447,-484,-429,-336,-268,-161,-4,135,105,22,-63,-64,24,-70,-297,-299,-187,9,802,1589,145,-1681,-1720,-980,-267,20,-61,-648,-1191,-620,138,314,2,569,1576,1208,741,725,881,968,733,652
2018-05-15,14:06:36.478,138,-169,9,109,193,240,260,139,7,-56,-6,60,-10,59,128,125,127,234,234,113,67,0,-173,-170,-274,-362,-295,-299,-288,116,705,922,-158,-2109,-2439,-1686,-864,-211,176,177,90,128,337,517,357,127,148,263,303,238,238,283,433,353,274,187,141,-124,243,535,167,-209,249,439,-422,-150,865,439,35,680,453,214,638,440,-20,-197,-182,-341,-521,-539,-438,-292,-104,427,913,696,-728,-1955,-1703,-1007,-361,199,328,297,330,376,375,421,468,351,285,315,385,349,295,241,152,45,-39,-48,38,206,274,205,111,-2,-128,-76,-40,-246,-363,-289,-557,-388,-4,-24,170,174
2018-05-15,14:06:37.516,-242,-395,-262,-907,-941,-837,-448,218,-128,-11,1726,2073,3,-1614,-1824,-1068,-68,369,304,188,-43,-131,-116,-108,-126,-178,-109,62,130,176,301,388,405,360,342,352,352,323,364,312,173,101,64,0,-58,-50,-74,13,55,4,-97,-140,-180,-324,-399,-419,-389,-353,-364,-381,-438,-337,302,1210,1485,194,-1834,-2048,-1516,-833,-164,-28,8,-190,-206,126,35,-293,-62,-77,-407,-417,-259,340,1247,1279,638,765,915,478,316,403,640,280,-115,-142,-167,-287,-358,-290,-136,-99,-75,116,160,134,108,112,8,-45,-139,-146,-138,-97,191,822,1147,672,-1052,-2182,-1690,-892,-352,-8,39,-96,-174,-198
2018-05-15,14:06:38.553,-165,-12,104,198,185,166,133,227,588,625,374,177,127,-75,135,322,248,96,-105,-230,50,126,-254,-412,-387,-691,-296,553,-125,-509,436,366,202,658,320,77,-28,-202,-175,-38,285,865,1168,-638,-2555,-2356,-1355,-675,-197,56,167,186,283,321,307,325,377,351,363,483,535,623,649,703,657,552,450,398,360,200,-31,-271,-440,-519,-547,-470,-244,-203,-275,-191,-84,173,490,305,-80,-261,-404,-475,-240,-213,-350,-397,-261,66,508,431,-755,-1877,-1960,-882,-299,-35,330,-172,248,876,1076,837,301,286,504,196,21,91,109,82,122,146,217,241,259,312,364,420,343,194,69,64
2018-05-15,14:06:39.590,66,13,116,134,174,227,300,271,241,189,67,-17,-186,-349,-533,-662,-624,-104,428,263,-995,-2249,-2063,-1297,-705,-205,243,452,279,83,32,-159,-7,80,190,306,318,234,239,318,314,185,-67,-310,-140,478,183,-344,886,874,151,106,565,738,305,136,350,248,-106,-169,-198,-262,-343,-441,-615,-621,-553,-557,-476,-174,445,879,713,-1023,-2439,-1978,-1148,-375,7,97,161,184,262,244,183,204,121,-55,-118,-216,-360,-521,-593,-545,-557,-440,-346,-122,77,119,-29,-114,-143,1,-43,-290,-519,-484,-417,-426,-331,-269,-262,-315,-309,-357,-771,-1003,-435,-796,-1247,-428,-117,-320,212,1687,-8,-1297
2018-05-15,14:06:40.627,-967,-483,-28,34,21,144,11,-163,-233,-171,-92,-47,54,191,261,329,453,569,592,568,532,456,428,480,454,349,220,171,75,3,18,-19,-50,1,106,143,112,9,-15,-9,-48,-96,-179,-258,-189,-133,-109,285,1115,1452,175,-1935,-2147,-1258,-506,56,231,207,75,103,-63,207,582,208,259,138,272,405,612,683,319,406,978,1578,1164,535,405,485,578,546,144,-80,-66,-40,-56,-148,-15,194,211,194,209,217,142,95,-9,-90,-65,-48,-66,236,739,1164,1023,-765,-2241,-1699,-902,-285,217,245,101,-67,-202,-294,-240,-115,47,216,373,512,529,483,498,688,590,245,190,129
2018-05-15,14:06:41.664,281,457,334,147,27,-44,-61,-150,-512,-774,-318,-468,-673,331,773,524,400,269,466,416,184,381,120,-179,402,1023,956,-173,-2078,-2339,-1639,-930,-265,45,118,199,280,278,333,370,377,369,461,492,462,537,563,647,833,811,759,622,503,419,228,46,-205,-317,-441,-487,-466,-404,-284,-140,-69,-112,-93,-80,-238,-151,-166,-546,-683,-609,-496,-328,-139,553,1208,404,-1679,-2166,-1751,-1166,-470,-83,-150,-634,-672,-259,-372,-221,1251,1732,945,419,400,639,614,404,201,165,-59,17,168,146,97,30,-29,-77,-49,10,16,-2,49,108,169,212,145,106,120,17,25,-91,-122,-73,-86,-121
2018-05-15,14:06:42.702,125,680,938,129,-2256,-3257,-2502,-1635,-814,-202,101,262,312,210,11,115,399,389,365,383,284,285,481,350,80,-126,118,208,545,658,620,144,-468,-738,-902,-550,515,1051,1052,726,398,123,252,725,534,133,-299,-577,-511,-522,-604,-584,-239,486,866,386,-1420,-2209,-1634,-948,-295,161,267,262,264,334,347,322,406,554,572,603,565,595,583,459,294,23,-216,-338,-305,-229,-131,26,145,151,-32,-190,-163,143,501,312,107,-22,-298,-329,-209,-40,-17,-309,-498,-459,-439,-606,-407,313,1314,177,-2295,-2335,-843,-127,-238,65,504,741,783,749,280,-15,99,216,187,142,176,113,97,78
2018-05-15,14:06:43.739,186,218,224,280,354,355,339,220,92,-8,-26,-77,-86,-59,46,110,246,130,49,7,-141,-235,-452,-780,-899,-987,-1030,-772,-53,730,678,-1039,-2421,-2047,-1235,-311,347,172,-46,-70,-62,-199,-392,-220,120,-39,-69,636,737,530,113,-103,-589,-182,273,-59,539,820,933,1169,887,450,143,-58,-52,2,100,-126,-252,-229,-273,-377,-458,-392,-478,-566,-460,-347,-188,279,826,768,-506,-2057,-1981,-1188,-447,23,248,337,418,467,444,274,374,357,206,11,-126,-161,-132,-122,32,205,328,380,370,243,160,298,401,121,-214,-570,-846,-364,171,210,6,6,6,-267,-437,-466,-1082,-700,491,340
2018-05-15,14:06:44.776,-625,-422,38,43,856,2234,920,-1368,-1256,-315,-119,-56,35,121,56,-173,-195,-91,-28,25,133,225,322,488,552,555,511,474,419,419,484,356,415,405,351,255,127,155,185,132,39,-139,-333,-506,-712,-815,-802,-899,-832,-553,-357,-272,-232,-314,-262,566,1742,1775,-441,-2212,-1892,-1125,-451,6,61,18,32,63,88,47,-261,-427,-108,306,205,753,1676,1403,453,-85,144,909,1160,1114,812,324,20,-122,-112,-144,-244,-295,-328,-132,77,-19,-35,-39,-34,-43,-202,-240,-164,-118,-104,230,822,1006,403,-1168,-2006,-1467,-736,-138,238,292,189,51,-35,-24,-76,-128,-72,111,282,392,368,280
2018-05-15,14:06:45.813,277,406,629,498,203,108,136,101,-39,-180,-361,-578,-880,-283,341,189,-15,58,96,-440,-791,-691,-1077,-485,378,22,0,405,697,654,882,1193,-480,-1833,-1696,-1177,-870,-486,-253,-252,-159,-63,-40,68,199,344,420,391,493,577,605,550,598,549,485,538,643,699,677,580,458,336,54,-302,-607,-806,-910,-954,-915,-794,-638,-365,-132,-198,-312,-486,-300,89,-141,-483,-307,259,987,1049,-1050,-2132,-1668,-928,-390,-163,-122,-12,46,67,-168,-289,-17,-265,-420,666,1399,320,-179,120,985,1180,544,548,634,201,-124,-257,-477,-491,-402,-299,-261,-190,-102,53,152,123,87,65,-32,-67,-118,-164
2018-05-15,14:06:46.851,-159,-205,-50,371,986,1091,242,-1579,-2161,-1593,-1002,-497,-218,-219,-224,-73,49,154,337,415,379,303,248,317,500,405,218,276,337,240,164,23,-7,130,238,175,-1,-277,-1035,-1039,-221,457,821,368,-39,313,-411,-141,615,806,413,69,32,85,165,576,1238,1062,-1165,-2457,-1956,-1154,-455,-43,84,183,282,309,324,373,393,412,430,512,542,647,674,679,752,674,647,673,713,500,84,-235,-556,-736,-820,-764,-490,-229,-113,11,44,-50,-1,363,282,-200,-487,-402,-308,-273,-317,-158,308,1131,1226,-530,-2300,-2007,-1234,-1158,-771,448,447,-295,-296,129,583,898,1206,803,789,933,570,388
2018-05-15,14:06:47.888,316,273,132,25,-6,94,156,126,92,0,-20,-14,-22,34,85,113,181,230,228,176,118,86,69,41,-43,-101,-121,-69,261,840,915,-210,-2151,-2458,-1681,-910,-293,81,184,191,247,215,165,215,456,388,277,367,392,336,309,200,315,273,219,202,194,140,158,-5,-217,-349,-861,-1227,-765,7,249,280,462,-23,56,630,341,37,-38,45,-157,-335,-570,-386,247,1037,796,-1526,-2553,-1827,-921,-153,181,253,273,341,369,279,391,413,479,625,663,731,815,812,797,860,642,443,90,-158,-159,-229,-408,-461,-392,-246,-155,-183,-223,-116,239,584,318,-27,-139,-149,-257,-545,-638,-492
2018-05-15,14:06:48.925,-37,-119,60,713,1360,456,-1632,-2561,-2261,-1402,-1011,-395,645,470,652,993,737,620,476,199,343,221,-33,-1,50,-23,-26,74,131,136,191,146,86,75,37,-39,-75,-39,41,57,126,98,141,173,121,52,94,-39,-177,-238,-284,-379,-79,480,395,-701,-2336,-2632,-1816,-956,-290,142,200,97,39,152,532,492,256,88,83,208,257,241,102,23,31,-77,-220,47,-82,-788,-1131,292,1084,648,80,-165,-232,-95,228,860,728,497,441,421,-63,-351,-401,-399,-488,-590,-605,-70,734,975,-489,-2429,-2199,-1179,-419,82,266,252,333,231,279,399,423,523,672,770,934,827,835,835,637,282
2018-05-15,14:06:49.962,23,-152,-359,-455,-578,-566,-451,-389,-249,-127,-153,-213,-137,215,731,402,15,-121,-367,-360,-214,-215,-446,-546,-479,-377,262,1015,852,-1178,-2208,-1718,-1963,-869,508,616,536,249,427,528,655,617,343,508,648,496,226,-65,-16,61,156,237,303,289,316,308,281,295,174,102,150,160,267,301,297,304,278,261,281,150,94,-44,-95,-39,-128,-68,563,795,-188,-1909,-2475,-1778,-908,-235,116,147,81,19,207,439,271,98,234,252,169,265,43,101,324,216,137,-178,-413,-32,-677,-783,513,569,122,-65,-296,181,435,134,-87,252,286,-94,-615,-570,-378,-619,-791,-838,-853,-811,-249,498
2018-05-15,14:06:51.000,785,-602,-2593,-2452,-1469,-695,-140,50,14,64,79,55,137,232,292,333,388,448,383,376,274,31,-162,-315,-456,-518,-545,-512,-460,-222,-88,-99,-157,-213,-185,12,353,197,0,-126,-253,-239,18,42,-98,-158,-130,-54,145,646,1384,607,-1444,-1842,-1553,-905,-80,599,1118,425,144,755,948,551,200,608,785,592,498,400,345,300,261,309,366,376,410,394,371,346,238,136,132,173,202,284,341,363,316,320,295,273,207,87,-25,-117,-66,-48,264,830,793,-524,-2209,-2176,-1334,-496,99,361,371,333,385,448,504,455,305,231,334,389,387,562,540,412,343,246,83,-86,-228,-41
2018-05-15,14:06:52.037,999,1033,495,-207,-824,-841,-540,320,1289,1176,565,402,294,52,-124,-51,-105,-399,-530,-473,-223,349,1029,781,-1468,-2488,-1690,-781,-135,84,127,197,250,305,268,313,309,351,442,586,645,634,581,480,411,282,105,-138,-312,-419,-430,-333,-255,-162,-120,-86,-157,-230,98,478,201,-135,-200,-176,-209,-524,-635,-274,-158,-268,-261,214,948,1057,-1147,-2660,-1656,-1362,-1495,-311,631,212,-78,396,884,806,392,115,582,441,47,70,146,44,19,10,127,276,147,77,107,71,88,-7,-86,-47,-21,-9,2,60,4,4,58,1,-9,-87,-187,-282,-337,-389,-178,338,392,-464,-2125,-2584,-1878,-1003
2018-05-15,14:06:53.074,-350,44,216,185,182,160,216,482,355,134,93,211,234,341,338,276,279,215,166,115,245,225,126,-42,-401,-644,-110,-283,-117,393,105,255,448,-231,-782,67,795,673,119,-259,-434,-476,-291,141,717,752,-971,-2451,-2015,-1080,-316,113,192,253,260,254,266,309,326,431,364,347,492,603,568,507,441,297,198,96,4,-145,-352,-529,-586,-528,-379,-282,-243,-153,-204,-187,140,98,-220,-241,-294,-418,-389,-389,-502,-531,-388,22,857,1414,-63,-2007,-1910,-1483,-1614,-1368,-1025,-296,267,592,701,63,57,479,581,697,565,143,58,157,171,124,48,20,127,268,169,75,29,26,57,65
2018-05-15,14:06:54.111,59,92,69,114,166,71,60,30,-80,-61,-203,-311,-241,-163,-19,465,917,566,-1062,-2366,-2030,-1124,-366,96,465,581,518,521,508,584,802,821,671,595,628,775,942,915,796,678,599,523,569,565,386,255,137,-88,-288,-1018,-1469,233,1029,301,118,622,547,344,244,465,638,261,63,-19,-567,-520,352,1067,291,-1862,-2267,-1481,-769,-116,202,277,314,325,327,373,439,456,448,510,565,658,688,639,719,636,440,369,245,12,-181,-394,-523,-393,-278,-280,-200,-107,-43,-24,36,194,424,259,-58,-175,-200,-258,-275,-451,-621,-128,563,1085,1379,-225,-1847,-1685,-1401,-1229,-325,-885,-1400,125
2018-05-15,14:06:55.149,861,366,94,549,552,434,403,252,403,568,167,-219,-140,-12,5,91,105,19,-63,-92,-81,-112,-132,-123,-67,43,-14,-19,-87,-84,-89,-144,-207,-306,-283,-313,-293,-178,183,701,382,-1248,-2731,-2564,-1731,-953,-375,-30,111,195,204,220,417,788,779,501,396,305,289,518,691,683,512,474,346,263,256,170,-2,10,-273,-852,-913,-597,-807,-815,168,1061,583,-275,381,563,388,-233,-469,-468,-730,-793,-426,266,584,-461,-2284,-2418,-1605,-821,-136,142,177,144,181,196,241,352,332,343,486,522,568,592,681,695,579,516,366,187,10,-350,-670,-725,-685,-690,-535,-241,-15,44,68,125
2018-05-15,14:06:56.186,583,634,-141,-162,235,143,-67,-199,-173,-68,44,588,1627,1386,-997,-2045,-1479,-997,-1013,-1118,-1038,507,1359,755,12,-365,-69,652,1099,911,591,537,481,187,50,10,63,158,226,162,25,-19,-36,-89,-87,-64,-47,-56,-2,125,12,-8,-103,-102,-122,-248,-243,-247,-219,-230,86,654,810,-56,-1980,-2817,-2187,-1382,-781,-173,65,172,191,203,485,990,885,507,360,393,465,465,565,530,570,554,464,371,400,229,14,73,38,-836,-1481,-762,322,424,-120,-485,384,1120,990,475,314,-91,-219,-196,-594,-732,-527,-33,466,386,-1186,-2527,-2144,-1244,-404,155,284,284,279,246,241,319,285,318
2018-05-15,14:06:57.223,402,506,571,714,780,717,715,772,613,337,44,-288,-628,-842,-935,-944,-971,-798,-408,-146,-19,14,-55,109,670,586,56,-148,-228,-281,-363,-320,-235,272,1216,1891,345,-1764,-1782,-1081,-448,-270,-362,-481,-581,15,-138,-1011,-354,595,425,1076,1175,733,653,575,463,376,276,296,250,117,97,53,-138,-213,-144,-52,61,126,124,153,177,120,84,-52,-56,-123,-248,-238,-168,-182,-187,234,842,967,-273,-2232,-2532,-1745,-1116,-583,-182,-28,81,227,212,99,262,714,888,501,305,329,354,480,506,277,263,327,318,270,206,-2,-244,-435,-400,-621,-1230,-1002,-93,-59,-57,176,-95,683,680,428
2018-05-15,14:06:58.260,306,-431,-356,-151,-633,-604,86,454,-353,-2228,-2561,-1815,-1088,-378,66,182,162,217,279,294,320,295,330,404,441,549,671,678,694,649,558,429,283,98,-121,-244,-398,-552,-576,-529,-333,-120,-31,-64,-135,-59,362,444,-21,-237,-320,-316,-248,-216,-283,-203,244,1075,1489,-391,-2070,-1687,-881,-419,-630,-625,361,-174,-646,448,845,649,660,664,701,725,601,715,586,425,286,286,281,218,175,141,10,-75,-74,-7,57,125,136,131,190,209,110,89,70,-20,-113,-170,-148,-139,-103,0,464,1042,907,-577,-2414,-2554,-1779,-1004,-457,-117,108,268,397,477,445,534,961,1124,709,430,403,446
2018-05-15,14:06:59.298,667,784,757,714,503,532,450,261,227,60,-358,-500,-530,-1087,-845,-76,478,193,699,1607,1228,512,-41,46,201,-233,-557,-492,-252,376,713,4,-1804,-2457,-1773,-1028,-380,154,301,345,268,335,429,458,505,412,458,600,617,745,780,718,702,679,544,289,174,-40,-205,-388,-457,-432,-374,-301,-226,-162,-168,-173,-97,174,302,-21,-342,-517,-466,-216,-44,-18,-165,113,888,1354,-17,-2431,-2284,-1307,-969,-519,228,-260,-1267,-565,-115,-485,-338,728,1561,932,513,636,323,63,25,55,104,30,-18,-118,-99,-231,-350,-364,-348,-286,-234,-156,-135,-124,-52,-62,-200,-249,-143,-177,-314,-306,-290,-157
2018-05-15,14:07:00.335,-142,68,473,760,216,-1703,-3032,-2588,-1751,-950,-178,93,157,195,249,196,177,577,847,561,406,160,15,832,1166,1018,717,535,414,256,-15,-348,-28,157,49,-142,-407,-708,-912,-511,-679,-34,1188,1005,514,481,528,93,-593,-598,-542,-542,-296,247,658,-49,-1821,-2376,-1743,-969,-226,235,361,325,365,391,394,424,427,434,505,595,662,737,793,723,704,646,509,368,155,-112,-392,-515,-626,-666,-558,-329,-34,96,96,147,240,376,667,307,-21,-87,-183,-204,-257,-184,-357,196,1174,1740,431,-1612,-1816,-1221,-1301,-1416,-678,88,274,675,944,1250,839,356,603,578,55,485,738,385,224,176
2018-05-15,14:07:01.372,215,178,89,142,113,-68,-158,-194,-145,-180,-186,-168,-82,18,13,-31,-40,-75,-65,-95,-167,-219,-144,-177,-166,-190,224,741,544,-1146,-2969,-2816,-1738,-823,-117,255,303,247,294,582,969,967,552,376,564,840,888,825,707,652,621,523,468,414,337,184,-465,-984,-367,-985,-773,746,807,387,297,-68,104,11,-40,611,509,-195,-651,-805,-761,-678,-548,46,672,481,-1297,-2504,-2033,-1151,-481,1,159,261,277,234,218,292,346,349,407,495,607,625,523,540,479,352,266,91,-136,-203,-231,-335,-378,-253,-152,-158,-203,-193,-146,25,435,240,-78,-210,-213,-176,-215,-356,-403,-378,-390,-135
2018-05-15,14:07:02.409,513,1293,1063,-974,-2132,-2119,-1228,12,-400,-1006,365,923,33,-389,-408,458,1092,802,734,551,599,548,614,492,200,161,149,56,57,94,-88,-225,-212,-158,-79,-47,-64,39,80,103,55,-18,-34,-31,-73,-156,-212,-231,-178,-274,-154,354,827,455,-1709,-3094,-2425,-1501,-787,-152,229,252,226,251,369,740,784,561,527,567,610,687,822,678,500,122,450,893,548,333,-98,-543,-138,-42,-547,-172,337,544,571,396,350,500,246,15,-180,-230,-282,-479,-564,-579,-632,-552,97,807,786,-625,-2134,-1833,-1085,-431,75,315,344,278,274,383,370,344,417,463,411,467,659,652,538,445,296,200
2018-05-15,14:07:03.447,55,-5,-48,54,4,-63,-69,-138,-244,-208,-105,230,354,85,-69,-107,-139,-150,-179,-233,-317,-418,-405,-303,-227,-7,353,270,-937,-1633,-1013,-959,-970,-85,268,283,240,128,386,447,258,330,301,54,-2,79,237,268,101,155,256,196,183,211,179,15,-196,-220,-306,-378,-362,-313,-267,-190,-129,-66,-41,-185,-268,-209,-313,-516,-641,-735,-941,-987,-630,-52,472,-87,-2121,-2592,-1698,-868,-250,289,707,473,124,127,242,208,132,275,401,517,499,514,517,435,-95,-42,622,518,520,392,-468,-290,-370,-466,291,783,869,601,178,6,122,-57,-340,-402,-394,-469,-526,-479,-386,-380,-310,-9
2018-05-15,14:07:04.484,734,1062,507,-1217,-2026,-1521,-787,-145,348,417,364,397,503,560,506,500,580,623,623,641,572,433,263,216,303,351,446,514,522,365,141,98,147,400,281,8,-16,58,189,288,185,113,-6,-22,-18,-219,-582,-318,30,-495,-751,749,1092,489,-779,-1881,-1318,12,570,862,267,80,328,263,364,45,-184,-122,60,204,218,356,520,495,497,605,592,587,429,309,155,22,-165,-317,-345,-297,-229,-72,27,88,197,225,2,-121,-331,-589,-793,-884,-957,-965,-854,-684,-113,738,1353,571,-1810,-2219,-915,-244,13,260,282,266,458,378,321,243,226,403,503,289,-73,357,993,12,-248,374
2018-05-15,14:07:05.521,349,66,491,1171,1254,521,282,130,266,46,-282,-308,-431,-544,-379,-452,-463,-425,-377,-384,-521,-500,-392,-226,-87,389,866,548,-851,-2296,-2085,-1342,-622,70,278,321,391,319,269,303,166,76,61,93,49,-61,-26,15,112,432,591,545,317,198,187,293,378,-3,-304,-253,-185,-204,-229,-201,-14,-103,-269,-143,-53,-106,-448,-1050,-896,-933,-525,213,728,1146,1358,-502,-2022,-1232,-577,-496,151,391,-35,-182,-246,-273,-130,-96,-121,57,170,281,458,582,749,776,630,553,420,401,271,95,-99,-206,-290,-297,-252,-198,-162,-64,16,0,-79,-314,-566,-665,-729,-799,-819,-724,-424,-229,-243,51
2018-05-15,14:07:06.558,646,1612,1220,-1363,-2042,-1342,-529,-153,-6,15,206,236,283,331,256,280,105,-217,-142,-285,293,1055,912,677,655,896,693,823,1291,676,-162,-241,370,123,-462,-553,-470,-340,-285,-307,-266,-262,-254,-249,-288,-246,-263,-243,-136,241,843,850,-154,-1926,-2204,-1439,-712,-86,261,237,237,242,122,-7,-18,-45,-90,-97,-63,221,454,605,562,381,294,445,619,601,260,-106,-271,-158,-348,-414,-327,-245,-306,-232,-74,-24,-104,-195,-724,-1197,-343,-84,-636,119,133,-609,156,1450,1785,-175,-2028,-1547,-772,-487,-19,-21,-245,-300,-199,-143,-128,-62,44,150,262,366,555,706,626,593,622,484,409,373
2018-05-15,14:07:07.596,245,159,127,113,38,0,80,138,178,28,-130,-268,-444,-563,-616,-675,-601,-586,-453,-342,-316,-263,-68,886,2160,1878,-846,-2214,-1544,-724,-225,-74,86,144,-10,225,490,402,362,352,90,-119,-5,-40,171,746,1097,1171,1009,772,854,1030,399,-171,-139,-72,-241,-354,-321,-294,-254,-193,-96,-140,-181,-134,-84,-90,-184,-175,-168,-179,194,798,976,306,-1420,-2148,-1586,-870,-176,237,309,304,338,234,73,87,137,98,-13,156,533,737,741,678,606,723,1137,1205,727,328,139,51,21,-188,-132,-129,-71,-37,-93,-95,10,0,-95,-614,-758,-612,-1325,-1286,595,1230,241,-619,-411,-221,-1064,-491
2018-05-15,14:07:08.633,-409,-632,-324,253,-18,-478,-384,-244,-225,-235,-81,132,178,342,542,685,796,798,739,649,538,470,323,257,57,-24,-40,-140,-80,0,-24,-78,-142,-269,-335,-408,-570,-708,-732,-640,-563,-493,-386,-404,-437,30,1143,2005,1252,-1395,-2303,-1538,-975,-91,418,209,93,176,148,131,-48,-147,-640,-669,443,1220,1104,675,340,-214,-55,1365,1384,1018,966,425,-6,-204,-413,-444,-480,-532,-564,-387,-289,-332,-333,-293,-239,-225,-260,-250,-234,-268,-204,270,751,701,-398,-1958,-2090,-1346,-652,-133,71,230,444,344,313,172,-37,-196,-188,-53,142,401,657,726,649,506,411,543,832,710,320,27,-28,-132
2018-05-15,14:07:09.670,-274,-244,-256,-272,-162,-1,53,-56,-152,-734,-1380,-795,-568,-481,611,441,0,-413,1056,2284,1135,-1577,-2141,-932,-789,-665,-317,-199,-203,-203,-218,-243,-129,15,97,227,405,565,655,600,621,516,354,385,315,257,189,143,60,-74,-204,-230,-196,-191,-379,-441,-526,-537,-714,-884,-895,-744,-601,-482,-339,-332,-425,-68,1024,1614,1563,101,-1922,-1866,-1148,-588,-26,35,93,54,63,80,-74,-247,345,200,-303,8,-38,171,312,706,1250,927,806,1234,968,211,-9,35,-253,-550,-641,-524,-401,-378,-244,-80,-123,-168,-145,-66,-12,-115,-220,-206,-215,-65,509,916,570,-820,-2134,-1850,-1015,-372,215,358
2018-05-15,14:07:10.707,233,236,149,-82,-206,-291,-194,-15,196,381,589,639,640,634,637,806,971,749,223,-124,-92,-92,-342,-442,-215,58,55,-70,-35,40,-127,-162,-384,-578,-317,-758,-1367,-684,553,894,368,835,1474,171,-1418,-1681,-880,-338,-379,-379,-252,-136,-13,-41,-32,28,162,312,455,624,778,842,839,762,688,605,558,530,332,212,146,-6,-83,-66,-109,-41,4,-153,-375,-417,-483,-562,-505,-468,-325,-255,-186,-167,-198,-54,643,1377,1499,1179,-748,-2071,-1665,-744,-109,125,242,77,123,172,156,-39,308,183,-568,225,557,341,365,1125,1640,1225,1091,1127,604,409,304,-116,-262,-250,-492,-477,-391,-395
2018-05-15,14:07:11.745,-213,-74,-139,-114,-79,-19,1,-124,-223,-226,-225,-193,120,635,774,-115,-1831,-2277,-1548,-789,-151,120,141,170,120,118,132,122,143,262,420,530,585,565,532,634,964,1045,710,359,197,121,115,75,-62,-201,-297,-337,-288,-143,-500,-630,13,321,-374,-951,-461,-625,-929,-354,-204,-438,242,1090,1493,356,-1636,-2167,-1690,-971,-446,-422,-424,-358,-271,-288,-125,-30,31,210,377,484,504,592,653,571,484,480,390,349,265,129,11,-18,-164,-223,-283,-379,-390,-421,-444,-418,-465,-559,-497,-325,-221,-65,-58,-67,-58,25,703,1488,1731,1525,-430,-1933,-1451,-642,-39,250,215,300,360,383,342,-37
2018-05-15,14:07:12.782,560,1021,520,-69,-539,252,1664,1634,1434,1427,1354,920,740,942,907,690,134,-192,-181,-103,-4,90,281,312,299,244,265,268,284,153,57,22,68,148,488,1082,1097,199,-1391,-1971,-1279,-539,46,501,383,338,364,219,138,183,360,497,538,701,751,812,831,699,826,1154,1033,584,254,198,220,104,-73,-97,-56,-53,-119,-135,-130,-64,-192,-147,-186,-355,-515,-1440,-1158,-297,-424,-564,-18,193,895,382,-1138,-1515,-1255,-957,-641,-486,-436,-384,-354,-331,-260,-221,-77,16,151,408,494,535,502,430,367,252,262,152,21,-142,-276,-411,-503,-508,-470,-440,-449,-495,-595,-613,-728,-850,-861,-763
2018-05-15,14:07:13.819,-721,-710,-623,-461,-402,-403,-135,888,1875,1374,-1114,-2339,-1638,-944,-431,-171,-21,123,7,-117,-38,80,-50,-51,-51,-491,-271,70,331,826,976,789,1047,876,241,126,25,-244,-364,-263,-332,-444,-440,-372,-266,-256,-159,-153,-170,-135,-51,-165,-290,-260,-230,-225,109,680,769,-64,-1706,-2269,-1690,-959,-321,33,144,61,-4,20,73,40,-5,105,207,340,452,529,540,476,467,668,984,823,214,-57,-92,-32,-310,-326,-320,-351,-421,-365,-143,-15,-392,-350,-627,-1309,-963,-580,-235,-255,-518,290,421,673,1066,-71,-1591,-1484,-884,-698,-440,-357,-504,-582,-436,-259,-245,-79,79,166,244,379,567,645
2018-05-15,14:07:14.856,620,592,505,457,297,317,295,216,133,51,7,-30,-83,-145,-203,-470,-571,-583,-699,-867,-957,-1034,-910,-767,-612,-405,-254,-226,-49,523,1492,2317,331,-1902,-1729,-870,-372,108,199,141,134,388,303,176,257,161,-59,4,143,221,328,51,559,1064,-122,-297,762,549,371,551,386,7,-250,-205,-334,-742,-774,-526,-354,-378,-324,-347,-391,-297,-270,-221,-183,-203,-53,565,935,439,-1223,-2320,-1749,-1095,-485,49,211,238,218,162,37,26,97,68,148,251,396,481,603,640,582,508,468,720,1092,859,264,-114,-327,-197,-5,7,18,-18,-192,-115,65,-20,-214,-66,-556,-1326,-667,-629,-971,-277
2018-05-15,14:07:15.893,253,543,1026,937,-114,-1429,-1603,-1152,-521,-343,-412,-419,-371,-283,-245,-171,-8,87,225,395,617,812,814,716,688,572,531,385,175,103,-18,-204,-288,-316,-366,-328,-288,-245,-290,-405,-477,-591,-752,-980,-1076,-942,-826,-622,-402,-279,-63,239,760,1627,1877,-263,-1738,-1290,-546,0,223,309,263,295,377,256,227,280,450,391,186,479,796,251,-55,-508,-490,264,1380,1288,494,310,508,470,169,329,88,-209,67,-357,-478,-292,-320,-307,-183,-184,-241,-253,-114,5,45,352,841,935,132,-1626,-2134,-1495,-712,-147,280,370,361,334,351,355,304,141,108,80,101,225,292,383,468,499,525,552
2018-05-15,14:07:16.931,468,398,447,612,468,71,-158,-93,-132,71,167,155,138,94,15,-163,-98,-146,-410,-854,-1179,-874,165,158,-440,755,1430,-65,-1139,-1371,-857,-314,99,344,-329,-519,-409,-293,-176,-144,-140,-68,88,292,417,513,634,697,687,587,530,444,263,-49,-97,-257,-275,-322,-277,-168,-80,-50,54,41,-107,-291,-521,-775,-960,-1006,-994,-835,-620,-340,159,806,1407,1044,-1106,-1480,-588,-333,-58,271,141,105,202,331,227,226,258,207,-68,-73,168,359,428,330,641,635,536,249,-875,-56,207,-151,216,456,346,-200,-499,-405,-321,-240,-281,-476,-542,-480,-435,-454,-519,-443,-290,-222,105,654,868,137
2018-05-15,14:07:17.968,-1571,-2287,-1561,-894,-294,168,302,295,331,371,373,336,302,226,251,253,204,209,298,459,617,668,701,648,396,313,666,796,297,47,-116,-109,-1,-21,29,361,507,338,122,87,-59,-270,-959,-973,-586,-980,-46,1580,1360,723,-169,-1430,-1439,-469,-351,114,731,368,12,2,55,111,123,166,336,484,543,658,731,810,825,825,799,599,486,374,23,-19,-85,-203,-121,-41,22,142,229,245,306,135,-181,-465,-568,-731,-899,-913,-884,-671,-354,112,808,1414,1096,-856,-1236,-580,-388,-19,300,324,104,232,355,398,575,423,430,374,244,211,346,339,-56,373,813,322,264,530,458,-75
2018-05-15,14:07:19.005,108,174,520,348,15,-169,-346,-428,-316,-218,-236,-423,-414,-319,-380,-445,-354,-228,-228,52,613,864,150,-1499,-2205,-1673,-940,-360,22,195,291,443,396,356,333,236,170,137,136,99,207,335,333,293,289,352,342,271,64,-80,109,534,245,-59,-196,-234,-42,65,71,-39,15,32,-47,-87,-177,-318,-372,-536,-1134,-1108,-315,339,1365,815,-1263,-1531,-517,-100,-126,-318,-30,28,-240,-321,-60,35,73,144,209,321,415,468,523,564,549,569,607,292,143,32,-128,-200,-422,-446,-296,-242,-133,29,25,133,205,126,-13,-149,-395,-600,-746,-819,-843,-820,-539,151,1015,1479,-116,-1952,-1411,-689
2018-05-15,14:07:20.042,-309,4,-33,-30,95,158,102,42,-53,185,660,628,179,283,785,533,159,-141,-29,453,784,1159,746,-116,15,206,-81,-163,-68,-41,-306,-605,-548,-423,-419,-365,-333,-388,-562,-607,-471,-308,-197,140,755,983,-77,-1880,-2148,-1511,-784,-193,190,347,373,314,285,317,353,338,366,210,190,211,298,333,291,194,92,88,145,168,57,-99,-31,330,305,-28,-74,-113,-59,110,161,149,-175,-183,177,134,-65,-239,-433,-468,-617,-1022,-317,890,1260,-219,-1396,-665,-349,-519,-561,265,409,336,226,98,-7,-59,-80,59,204,311,475,603,692,701,647,615,541,332,148,-4,-83,-346,-406,-306
2018-05-15,14:07:21.080,-259,-310,-137,34,53,154,184,55,-176,-366,-622,-917,-1091,-1066,-965,-855,-491,217,1077,883,-1255,-2331,-1288,134,631,373,190,139,231,329,186,256,257,117,217,338,635,836,805,644,596,543,-122,-593,-225,-357,282,894,156,-498,-160,199,144,35,-110,-254,-316,-448,-533,-480,-483,-552,-541,-476,-441,-366,-66,679,1039,441,-1201,-2139,-1693,-902,-323,158,255,249,223,231,279,270,240,242,275,375,492,454,373,338,260,278,339,329,289,213,23,38,165,357,255,-42,-151,-55,13,96,182,59,-32,-25,-158,-234,-305,-545,-907,-356,-262,-1296,-343,2351,1391,-2202,-2179,-574,-2,336,107,-324
2018-05-15,14:07:22.117,-226,174,-14,-272,-236,-51,-22,141,346,452,604,678,699,731,718,652,506,288,94,-13,-179,-287,-329,-398,-346,-183,-105,-96,-73,-85,-117,-141,-470,-648,-767,-962,-901,-691,-459,-120,534,1278,1200,-504,-1400,-1065,-607,-149,115,-70,55,323,300,279,291,378,178,276,-93,-400,204,646,711,619,424,938,753,-260,146,218,-510,-444,318,775,419,-67,-217,-233,-241,-323,-209,-149,-193,-170,-188,-139,-67,-35,-43,367,960,815,-425,-1953,-2127,-1424,-766,-148,246,231,159,250,307,240,177,262,311,292,210,302,349,416,495,546,626,691,567,426,349,461,608,409,43,-44,-36,101,113,-5
2018-05-15,14:07:23.154,12,138,155,54,-19,-150,-369,-558,-598,-1359,-1177,375,1051,1145,944,-1000,-1873,-761,-141,177,210,-183,-15,-130,-266,-255,-175,-77,-17,-28,102,350,482,528,575,561,539,519,401,199,47,-117,-229,-346,-378,-441,-317,-134,-25,112,241,162,2,-58,-261,-393,-685,-874,-1018,-1015,-1005,-653,213,842,355,-1414,-2251,-1627,-827,178,1133,1176,535,296,263,392,354,504,675,577,581,606,655,422,562,724,704,609,433,139,-304,-268,-237,-728,165,447,38,-13,10,192,392,182,-11,-304,-450,-426,-596,-653,-678,-691,-374,208,667,368,-896,-1960,-1723,-1004,-382,84,272,360,380,282,326,329,374,404
2018-05-15,14:07:24.191,489,419,513,592,616,673,588,388,324,304,206,12,-207,-392,-430,-422,-382,-357,-344,-278,-237,-124,48,148,106,-118,-320,-448,-428,-397,-289,-220,-23,527,657,-296,-1794,-2065,-1499,-945,-429,-138,-87,-96,-146,-393,-648,-240,-5,-293,131,483,756,645,436,418,474,304,72,0,-68,-216,-372,-366,-399,-423,-359,-249,-151,-67,75,153,130,26,-7,-30,-54,-107,-101,-112,-42,315,889,1006,39,-1382,-1697,-1124,-446,84,444,527,574,573,619,639,684,686,670,722,823,882,890,877,881,896,936,959,911,566,512,542,333,318,419,451,456,474,480,498,509,447,369,309,258,160,41,76
