2018-05-14,10:45:01.845,-66,-82,-127,-148,-143,-163,-167,-172,-176,-191,-202,-208,-222,-217,-223,-238,-252,-262,-269,-268,-277,-283,-285,-278,-283,-275,-247,-237,-234,-220,-156,-71,-60,-51,8,33,9,-8,41,78,97,113,-21,-296,243,2260,3064,1208,-43,-7,50,-47,-194,-192,-130,-127,-85,-56,-46,-18,1,34,45,55,58,40,74,62,55,63,59,97,126,154,190,214,279,302,318,309,269,253,200,179,168,139,138,117,103,98,95,103,96,94,108,105,124,111,137,132,122,111,83,100,81,88,88,60,75,70,106,162,129,106,107,99,45,-20,-6,-22,-10,-11,-207,-461,274,2470,3151,955
2018-05-14,10:45:02.883,-336,-328,-290,-477,-579,-529,-475,-453,-436,-412,-369,-332,-315,-272,-248,-228,-213,-207,-192,-175,-190,-207,-217,-191,-162,-116,-51,1,70,127,168,198,209,199,171,154,148,152,141,122,102,98,90,89,78,67,67,70,62,51,35,32,25,20,26,40,46,26,13,2,-15,-13,37,87,51,21,38,12,-58,-116,-103,-94,-96,-102,-288,-600,104,2364,3035,924,-368,-401,-345,-532,-667,-646,-615,-573,-506,-475,-494,-514,-432,-368,-380,-357,-332,-339,-331,-311,-322,-336,-318,-292,-254,-204,-136,-79,-12,41,77,84,77,75,61,43,23,14,6,1,0,-17,-12,-2,-7,-10,-12,-20
2018-05-14,10:45:03.920,-25,-4,-11,-32,12,18,7,15,17,0,-20,-35,-45,25,131,129,123,136,93,20,0,0,9,7,-81,-385,-434,1185,3136,2116,111,-374,-263,-321,-510,-593,-567,-496,-429,-412,-410,-386,-357,-330,-299,-290,-272,-273,-266,-249,-265,-253,-222,-190,-151,-109,-60,-4,59,105,126,121,100,87,62,19,-4,-30,-6,4,-25,-36,-41,-36,-46,-66,-91,-111,-100,-72,-87,-70,-50,-19,-25,-45,-68,-70,-53,-29,34,6,-9,39,23,-38,-59,-60,-59,-65,-74,-200,-527,-52,1930,2758,847,-393,-359,-258,-374,-499,-482,-447,-449,-424,-410,-427,-355,-311,-292,-279,-266,-258,-249,-251,-231,-212
2018-05-14,10:45:04.957,-198,-183,-157,-140,-57,15,74,93,120,151,190,174,138,117,95,86,78,85,90,82,56,58,63,76,75,60,67,90,78,77,66,59,73,87,64,59,89,145,179,154,145,147,103,36,11,10,14,4,-90,-398,-153,1755,3265,1603,-184,-400,-283,-393,-569,-571,-539,-514,-490,-469,-437,-418,-388,-377,-356,-341,-330,-326,-328,-339,-335,-325,-333,-322,-277,-221,-173,-126,-63,10,40,23,13,11,1,-18,-33,-31,-34,-38,-33,-50,-51,-68,-65,-46,-51,-57,-55,-60,-40,-41,-58,-57,-48,-44,-53,-56,-47,11,39,15,-9,15,0,-65,-85,-99,-104,-95,-149,-498,-578,1002
2018-05-14,10:45:05.994,3298,2469,230,-425,-351,-436,-638,-688,-642,-595,-561,-531,-517,-469,-432,-399,-344,-337,-305,-289,-276,-254,-265,-250,-258,-213,-155,-102,-27,13,62,128,163,170,130,115,97,71,69,50,54,39,30,38,30,28,22,15,16,-6,12,5,2,30,-3,-7,1,-12,-12,17,83,55,37,71,23,-34,-70,-62,-60,-72,-66,-293,-560,201,2307,2569,495,-426,-297,-247,-365,-504,-470,-422,-384,-355,-356,-336,-318,-285,-255,-268,-250,-247,-250,-231,-240,-219,-208,-186,-136,-111,-52,-24,31,98,97,87,42,32,37,-1,-5,-19,-11,-10,-10,6,-14,-16,-9,-21,-16,-29,-18,-7,-12,5
2018-05-14,10:45:07.232,-17,-14,0,12,43,73,100,72,77,106,67,25,-13,-21,-11,0,-31,-346,-365,1058,3004,2233,113,-405,-238,-286,-475,-513,-448,-413,-408,-379,-362,-336,-302,-266,-230,-236,-219,-217,-213,-201,-218,-208,-199,-175,-125,-105,-49,-16,36,116,156,160,124,104,77,59,66,52,48,48,43,66,43,32,23,9,17,4,13,26,10,34,13,38,4,-15,62,88,70,63,80,88,14,-24,-12,-6,-10,-50,-263,-502,464,2674,2864,723,-357,-318,-304,-522,-589,-549,-503,-479,-472,-426,-419,-388,-353,-338,-317,-316,-305,-306,-296,-279,-284,-273,-259,-236,-174,-127,-45,1,36,90,90,86
2018-05-14,10:45:08.269,79,71,56,23,31,27,29,46,37,32,16,21,33,27,34,17,30,40,38,64,59,50,63,52,80,111,118,94,95,121,90,44,18,21,33,25,-73,-406,-244,1524,3195,1950,22,-371,-263,-383,-554,-577,-539,-493,-483,-457,-439,-403,-388,-370,-333,-323,-293,-271,-278,-269,-282,-255,-236,-229,-186,-148,-81,-36,13,79,60,73,41,18,3,-15,-2,-21,-19,-6,-30,-32,-55,-52,-49,-66,-53,-61,-58,-49,-55,-46,-55,-46,-46,-41,-13,-39,-10,54,16,8,27,22,-22,-58,-33,-20,-33,-68,-316,-451,602,2585,2289,315,-415,-310,-313,-443,-524,-495,-457,-420,-388,-368
2018-05-14,10:45:09.306,-346,-316,-281,-251,-230,-207,-191,-190,-184,-177,-158,-131,-102,-64,0,70,131,188,237,267,231,200,187,171,140,128,137,141,138,127,112,123,114,122,112,82,90,102,91,100,124,119,109,105,99,103,110,148,196,188,144,141,148,106,55,52,47,21,8,-194,-473,233,2377,3061,1057,-292,-362,-321,-485,-613,-593,-539,-518,-507,-476,-458,-431,-400,-360,-334,-312,-292,-256,-250,-249,-254,-224,-190,-179,-142,-89,-26,39,107,157,173,144,107,89,64,63,64,81,75,48,27,15,12,7,-2,10,-5,7,12,14,23,18,8,23,32,17,12,20,11,-2,47,79,55
2018-05-14,10:45:10.343,52,48,58,18,-57,-64,-51,-50,-73,-312,-559,315,2489,2866,811,-365,-357,-333,-512,-611,-566,-520,-503,-467,-449,-419,-380,-363,-338,-323,-294,-291,-309,-300,-290,-286,-281,-266,-232,-198,-150,-87,-11,41,64,87,61,26,-4,-4,12,-9,-15,-19,-34,-34,-23,-40,-50,-25,-23,-18,-23,6,15,11,32,46,47,34,35,33,31,24,2,0,13,32,78,109,65,59,81,66,8,-11,0,-4,-18,-67,-343,-441,819,2759,2187,171,-446,-308,-341,-522,-582,-532,-496,-467,-469,-441,-409,-383,-371,-340,-313,-299,-285,-294,-305,-295,-287,-275,-232,-195,-168,-110,-44,1,48,88,80,53
2018-05-14,10:45:11.381,38,20,-9,-43,-33,-27,-31,-12,-12,-27,-31,-25,-42,-43,-37,-43,-49,-30,-23,-16,-20,-15,-1,3,11,21,19,19,29,30,65,105,79,77,85,82,28,-11,-1,-1,-5,-97,-378,-117,1655,3169,1701,-162,-454,-342,-412,-557,-557,-483,-468,-431,-385,-365,-350,-339,-319,-300,-268,-243,-249,-260,-257,-256,-240,-234,-223,-185,-131,-67,-8,35,102,138,148,112,90,68,71,55,31,24,26,33,16,11,10,-2,0,9,25,29,25,35,35,42,47,38,28,31,56,50,35,46,27,18,10,28,17,48,89,61,53,80,50,-20,-49,-36,-32,-41,-239,-516,220,2510
2018-05-14,10:45:12.418,3177,933,-367,-379,-346,-512,-612,-590,-570,-531,-497,-482,-461,-429,-385,-355,-353,-327,-292,-275,-282,-288,-280,-278,-265,-237,-188,-122,-74,-17,63,129,150,151,136,117,101,83,73,76,71,51,51,46,31,26,17,5,-4,-2,-1,-4,12,14,4,1,14,29,20,23,13,5,-8,-9,-14,-6,-1,-4,30,74,51,56,80,60,-14,-25,9,4,-19,-210,-499,244,2453,2993,919,-347,-360,-300,-470,-598,-587,-533,-485,-456,-449,-424,-399,-370,-343,-316,-299,-297,-297,-276,-262,-249,-232,-220,-190,-142,-87,-34,25,89,125,123,107,81,48,11,5,33,14,2,11,-3,-26,-16
2018-05-14,10:45:13.455,-23,-27,-32,-30,-39,-33,-37,-29,-30,-35,-30,-25,-19,-20,-8,5,2,-5,0,6,15,14,34,91,73,64,78,74,31,-10,1,9,1,-58,-339,-283,1225,2995,2033,65,-422,-289,-307,-485,-529,-493,-444,-424,-400,-357,-334,-310,-276,-247,-236,-222,-210,-198,-193,-201,-186,-163,-157,-131,-83,-38,13,92,147,174,178,160,149,121,88,76,87,81,61,55,49,43,27,30,39,38,37,25,23,27,8,3,26,13,5,28,27,9,-6,-25,-13,-12,-20,14,73,59,55,66,74,24,-19,-13,-18,-13,-42,-295,-471,594,2755,2811,612,-423,-366,-340,-527,-607,-577,-528
2018-05-14,10:45:14.492,-486,-474,-432,-405,-386,-368,-351,-314,-301,-284,-263,-256,-255,-253,-244,-237,-214,-164,-105,-44,15,89,132,120,102,87,81,74,65,53,41,38,36,32,29,41,22,0,11,2,6,19,11,8,13,22,19,11,16,10,18,10,0,-22,-16,-22,2,48,74,43,38,59,11,-49,-44,-51,-58,-71,-176,-489,-251,1585,3145,1639,-175,-420,-282,-388,-589,-575,-519,-497,-458,-426,-414,-393,-372,-346,-319,-293,-279,-278,-271,-266,-266,-248,-236,-214,-173,-113,-43,4,51,99,122,109,71,33,12,8,-6,-1,-9,-11,1,-16,-21,-16,-30,-30,-27,-48,-41,-21,-31,-26,-3,0
2018-05-14,10:45:15.530,-3,-12,-25,5,11,-4,28,86,94,72,80,80,39,-8,8,10,4,6,-115,-386,-41,1820,3020,1244,-274,-338,-220,-284,-443,-436,-383,-350,-321,-302,-293,-265,-247,-251,-205,-184,-162,-146,-148,-159,-154,-151,-149,-116,-73,-13,33,101,157,193,179,148,111,75,48,32,22,18,16,22,6,4,16,23,13,9,-1,4,16,18,13,0,6,26,33,26,13,-4,-4,7,56,82,61,77,93,89,48,11,0,-1,-7,-81,-375,-421,1009,3098,2369,150,-455,-316,-342,-537,-591,-549,-521,-492,-456,-435,-425,-414,-378,-355,-339,-319,-306,-288,-284,-286,-282,-273,-239,-194,-132,-95
2018-05-14,10:45:16.567,-53,22,91,121,114,99,75,69,50,44,51,45,46,45,50,45,37,19,14,3,-12,-10,-9,-21,-18,-1,-3,7,10,-3,-11,-25,-24,3,44,42,24,31,43,9,-43,-46,-29,-46,-61,-220,-543,32,2249,3188,1096,-361,-380,-291,-456,-597,-577,-533,-506,-465,-426,-405,-398,-377,-361,-322,-297,-280,-257,-254,-250,-247,-238,-205,-178,-142,-71,-9,50,109,140,122,80,54,25,0,5,-6,-21,-23,-9,-4,-25,-32,-29,-18,-16,-23,-26,-31,-21,-32,-37,-38,-17,-25,-34,-29,-21,-21,11,48,34,24,31,12,-61,-92,-77,-86,-95,-139,-413,-476,798,2723,1872,-97
2018-05-14,10:45:17.604,-526,-325,-334,-484,-535,-502,-464,-429,-401,-378,-348,-335,-296,-262,-238,-213,-193,-192,-201,-204,-171,-144,-128,-81,-29,19,94,154,205,203,160,119,73,39,41,45,30,41,42,30,28,27,14,14,9,4,23,16,17,13,21,20,35,19,3,24,22,20,80,117,85,86,116,118,50,-22,-3,5,4,-26,-281,-447,581,2766,2802,527,-460,-373,-316,-487,-575,-550,-512,-465,-457,-443,-407,-380,-366,-339,-315,-298,-288,-277,-292,-282,-269,-262,-253,-227,-169,-115,-58,0,73,102,105,97,64,29,21,21,29,35,29,41,21,18,0,-9,-3,-12,-4,-4,6,2,8,19
2018-05-14,10:45:18.641,19,32,24,17,0,7,-7,13,80,89,68,70,80,70,12,-16,-7,-12,-29,-120,-436,-211,1648,3282,1752,-177,-460,-324,-413,-586,-576,-522,-507,-480,-456,-431,-402,-371,-346,-326,-305,-279,-271,-274,-283,-275,-264,-252,-216,-176,-126,-47,32,98,138,137,108,81,60,46,42,45,32,24,17,22,23,7,5,16,2,2,-4,-2,10,25,28,34,30,20,17,11,14,26,11,4,47,92,67,73,88,87,35,-11,9,0,-1,-25,-267,-455,520,2692,2623,429,-445,-305,-269,-423,-500,-483,-446,-435,-402,-359,-330,-303,-284,-258,-251,-244,-210,-184,-178,-186,-172,-148,-116,-71
2018-05-14,10:45:19.679,-21,37,84,129,175,171,159,115,62,42,31,11,18,27,31,20,29,41,24,27,14,11,16,13,16,36,27,20,31,42,30,19,35,41,38,70,113,106,78,89,95,85,27,28,46,36,33,-108,-400,-4,2005,3147,1214,-272,-369,-255,-335,-475,-470,-427,-412,-376,-358,-339,-310,-290,-263,-230,-216,-201,-207,-190,-194,-213,-221,-213,-174,-145,-79,-20,32,100,145,141,103,61,44,25,21,18,12,11,14,8,-1,-5,-19,-18,-1,-19,-13,-19,-25,-19,-9,2,2,8,-2,-14,2,14,12,24,60,52,18,37,40,36,-35,-59,-50,-67,-83,-163,-488,-277
2018-05-14,10:45:20.716,1701,3262,1575,-261,-509,-381,-494,-651,-652,-607,-569,-536,-518,-498,-463,-444,-422,-406,-385,-372,-367,-349,-350,-329,-309,-318,-293,-221,-155,-97,-40,30,79,83,64,49,18,11,5,0,-10,0,14,-11,-9,5,-15,-29,-27,-21,-36,-51,-39,-10,-19,-17,-25,-36,-11,-3,0,9,8,4,-1,16,54,44,25,38,40,-15,-65,-54,-59,-42,-61,-273,-521,336,2578,2929,777,-387,-379,-337,-501,-608,-574,-528,-509,-471,-457,-439,-392,-369,-362,-338,-311,-309,-306,-287,-300,-281,-261,-242,-199,-151,-101,-26,35,80,102,91,57,30,-5,-11,-1,-30,-34,-28,-26,-23,-29,-25,-18,-50
2018-05-14,10:45:21.753,-35,-25,-35,-29,-22,-26,-33,-12,0,0,15,29,21,12,19,14,17,46,75,36,52,75,54,0,-30,-21,-19,-42,-85,-353,-418,830,2724,2049,106,-462,-299,-285,-444,-511,-472,-439,-427,-396,-354,-328,-293,-265,-229,-208,-199,-201,-179,-167,-166,-161,-148,-109,-62,-25,15,77,136,167,166,157,120,93,68,49,38,38,59,59,48,29,22,28,28,21,24,26,9,7,39,44,35,32,29,35,20,11,20,35,39,47,48,93,111,63,58,93,59,2,2,-9,-22,-2,-109,-425,-75,1832,3192,1569,-210,-483,-352,-436,-584,-584,-541,-474,-445,-435,-410,-380,-359,-333
2018-05-14,10:45:22.790,-301,-269,-247,-243,-255,-241,-242,-253,-251,-229,-188,-122,-71,-16,55,114,129,100,77,66,42,29,28,23,26,37,33,19,16,5,6,-2,-9,-5,-9,3,10,13,36,33,27,25,25,14,9,0,3,12,3,26,71,88,54,59,82,58,-12,-43,-6,-10,-19,-67,-363,-291,1237,3131,2237,130,-468,-345,-370,-543,-581,-525,-490,-441,-419,-400,-367,-343,-309,-291,-277,-256,-245,-255,-263,-260,-250,-230,-209,-181,-122,-62,0,58,116,133,116,97,92,57,24,26,32,19,37,34,22,18,23,3,-3,0,-14,-11,-12,-6,2,14,17,17,31,23,16,27,25,22
2018-05-14,10:45:23.828,35,37,33,83,123,107,97,117,117,64,10,25,34,34,30,-143,-361,344,2316,2715,730,-370,-311,-192,-307,-415,-393,-333,-302,-267,-249,-232,-202,-162,-144,-130,-117,-119,-116,-101,-60,-59,-44,-11,18,50,97,161,227,270,306,286,272,229,172,162,168,174,187,177,167,178,161,141,135,116,97,104,93,92,102,100,91,72,74,69,53,57,67,52,28,22,33,35,49,91,78,29,17,38,-8,-56,-43,-39,-38,-43,-188,-490,-50,1958,3126,1229,-407,-518,-381,-484,-634,-644,-618,-591,-548,-514,-496,-474,-444,-423,-417,-400,-400,-377,-351,-368,-364,-377,-364,-336,-304,-264
2018-05-14,10:45:24.865,-225,-134,-51,6,16,18,23,11,-12,-28,-22,-15,-21,-39,-50,-53,-70,-73,-71,-66,-75,-85,-75,-68,-51,-38,-54,-54,-43,-26,-23,-10,-19,-35,-41,-39,-47,-24,56,71,8,-1,32,-21,-99,-97,-101,-82,-51,-114,-441,-346,1430,3209,1898,-56,-446,-305,-358,-538,-572,-542,-501,-473,-447,-406,-368,-342,-290,-268,-259,-253,-244,-245,-246,-241,-256,-248,-229,-166,-122,-81,-21,51,100,116,104,88,65,45,42,28,16,-2,-24,2,21,0,-15,-28,-9,13,0,-23,-7,9,12,8,26,43,58,77,106,89,58,42,40,42,49,109,77,49,61,55,15,-39,-44,-28
2018-05-14,10:45:25.902,-32,-62,-243,-515,127,2165,2683,716,-429,-396,-273,-370,-520,-522,-467,-462,-453,-410,-380,-361,-334,-305,-294,-263,-240,-284,-300,-272,-245,-221,-179,-136,-89,-22,33,91,119,131,114,66,-2,-29,-54,-68,-79,-87,-92,-83,-79,-79,-65,-78,-81,-59,-51,-44,-55,-61,-40,-35,-32,-26,-27,-44,-45,-38,-31,-22,25,78,54,38,49,42,10,-31,4,-16,-10,-52,-306,-448,655,2706,2416,328,-481,-382,-325,-476,-560,-530,-493,-449,-442,-418,-401,-381,-342,-305,-288,-244,-228,-247,-258,-249,-224,-215,-219,-209,-143,-92,-26,34,93,104,76,50,14,4,4,-32,-46,-45,-44,-53,-53,-51
2018-05-14,10:45:26.939,-44,-40,-38,-51,-44,-52,-61,-58,-70,-62,-34,-15,-16,-40,-48,-41,-46,-26,23,54,12,8,12,-12,-71,-70,-53,-75,-73,-143,-465,-299,1447,3155,1857,-67,-458,-347,-426,-601,-626,-572,-524,-494,-453,-415,-401,-392,-334,-308,-288,-265,-255,-245,-243,-241,-224,-209,-176,-129,-86,-44,11,72,116,146,147,99,62,66,58,41,37,48,53,42,46,40,26,15,10,7,-1,-15,-20,-17,5,26,21,24,9,2,12,-2,6,36,82,80,75,78,68,16,-28,-14,-26,-36,-23,-208,-503,223,2385,2985,941,-367,-381,-301,-458,-582,-558,-512,-479,-440,-424,-416,-396,-371,-350,-298
2018-05-14,10:45:27.976,-272,-268,-260,-250,-228,-212,-203,-176,-140,-94,-24,28,82,137,151,128,90,39,21,-2,3,8,-1,-15,-28,-41,-22,-14,-31,-16,1,-1,-20,-29,-5,3,3,-5,-10,-7,4,6,17,48,109,106,88,89,94,43,-18,-7,0,3,-8,-172,-436,105,2091,2805,885,-370,-364,-247,-326,-454,-443,-386,-376,-363,-311,-289,-281,-261,-241,-210,-190,-182,-168,-168,-174,-151,-128,-111,-80,-52,-9,57,86,120,162,155,108,64,41,35,34,29,6,16,22,30,27,-2,-7,-6,1,12,-8,-10,1,19,32,38,24,15,28,32,18,56,119,93,67,65,66,31,-19,-30
2018-05-14,10:45:29.014,-17,-29,-43,-208,-482,213,2348,3005,953,-390,-403,-308,-450,-579,-549,-501,-463,-422,-416,-391,-374,-351,-323,-282,-257,-242,-224,-228,-237,-223,-201,-175,-149,-111,-59,21,74,133,167,169,154,115,97,91,88,84,72,66,106,91,80,103,104,107,114,92,91,97,95,101,113,108,125,136,137,125,118,123,131,174,206,184,170,167,198,158,119,142,135,121,103,-138,-355,604,2799,2997,854,-264,-224,-164,-322,-454,-434,-371,-340,-324,-304,-288,-277,-250,-227,-190,-184,-201,-206,-218,-208,-214,-200,-174,-149,-114,-72,-27,23,82,103,81,33,-14,-42,-70,-82,-73,-70,-77,-69,-66
2018-05-14,10:45:30.051,-74,-71,-96,-103,-115,-123,-110,-97,-103,-89,-100,-106,-78,-68,-86,-104,-100,-94,-101,-110,-36,-7,-62,-66,-37,-64,-125,-139,-127,-122,-126,-174,-420,-359,1019,2661,1607,-172,-561,-401,-383,-521,-560,-490,-452,-430,-412,-406,-369,-323,-311,-280,-244,-233,-199,-191,-191,-181,-183,-165,-134,-86,-42,11,80,153,167,145,112,69,18,0,-15,-27,-23,-10,-17,-11,-25,-35,-34,-41,-45,-46,-27,-21,-30,-37,-42,-45,-39,-16,7,-9,-17,19,20,6,45,84,51,36,60,64,-23,-65,-38,-66,-75,-115,-376,-479,745,2791,2410,275,-556,-450,-435,-593,-631,-568,-520,-485,-459,-444,-417,-413
2018-05-14,10:45:31.088,-385,-359,-323,-324,-335,-308,-280,-272,-276,-260,-238,-209,-154,-112,-58,11,77,97,84,65,44,13,10,12,-6,-7,-2,-7,-3,-6,8,1,4,24,26,5,4,4,0,-5,0,4,17,15,26,16,7,5,-3,26,101,73,45,44,51,0,-46,-33,-50,-61,-55,-171,-474,-10,1956,3137,1408,-271,-455,-324,-422,-562,-545,-502,-503,-483,-442,-424,-391,-350,-309,-288,-280,-272,-277,-252,-234,-248,-249,-241,-202,-158,-99,-43,31,96,138,133,92,78,34,7,5,11,12,29,35,-11,-6,-16,-32,-31,-27,-49,-51,-53,-60,-62,-90,-83,-59,-55,-67,-51,-50,-49,-52,-55
2018-05-14,10:45:32.013,-44,-29,16,16,-24,15,46,1,-52,-78,-77,-82,-83,-221,-455,106,2006,2675,752,-470,-446,-311,-394,-514,-494,-450,-414,-394,-366,-314,-308,-295,-295,-247,-227,-212,-176,-181,-183,-187,-187,-167,-106,-70,-45,16,77,114,119,105,62,25,-14,-42,-62,-46,-47,-52,-54,-34,-22,-4,16,21,18,15,23,18,22,40,30,36,50,46,59,82,72,59,61,69,69,87,136,128,107,121,122,57,-2,9,20,-7,-27,-206,-396,417,2490,2901,743,-470,-431,-319,-455,-558,-524,-466,-404,-373,-369,-321,-280,-268,-254,-228,-203,-196,-180,-181,-185,-168,-154,-151,-132,-74,0,42,90,136
2018-05-14,10:45:33.050,163,174,138,120,92,61,64,66,39,37,26,4,-1,-7,-2,-13,-23,-12,-12,-3,0,0,8,-2,-10,-7,-9,-7,-20,-25,-28,-24,-14,4,44,67,36,43,44,8,-47,-88,-66,-66,-80,-126,-407,-415,1029,3089,2300,117,-494,-354,-387,-587,-639,-583,-542,-536,-505,-467,-431,-395,-342,-301,-281,-266,-241,-230,-240,-251,-211,-205,-187,-135,-62,-8,57,122,178,209,184,164,128,119,101,74,66,88,80,65,53,56,64,65,63,62,53,59,63,69,87,97,98,96,86,86,107,129,119,117,104,111,135,172,175,158,166,156,106,67,63,83,83,52,-100,-397
2018-05-14,10:45:34.088,110,2150,2896,897,-367,-290,-160,-251,-388,-383,-356,-346,-315,-260,-241,-222,-184,-160,-118,-122,-129,-130,-117,-118,-114,-119,-114,-81,-31,31,86,145,171,173,150,105,59,2,-33,-54,-61,-52,-39,-39,-36,-49,-52,-40,-51,-49,-30,-33,-39,-34,-26,-43,-65,-59,-63,-78,-79,-86,-90,-76,-66,-63,-46,-35,-56,-46,-41,-83,-157,-158,-128,-127,-109,-167,-470,-419,1041,2765,1728,-147,-595,-437,-418,-546,-586,-549,-497,-488,-463,-454,-434,-397,-383,-370,-333,-308,-296,-296,-281,-266,-264,-261,-223,-176,-128,-84,-36,36,80,104,87,53,56,43,33,9,13,12,0,3,1,-9,-6,10
2018-05-14,10:45:35.125,4,-2,19,9,-11,5,9,18,14,2,16,31,16,10,35,30,34,79,66,40,35,59,16,-32,-33,-52,-38,-39,-188,-452,94,2102,3083,1213,-307,-435,-322,-408,-536,-523,-475,-463,-450,-417,-383,-376,-360,-325,-287,-283,-277,-257,-247,-248,-246,-246,-228,-219,-167,-105,-41,19,62,98,103,80,47,38,22,-6,-18,-14,-20,-40,-40,-14,-19,-20,-6,-5,-31,-39,-32,-30,-33,-29,-13,-11,-23,-39,-27,-34,-31,-47,-42,-3,46,27,10,19,24,-4,-67,-58,-42,-38,-54,-298,-470,585,2672,2592,502,-440,-366,-322,-482,-580,-542,-507,-446,-396,-386,-379,-354,-317,-283,-246
2018-05-14,10:45:36.162,-245,-226,-193,-170,-193,-206,-163,-133,-94,-38,9,69,105,146,168,148,113,86,67,74,40,26,20,12,39,50,34,12,8,8,-3,-21,-30,-14,-16,-28,-19,-2,2,-6,0,5,5,-4,3,57,89,57,42,26,24,-25,-70,-38,-39,-55,-116,-371,-416,744,2532,1871,27,-495,-326,-265,-391,-486,-441,-389,-366,-344,-312,-310,-295,-262,-229,-230,-224,-200,-198,-176,-170,-186,-149,-139,-122,-73,-14,47,108,130,131,98,67,50,-7,-36,-31,-13,-14,-41,-32,-31,-27,-35,-31,-13,-13,-11,7,14,2,-10,-2,8,4,-13,-6,16,19,7,37,69,36,43,77,78
2018-05-14,10:45:37.199,18,-32,-3,0,-11,-37,-294,-434,688,2762,2562,452,-442,-366,-321,-471,-539,-512,-490,-450,-420,-409,-389,-372,-345,-308,-291,-282,-268,-266,-287,-296,-282,-250,-234,-209,-152,-111,-55,31,88,122,131,111,63,33,26,25,22,32,51,39,1,-18,-17,-25,11,0,-12,-14,-7,17,20,25,14,0,-16,-2,13,26,19,40,86,80,51,69,83,43,-9,-11,-10,-30,-30,-136,-463,-277,1478,3065,1728,-121,-463,-327,-391,-550,-572,-540,-518,-474,-448,-427,-380,-347,-349,-307,-294,-291,-311,-299,-283,-286,-305,-280,-229,-169,-128,-74,9,96,131,125,125,80,55,45,28,27,23,5
2018-05-14,10:45:38.237,17,32,8,-9,13,12,14,6,0,-18,-30,-25,-7,-3,-15,-39,-31,-35,-42,-46,-26,-2,48,84,42,23,27,22,-47,-64,-56,-78,-69,-129,-387,-400,828,2640,1895,-3,-514,-315,-353,-474,-457,-418,-410,-404,-374,-375,-347,-315,-301,-295,-266,-240,-234,-221,-215,-195,-195,-178,-133,-99,-58,8,74,116,151,154,120,78,41,9,0,12,1,15,17,47,60,30,37,61,74,54,43,41,43,50,47,49,58,80,83,80,122,131,120,163,209,172,149,184,164,95,92,84,74,64,23,-206,-313,753,2729,2498,400,-433,-320,-249,-382,-475,-443,-407,-373,-348,-333,-307
2018-05-14,10:45:39.274,-279,-267,-243,-223,-215,-215,-213,-210,-203,-208,-204,-187,-152,-128,-102,-60,-4,57,84,84,60,4,-22,-33,-31,-40,-30,-7,-6,-27,-32,-27,-27,-30,-49,-50,-54,-53,-42,-28,-39,-29,-4,-9,-27,-25,-23,1,5,11,54,92,60,36,57,61,1,-23,-23,-41,-51,-76,-307,-480,542,2626,2640,486,-498,-401,-326,-483,-566,-519,-483,-458,-437,-423,-406,-394,-372,-355,-325,-296,-294,-265,-256,-276,-291,-281,-268,-249,-210,-145,-84,-10,44,74,75,54,34,21,11,16,8,11,12,-13,-18,-14,-19,-31,-32,-30,-40,-44,-38,-39,-34,-26,-24,-28,-42,-20,-1,0,-20,-22
2018-05-14,10:45:40.311,-17,-14,29,66,41,35,73,63,-9,-49,-47,-49,-61,-93,-355,-497,645,2794,2639,440,-489,-392,-356,-537,-615,-571,-520,-477,-462,-432,-404,-381,-372,-361,-326,-315,-299,-300,-302,-305,-318,-325,-317,-300,-273,-254,-212,-137,-102,-103,-106,-131,-171,-198,-179,-187,-208,-194,-168,-176,-169,-126,-118,-117,-112,-99,-70,-59,-34,11,56,77,125,172,174,226,290,297,309,345,371,369,415,491,460,434,467,460,387,312,291,287,275,260,98,-180,334,2287,3060,1172,-123,-174,-104,-171,-292,-317,-274,-254,-247,-245,-247,-242,-223,-201,-185,-186,-191,-187,-187,-201,-203,-194,-176,-152,-124,-80,-26,28
2018-05-14,10:45:41.348,88,119,102,63,21,-14,-44,-65,-55,-59,-71,-61,-32,-37,-57,-91,-69,-96,-153,-153,-142,-156,-186,-171,-150,-153,-137,-114,-106,-86,-90,-97,-84,-86,-72,-13,23,50,42,35,52,31,-45,-74,-40,-68,-30,-40,-311,-246,1151,2937,1876,-22,-464,-339,-296,-416,-457,-447,-432,-385,-365,-379,-341,-288,-269,-260,-233,-214,-209,-189,-166,-183,-194,-170,-154,-140,-104,-60,8,66,114,163,145,126,81,32,3,18,35,9,10,11,-13,-17,-28,-40,-38,-23,-42,-43,-54,-68,-57,-62,-79,-64,-56,-42,-44,-56,-72,-74,-64,-47,-37,-19,20,58,35,17,28,30,-40,-73,-58,-55
2018-05-14,10:45:42.386,-46,-44,-249,-375,557,2510,2361,372,-467,-460,-375,-439,-504,-472,-425,-417,-386,-358,-334,-306,-275,-265,-245,-234,-219,-199,-177,-193,-202,-203,-204,-190,-153,-104,-68,-21,32,74,64,63,48,9,-1,-11,-19,-18,-20,-29,-50,-89,-128,-159,-209,-260,-305,-340,-366,-398,-413,-421,-436,-442,-456,-474,-472,-488,-498,-498,-466,-447,-379,-303,-249,-158,-73,-30,2,37,48,17,11,27,35,15,-19,-258,-459,443,2530,2669,679,-285,-288,-256,-364,-564,-534,-300,-209,-253,-324,-372,-342,-308,-231,-182,-135,-86,-30,-1,36,19,-8,20,43,59,115,175,223,277,304,286,263,245,247,241,243,254
2018-05-14,10:45:43.423,244,239,239,238,221,214,185,150,157,165,143,137,142,151,157,162,171,176,175,169,165,160,158,144,130,125,120,133,171,199,163,146,150,135,61,25,30,21,11,-49,-344,-460,781,2845,2329,264,-418,-309,-329,-531,-602,-561,-499,-437,-403,-372,-343,-304,-285,-262,-236,-208,-206,-208,-196,-206,-195,-188,-172,-145,-94,-43,15,85,137,149,120,69,38,21,22,-6,-18,-4,-21,-27,-44,-68,-58,-36,-40,-48,-38,-31,-46,-32,-44,-46,-34,-48,-42,-34,-69,-82,-57,-62,-74,-58,-73,-69,-23,-4,-20,-28,-14,-29,-80,-66,-38,-53,-34,-95,-405,-512,759,2946,2497,356
2018-05-14,10:45:44.460,-307,-148,-155,-299,-382,-354,-295,-250,-239,-209,-180,-150,-121,-112,-117,-113,-105,-93,-96,-99,-91,-74,-42,0,53,99,173,243,296,308,293,252,215,199,172,148,151,157,144,147,145,136,126,111,87,80,63,65,46,38,37,16,31,24,3,-9,-2,-18,-25,-16,-32,-10,41,53,22,16,23,-17,-82,-66,-54,-73,-73,-109,-398,-438,845,2635,1706,-127,-495,-324,-303,-429,-493,-455,-398,-386,-367,-343,-316,-289,-264,-248,-236,-229,-228,-235,-225,-210,-209,-200,-184,-167,-140,-88,-40,1,64,78,63,46,23,-8,-30,-18,-15,-14,-19,-10,-21,-27,-34,-36,-26,-26,-22,-13
2018-05-14,10:45:45.497,6,-9,-31,-31,-24,-36,-39,-51,-51,-44,-46,-9,37,16,3,7,22,0,-75,-84,-70,-84,-86,-188,-483,-229,1594,3076,1510,-227,-450,-332,-398,-555,-584,-538,-489,-460,-457,-439,-412,-388,-353,-332,-324,-303,-300,-312,-321,-325,-324,-326,-305,-283,-247,-199,-129,-59,-10,10,8,-1,-15,-42,-70,-79,-90,-88,-89,-113,-130,-135,-133,-128,-147,-142,-124,-129,-102,-70,-63,-40,-32,-13,-2,-3,5,17,45,105,96,79,66,67,39,-10,-2,-4,-14,-15,-129,-487,-212,1776,3405,1833,-51,-398,-314,-413,-574,-582,-552,-522,-488,-464,-454,-418,-359,-305,-282,-271,-272,-265,-248,-231,-234,-225
2018-05-14,10:45:46.535,-197,-193,-154,-90,-35,25,95,153,162,145,127,107,94,81,66,60,74,73,62,56,53,44,34,31,21,16,25,33,42,51,45,34,19,20,40,39,18,44,94,96,64,62,77,42,-18,-30,-12,-12,-7,-114,-417,-283,1431,2998,1552,-164,-435,-293,-316,-458,-490,-453,-412,-400,-378,-357,-338,-329,-307,-272,-265,-254,-230,-238,-228,-217,-207,-168,-140,-99,-53,-20,43,110,149,147,126,92,67,56,48,46,35,24,15,33,31,25,17,41,34,12,35,33,36,43,42,19,26,35,16,18,32,43,92,124,100,97,103,84,23,-11,0,-9,-20,-67,-377,-424
2018-05-14,10:45:47.572,1042,3120,2284,133,-478,-370,-375,-553,-587,-541,-500,-476,-459,-429,-400,-397,-382,-353,-322,-303,-289,-275,-272,-268,-251,-242,-216,-181,-161,-96,-27,24,75,100,104,84,62,44,27,11,12,20,10,2,-8,-18,-27,-21,-6,-12,-35,-30,-20,-12,-23,-27,-18,-15,-21,-14,-21,-17,-11,-3,47,87,45,20,59,38,-31,-64,-34,-35,-59,-85,-380,-502,803,3000,2580,351,-491,-401,-380,-552,-621,-580,-538,-512,-474,-444,-422,-399,-368,-344,-346,-345,-312,-285,-291,-292,-292,-295,-263,-218,-160,-91,-41,28,79,88,78,70,63,35,20,23,10,-3,9,10,4,-2,2,6,-7,-8
2018-05-14,10:45:48.609,-21,0,-3,-17,-26,16,17,14,16,14,21,13,0,7,41,81,98,69,75,88,47,-8,-7,3,0,-26,-117,-464,-278,1554,3235,1867,-35,-416,-295,-371,-552,-582,-536,-492,-464,-433,-408,-388,-356,-322,-284,-272,-262,-245,-238,-247,-236,-229,-221,-179,-134,-85,-25,32,95,129,122,97,57,26,-4,-21,0,-2,-7,-13,-15,-17,-19,-4,-13,-12,-20,-6,-11,-20,-6,0,-5,8,4,8,0,-1,-1,7,4,10,45,89,55,22,53,64,-20,-54,-40,-50,-59,-77,-257,-503,233,2272,2533,573,-433,-361,-274,-379,-488,-477,-448,-440,-396,-354,-302,-274,-296,-270,-284,-175
2018-05-14,10:45:49.646,-116,-143,-139,-133,-155,-163,-118,-92,-60,13,79,133,180,200,173,135,111,86,65,63,57,64,87,87,77,66,59,74,81,68,68,79,72,78,81,94,107,96,85,102,95,72,80,84,100,83,84,135,120,88,91,101,37,-25,-6,18,-2,-23,-136,-434,-110,1718,3062,1532,-192,-479,-350,-388,-540,-543,-502,-481,-464,-423,-392,-373,-348,-325,-306,-283,-265,-266,-256,-254,-261,-265,-261,-233,-208,-169,-109,-45,20,88,103,82,63,29,-3,-20,-14,-16,-6,-2,-13,-23,-23,-10,-27,-46,-54,-43,-37,-26,-26,-33,-24,-19,-17,-22,-16,2,24,18,14,-1,-4,14
2018-05-14,10:45:50.684,54,83,70,61,80,75,19,-22,-26,-22,-20,-36,-227,-476,226,2279,2969,1015,-342,-409,-325,-467,-600,-552,-516,-503,-464,-427,-389,-370,-352,-322,-313,-285,-263,-263,-259,-251,-248,-248,-239,-196,-163,-110,-49,7,72,132,122,81,52,33,20,3,21,8,4,1,10,3,-10,-15,-2,8,0,-7,2,7,3,-3,0,8,13,14,7,-3,-4,10,4,-9,15,0,-7,45,69,46,45,62,51,8,-7,-17,-39,-32,-53,-305,-450,600,2641,2365,231,-517,-336,-304,-438,-511,-487,-453,-406,-356,-353,-356,-350,-325,-310,-283,-259,-257,-243,-234,-223,-226,-203,-152,-152,-114,-63,-9
2018-05-14,10:45:51.721,61,92,103,79,55,21,-16,-46,-30,-14,-16,-7,-15,-29,-14,-18,-30,-33,-24,-34,-21,-6,-19,-13,0,-2,10,20,0,0,2,-4,-2,-5,2,42,35,43,98,91,55,45,71,62,-24,-47,-27,-17,-17,-80,-325,-361,987,2892,2033,38,-455,-303,-291,-436,-505,-470,-445,-427,-402,-358,-339,-320,-287,-267,-233,-214,-200,-183,-178,-179,-191,-193,-151,-128,-98,-52,20,80,130,158,147,110,62,48,55,49,37,30,40,61,49,32,13,20,21,2,0,8,7,15,15,15,17,26,27,38,42,49,39,32,45,41,45,41,22,35,54,50,36,51,70,41
2018-05-14,10:45:52.758,-9,-7,3,-2,-13,-89,-398,-259,1357,3077,1973,25,-446,-330,-381,-561,-566,-509,-488,-470,-438,-420,-387,-364,-317,-292,-292,-277,-283,-277,-257,-258,-265,-255,-232,-200,-159,-106,-49,15,70,99,103,103,81,47,22,16,34,46,32,33,46,23,19,19,7,22,12,3,-10,1,2,0,-3,-4,0,0,-1,-5,1,3,10,4,-9,-10,-10,8,50,27,9,47,52,9,-41,-34,-27,-31,-37,-141,-438,-196,1502,3038,1715,-145,-492,-327,-387,-581,-579,-516,-493,-458,-442,-431,-386,-344,-340,-314,-294,-276,-259,-233,-222,-222,-216,-199,-172,-138,-82,-35,5,79,154,154,125,81
2018-05-14,10:45:53.795,90,33,7,19,0,-19,-35,-33,-17,-25,-22,-27,-50,-54,-61,-71,-76,-61,-62,-77,-82,-81,-75,-59,-57,-66,-91,-83,-87,-93,-78,-75,-62,-21,-37,-32,0,-7,-73,-118,-92,-59,-68,-84,-214,-470,22,1963,2838,928,-363,-340,-219,-304,-418,-401,-390,-347,-295,-296,-283,-255,-209,-181,-168,-149,-119,-107,-111,-108,-95,-68,-65,-38,13,53,109,170,237,288,281,256,227,190,169,152,145,149,150,149,135,126,125,116,123,107,84,96,103,96,76,83,80,79,87,90,97,84,59,44,43,26,20,17,22,82,93,64,68,95,61,11,-1,-14,-19,-17,-168,-513
2018-05-14,10:45:54.833,64,2227,3100,1056,-365,-434,-341,-461,-577,-561,-525,-513,-492,-460,-438,-405,-387,-373,-343,-329,-323,-303,-300,-309,-300,-299,-297,-274,-223,-170,-131,-65,14,80,85,85,77,39,12,32,31,9,2,10,9,-5,-17,-3,-17,-39,-49,-36,-51,-55,-49,-36,-45,-36,-15,-6,-14,-38,-36,-37,-48,-42,-45,-48,17,82,23,5,35,24,-25,-60,-52,-58,-71,-79,-320,-506,600,2738,2639,481,-454,-381,-356,-531,-583,-552,-515,-473,-449,-437,-401,-368,-357,-343,-311,-271,-268,-265,-268,-255,-255,-257,-238,-197,-143,-97,-52,15,85,115,124,117,80,41,49,41,23,25,6,24,25,6
2018-05-14,10:45:55.870,25,14,-1,-12,-12,-8,-13,-21,-22,1,14,-2,-3,2,5,5,-14,-24,-10,-4,2,40,52,29,26,45,-4,-58,-50,-40,-63,-66,-152,-440,-182,1518,2716,1161,-376,-507,-327,-337,-482,-512,-479,-451,-412,-409,-378,-341,-319,-315,-292,-267,-242,-235,-229,-231,-218,-222,-202,-171,-142,-99,-32,42,100,134,145,116,84,56,30,15,2,12,24,22,13,21,22,25,19,17,20,24,14,9,18,40,51,42,45,49,58,51,52,40,39,51,123,131,78,91,96,60,9,16,2,-7,-5,-122,-413,-101,1741,3132,1618,-168,-472,-336,-390,-526,-548,-501,-464,-441,-404,-376
2018-05-14,10:45:56.907,-363,-352,-337,-333,-290,-246,-237,-252,-267,-254,-242,-240,-222,-154,-109,-64,-8,60,123,124,110,96,78,39,43,28,42,74,44,32,47,37,28,17,15,28,13,15,39,31,35,44,45,19,26,25,15,15,18,15,51,112,72,67,94,74,23,-38,-36,-31,-38,-46,-170,-469,-21,1947,3129,1392,-270,-455,-330,-445,-594,-573,-522,-485,-440,-431,-406,-380,-354,-317,-286,-290,-266,-248,-247,-258,-254,-257,-244,-211,-154,-110,-68,-1,63,117,113,100,77,41,22,18,21,22,23,2,13,22,17,8,8,-6,-11,-15,-27,-27,-2,-8,-4,-3,-12,-11,-29,-8,-17,-19
2018-05-14,10:46:27.545,-331,-289,-259,-225,-194,-175,-143,-103,-67,-35,3,33,53,94,109,123,153,172,181,193,215,246,250,212,169,142,94,62,54,47,45,28,31,28,27,28,19,-1,-28,-50,-67,-74,-78,-91,-114,-137,-147,-133,-121,-104,-64,-23,24,120,187,198,222,227,197,160,133,94,44,-11,-188,-525,-308,1344,2592,1226,-267,-463,-374,-418,-514,-538,-495,-476,-464,-456,-436,-407,-380,-361,-351,-330,-312,-309,-319,-324,-315,-309,-293,-267,-246,-215,-182,-143,-85,-24,2,-7,-32,-75,-123,-160,-195,-215,-221,-212,-218,-227,-244,-272,-317,-327,-297,-252,-195,-134,-67,8,76,128,146,160,161,113
2018-05-14,10:46:28.583,58,26,26,44,102,140,172,215,208,190,159,188,217,220,214,67,-233,169,2119,3295,1633,145,0,25,-103,-259,-287,-258,-235,-214,-202,-192,-175,-163,-148,-137,-130,-125,-120,-124,-127,-144,-150,-161,-158,-160,-155,-142,-122,-85,-58,-41,-34,-31,-18,-17,-7,6,28,54,69,73,91,106,106,103,68,28,-3,-35,-74,-105,-113,-115,-123,-121,-119,-111,-93,-81,-74,-45,-1,33,34,39,35,-7,-67,-84,-106,-136,-144,-197,-457,-616,308,2273,2119,253,-462,-397,-435,-508,-636,-677,-609,-548,-531,-554,-571,-570,-552,-549,-539,-533,-530,-496,-464,-398,-305,-224,-143,-57,-31,-1,25,40
2018-05-14,10:46:30.020,46,57,74,64,55,51,85,119,116,131,153,149,165,175,188,195,208,227,237,228,231,240,249,251,248,240,207,209,182,176,210,238,231,202,211,188,115,75,64,53,38,17,-98,-391,-297,1068,2425,1270,-258,-510,-429,-412,-440,-484,-432,-344,-281,-239,-187,-132,-81,-51,-38,-20,-45,-81,-117,-172,-223,-242,-250,-241,-216,-189,-153,-102,-58,-17,-9,-34,-65,-96,-116,-131,-149,-184,-180,-182,-203,-230,-262,-288,-300,-310,-347,-344,-329,-365,-333,-283,-289,-264,-251,-236,-238,-256,-306,-321,-314,-345,-420,-417,-366,-435,-532,-442,-319,-270,-132,-34,-154,-291,685,2961,3228,1183,186,125
2018-05-14,10:46:31.057,57,-92,-174,-107,-57,-2,42,101,129,136,151,159,185,201,215,222,216,203,185,168,167,184,182,191,208,227,272,296,284,274,272,244,216,192,156,146,130,93,52,14,3,24,0,-11,-21,-30,-46,-69,-94,-118,-122,-107,-91,-52,-10,22,101,152,163,165,149,78,-20,-100,-147,-204,-240,-262,-462,-670,-48,1781,2050,339,-489,-410,-371,-442,-525,-522,-511,-521,-519,-536,-526,-503,-496,-505,-501,-469,-397,-415,-388,-336,-356,-298,-237,-230,-201,-379,-243,27,4,-50,-85,-136,-176,-198,-359,-424,-379,-368,-312,-178,-53,61,116,173,262,360,394,387,361,316,283,242,199,171
2018-05-14,10:46:32.094,182,195,212,275,325,323,291,303,301,251,224,223,230,226,218,136,-151,-138,1233,3000,2132,309,-143,-78,-123,-222,-273,-258,-236,-238,-217,-196,-181,-151,-132,-139,-142,-142,-141,-134,-138,-132,-125,-126,-144,-154,-142,-118,-79,-27,49,106,119,120,123,124,113,93,65,21,-29,-64,-97,-123,-150,-173,-164,-154,-139,-126,-122,-103,-103,-113,-116,-114,-115,-108,-110,-100,-72,-115,-155,-157,-211,-254,-315,-367,-421,-339,-332,-516,-899,-687,1196,2828,1539,-227,-618,-648,-796,-984,-990,-973,-1003,-951,-910,-916,-920,-883,-843,-801,-733,-657,-545,-435,-307,-183,-73,5,57,124,176,227,285,337,404,476
2018-05-14,10:46:33.132,509,528,524,525,524,529,524,523,525,512,485,489,476,459,457,428,423,401,374,360,345,306,267,251,246,260,298,296,263,257,244,191,121,79,62,31,-7,-36,-206,-440,37,1749,2215,598,-383,-366,-293,-346,-430,-427,-370,-333,-310,-288,-270,-209,-210,-211,-222,-249,-269,-267,-264,-254,-214,-178,-148,-128,-88,-69,-66,-19,19,48,58,20,-20,-61,-100,-120,-136,-161,-174,-175,-190,-201,-241,-272,-279,-228,-158,-184,-208,-245,-233,-234,-255,-292,-293,-285,-252,-265,-266,-255,-282,-484,-570,-353,-238,-259,-266,-282,-515,-572,638,2760,2480,598,-139,-162,-265,-412,-511,-476,-426,-385,-338,-296
2018-05-14,10:46:34.169,-244,-201,-140,-100,-87,-44,-8,-1,12,11,12,10,10,22,26,42,51,72,100,112,95,65,26,-10,-30,-35,-40,-41,-35,-54,-73,-97,-121,-140,-153,-136,-125,-135,-138,-132,-116,-97,-65,-28,24,118,210,212,216,231,210,149,108,88,70,22,-19,-214,-576,-183,1885,3140,1566,-13,-277,-320,-452,-551,-545,-507,-479,-461,-440,-424,-420,-438,-461,-491,-512,-516,-509,-498,-463,-454,-430,-411,-437,-479,-341,-258,-283,-257,-335,-270,-156,-204,-356,-519,-597,-442,-350,-442,-512,-488,-417,-339,-207,-50,104,219,325,396,437,462,473,489,532,588,595,562,570,573,522,464,452,437,425,419
2018-05-14,10:46:35.206,417,224,26,656,2527,2657,898,71,145,197,118,17,1,5,15,20,14,4,8,18,33,51,71,81,81,70,60,65,62,40,16,5,16,40,47,52,50,14,-18,-29,-42,-56,-60,-58,-44,-38,-30,-9,2,6,-17,-31,-63,-82,-119,-158,-209,-202,-242,-256,-233,-177,-125,-126,-116,-98,-125,-180,-217,-247,-267,-326,-330,-462,-749,-599,890,2034,729,-607,-774,-689,-675,-659,-756,-750,-515,-480,-465,-410,-442,-508,-554,-532,-671,-786,-711,-713,-889,-1052,-1048,-893,-726,-508,-394,-324,-224,-110,-33,2,25,39,40,35,31,22,52,98,158,224,284,355,391,419,455,480,513,540
2018-05-14,10:46:36.243,564,568,589,585,615,665,668,641,624,584,525,460,426,405,372,327,246,25,35,1053,2292,1408,-3,-254,-216,-227,-190,-240,-246,-242,-236,-225,-228,-231,-243,-220,-186,-173,-141,-92,-50,-27,3,37,37,33,27,0,-47,-91,-105,-108,-121,-135,-146,-177,-204,-204,-194,-191,-179,-155,-164,-184,-189,-173,-154,-152,-170,-173,-179,-197,-222,-266,-391,-400,-209,-179,-237,-249,-215,-257,-338,-314,-260,-306,-376,-348,-537,-768,-40,1846,2093,299,-785,-1069,-1019,-798,-873,-886,-721,-568,-473,-392,-279,-167,-95,-64,-45,-35,-49,-55,-49,-33,-12,25,95,160,213,282,343,383,412,461,479,476,482,462
2018-05-14,10:46:37.281,440,421,425,419,406,406,387,374,354,336,306,267,240,217,182,158,148,126,135,160,175,142,109,85,53,-13,-64,-55,-76,-97,-105,-255,-561,-235,1617,2813,1340,-110,-291,-205,-249,-358,-368,-339,-347,-358,-389,-418,-420,-428,-442,-448,-439,-421,-396,-345,-324,-285,-236,-199,-164,-108,-78,-77,-69,-24,-15,-27,-55,-93,-150,-196,-242,-266,-257,-282,-353,-389,-274,-242,-228,-236,-253,-243,-251,-281,-320,-348,-382,-271,-167,-216,-248,-200,-279,-452,-461,-407,-361,-292,-167,-129,-341,-505,609,2708,2446,553,-192,-152,-189,-265,-322,-271,-195,-130,-90,-46,-26,30,62,86,109,154,186,217,241,272
2018-05-14,10:46:38.318,297,296,318,339,346,348,353,379,396,372,331,292,234,199,165,124,95,73,37,8,-32,-60,-56,-38,-50,-72,-83,-93,-119,-131,-117,-61,21,16,35,69,78,55,36,66,96,84,56,-114,-411,-153,1398,2117,561,-554,-597,-545,-544,-547,-555,-511,-476,-431,-415,-405,-390,-383,-394,-396,-420,-429,-440,-463,-467,-461,-443,-437,-434,-371,-332,-332,-338,-341,-442,-560,-781,-867,-854,-972,-1066,-1067,-1130,-1224,-1338,-1482,-1624,-1528,-1443,-1102,-811,-584,-380,-243,121,481,676,835,972,1123,1183,1191,1210,1188,1148,1147,1175,1193,1145,858,753,1916,3874,3481,1454,667,643,599,463,346,332,301,290,262
2018-05-14,10:46:39.355,243,206,188,184,169,144,119,96,82,68,51,43,26,-11,-39,-56,-75,-84,-64,-20,-12,-45,-83,-119,-151,-178,-193,-206,-209,-195,-161,-135,-105,-52,-22,6,28,28,2,-36,-73,-110,-116,-91,-91,-140,-162,-151,-177,-231,-240,-205,-202,-202,-248,-546,-680,522,2724,2540,474,-418,-497,-611,-796,-929,-942,-945,-939,-934,-866,-786,-732,-676,-665,-693,-727,-730,-833,-901,-913,-1086,-1190,-1295,-1471,-1567,-1615,-1711,-1582,-1285,-1124,-1045,-913,-689,-470,-281,-121,72,196,306,393,460,555,672,765,843,919,986,1035,1087,1125,1144,1200,1260,1255,1240,1243,1224,1163,1077,1045,1009,949,870,644,381,840,2578
2018-05-14,10:46:40.392,2829,976,130,169,198,197,129,94,81,53,25,11,-22,-83,-137,-156,-173,-203,-223,-219,-253,-268,-261,-250,-228,-190,-135,-86,-19,80,158,200,218,202,163,110,58,21,-18,-79,-139,-193,-233,-273,-325,-353,-369,-375,-355,-350,-314,-278,-238,-218,-169,-100,-131,-140,-153,-222,-283,-306,-340,-438,-421,-330,-564,-818,-17,2060,2434,546,-452,-526,-582,-592,-670,-688,-702,-717,-636,-574,-581,-603,-588,-555,-563,-562,-532,-492,-443,-390,-327,-265,-210,-173,-133,-79,-33,23,86,135,151,130,158,152,146,160,181,205,237,256,262,276,288,306,311,310,303,279,248,232,228,230,281,327,301,266
2018-05-14,10:46:41.430,270,259,202,151,148,133,116,73,-172,-381,447,2376,2426,492,-401,-388,-355,-441,-554,-560,-535,-511,-461,-400,-339,-290,-236,-173,-97,-44,-20,-23,-45,-77,-115,-151,-182,-185,-165,-154,-99,-14,42,70,80,81,46,42,0,-23,-32,-30,-99,-172,-257,-205,-188,-221,-244,-248,-258,-254,-225,-201,-195,-188,-141,-140,-225,-161,-151,-322,-392,-249,-227,-306,-285,-356,-728,-623,1106,2641,1289,-346,-621,-469,-475,-574,-592,-446,-395,-380,-380,-369,-364,-335,-285,-252,-208,-161,-119,-82,-46,-9,37,62,86,136,179,230,287,347,392,396,357,305,268,228,205,194,198,179,132,117,119,118,144,153
2018-05-14,10:46:42.467,150,148,133,120,77,47,58,74,9,-41,-60,-75,-126,-182,-195,-178,-155,-163,-305,-409,242,1978,2141,476,-181,-55,9,-6,-89,-130,-136,-163,-196,-219,-265,-313,-333,-333,-334,-310,-261,-219,-188,-177,-158,-143,-119,-108,-111,-119,-100,-90,-82,-119,-207,-256,-269,-446,-375,-299,-279,-338,-352,-331,-312,-262,-258,-314,-188,-117,-211,-232,-191,-205,-203,-173,-126,-81,-79,-39,31,78,71,84,131,166,190,115,-213,-236,1205,3101,2282,347,-224,-213,-232,-348,-403,-340,-294,-274,-237,-194,-133,-109,-66,-36,-24,-6,14,22,33,57,78,82,82,67,60,72,104,129,152,154,129,82,45,19
2018-05-14,10:46:43.504,-2,-25,-38,-64,-79,-79,-85,-89,-105,-107,-101,-97,-109,-100,-76,-40,-22,16,86,134,147,153,170,124,38,0,-29,-53,-95,-242,-560,-277,1564,2857,1348,-161,-377,-339,-397,-514,-551,-541,-535,-513,-500,-494,-510,-513,-530,-534,-566,-609,-547,-530,-563,-470,-432,-370,-318,-284,-257,-236,-173,-123,-134,-170,-319,-427,-201,-167,-288,-368,-373,-389,-365,-296,-199,-92,4,68,132,173,190,182,160,133,152,206,225,223,259,292,299,273,286,310,330,329,226,17,329,1933,2672,1053,33,13,79,61,9,-29,-31,-26,-27,-14,-8,-7,-8,0,25,21,17,20,23,19,-19,-49,-58,-57
2018-05-14,10:46:44.541,-64,-57,-39,14,69,61,37,-8,-41,-59,-53,-42,-7,33,52,63,71,91,99,111,91,53,16,-18,-39,-62,-92,-102,-49,0,7,-8,2,28,5,-33,-12,-15,-26,-90,-361,-537,393,2304,2167,199,-592,-505,-537,-555,-657,-670,-619,-573,-570,-567,-535,-525,-588,-654,-573,-445,-446,-522,-491,-425,-397,-413,-435,-440,-421,-322,-232,-90,2,61,58,135,145,100,47,-3,-46,-73,-91,-95,-80,-42,11,55,102,146,175,190,200,221,235,269,337,392,369,353,377,351,303,294,295,286,274,110,-211,139,1996,3031,1380,-69,-227,-161,-224,-370,-402,-362,-353,-366,-362,-333,-344,-324
2018-05-14,10:46:45.579,-309,-299,-307,-309,-324,-310,-264,-216,-169,-106,-43,20,65,123,202,244,273,253,180,106,25,-46,-104,-123,-134,-150,-166,-176,-170,-149,-152,-132,-128,-119,-83,-87,-113,-130,-124,-105,-92,-152,-220,-251,-315,-418,-504,-567,-493,-537,-641,-870,-895,370,2183,1305,-375,-773,-810,-874,-895,-970,-1021,-939,-756,-784,-892,-848,-748,-649,-534,-384,-240,-98,17,107,200,255,286,314,351,407,449,514,585,645,662,634,594,553,514,477,461,462,454,456,450,440,446,444,409,387,399,374,351,350,317,353,367,330,278,307,334,247,149,104,51,31,-19,-205,-397,146,1804,1944,253,-465,-370,-314
2018-05-14,10:46:46.616,-293,-379,-407,-374,-341,-316,-279,-238,-191,-132,-79,-47,-14,-7,-45,-72,-60,-103,-111,-82,-80,-71,-41,-9,42,82,77,48,3,-80,-87,-113,-149,-165,-178,-192,-198,-191,-174,-202,-209,-185,-176,-201,-217,-214,-186,-188,-180,-100,-27,-26,-31,-35,-61,-97,-75,-67,-136,-173,-366,-652,-110,1932,2887,1084,-298,-483,-464,-478,-518,-444,-359,-290,-192,-135,-112,-80,-70,-85,-114,-124,-141,-169,-174,-151,-146,-128,-112,-97,-53,-3,56,97,146,176,171,140,112,94,65,30,40,15,6,-14,-9,-4,-9,-6,-24,-50,-45,-21,-31,-37,-46,-33,13,29,-20,-32,-30,-97,-169,-166,-147,-161
2018-05-14,10:46:47.653,-190,-354,-619,-194,1671,2459,773,-333,-316,-202,-214,-305,-288,-207,-178,-227,-239,-321,-371,-322,-284,-266,-255,-206,-159,-121,-91,-36,-12,13,52,65,94,121,158,211,213,165,73,28,-35,-87,-96,-121,-166,-184,-156,-163,-174,-188,-160,-122,-110,-171,-138,-73,-44,-35,-38,-131,-128,-74,31,69,-29,-63,-86,-111,-134,-364,-349,873,2505,1696,62,-209,-52,-79,-174,-273,-275,-284,-292,-287,-290,-296,-275,-213,-186,-122,-74,-51,-50,-39,-39,-28,-12,-13,-8,30,69,95,110,114,108,60,-6,-63,-113,-123,-140,-141,-146,-108,-111,-123,-127,-116,-133,-145,-172,-197,-176,-181,-186,-149,-93,-97
2018-05-14,10:46:48.690,-122,-92,-78,-67,-86,-63,-26,8,2,-202,-352,590,2606,2569,420,-516,-554,-628,-699,-717,-697,-604,-526,-481,-427,-329,-235,-196,-154,-121,-99,-96,-95,-75,-63,-80,-74,-89,-86,-53,-34,-30,-11,39,99,118,72,41,44,64,57,39,47,28,9,-11,-5,2,-14,-1,-11,-57,-89,-78,-18,46,85,101,140,200,189,128,72,43,22,5,-92,-442,-356,1230,2695,1334,-232,-402,-278,-265,-296,-328,-307,-259,-228,-206,-180,-151,-128,-119,-120,-121,-109,-76,-46,-31,-35,-12,-17,-5,16,24,55,70,83,97,66,3,-45,-101,-171,-208,-226,-214,-209,-200,-212,-203,-196,-176,-163,-126
2018-05-14,10:46:49.728,-57,-12,50,107,174,226,206,192,184,118,-1,-90,-143,-229,-263,-317,-542,-325,1174,2325,1016,-266,-354,-225,-304,-374,-438,-461,-522,-643,-525,-441,-539,-573,-539,-538,-589,-577,-561,-596,-593,-528,-560,-518,-475,-445,-309,-167,-128,-107,-115,-161,-255,-368,-449,-480,-568,-575,-551,-545,-498,-400,-243,-64,124,281,399,469,514,523,519,513,516,519,474,454,510,532,507,507,543,556,567,466,162,342,1967,3426,2203,518,182,232,162,22,-68,-74,-73,-101,-125,-121,-143,-150,-146,-159,-169,-179,-174,-178,-196,-195,-193,-186,-185,-194,-213,-216,-201,-180,-143,-131,-151,-177,-180,-189,-195,-155,-133,-108
2018-05-14,10:46:50.765,-68,-21,-3,7,36,38,11,-28,-70,-136,-198,-219,-183,-147,-128,-76,0,34,42,76,133,171,157,43,-272,-117,1742,3430,2029,265,-91,-114,-274,-485,-604,-567,-498,-489,-469,-466,-450,-462,-465,-451,-467,-460,-503,-659,-543,-418,-447,-482,-509,-523,-542,-547,-494,-508,-453,-309,-200,-126,-51,70,151,180,194,203,187,160,143,129,151,177,190,205,217,209,215,242,273,266,255,272,272,238,199,210,214,216,172,-56,-165,732,2423,2003,255,-301,-193,-198,-274,-357,-365,-356,-367,-362,-337,-338,-354,-361,-373,-380,-388,-392,-382,-354,-342,-340,-315,-288,-254,-216,-171,-97,-6,70,135,167
2018-05-14,10:46:51.802,184,167,135,109,50,-18,-88,-153,-199,-222,-230,-222,-183,-133,-99,-63,-28,-16,32,111,158,148,113,122,90,-13,-87,-82,-209,-314,-291,-667,-697,728,2464,1519,-264,-713,-711,-798,-919,-890,-832,-785,-790,-709,-615,-690,-687,-702,-818,-704,-405,-280,-246,-240,-149,0,111,257,359,475,591,683,750,741,694,624,509,411,374,333,313,319,339,343,344,334,316,310,290,282,287,271,271,276,271,306,340,334,292,284,265,189,115,94,64,22,-42,-283,-529,241,2296,2440,412,-525,-471,-431,-558,-672,-655,-593,-560,-537,-540,-514,-500,-444,-453,-383,-289,-249,-178,-86,31,83,139,176
2018-05-14,10:46:52.839,210,245,237,199,186,172,130,60,-5,-49,-70,-73,-65,-61,-54,-54,-56,-71,-105,-127,-155,-191,-228,-233,-260,-294,-298,-274,-320,-418,-413,-412,-435,-539,-585,-559,-546,-588,-813,-1004,-464,1182,1442,-150,-1012,-1144,-1253,-1313,-1403,-1422,-1350,-1233,-1082,-872,-633,-389,-165,28,159,261,373,463,505,567,667,723,778,847,906,961,1031,1078,1110,1110,1053,976,915,845,779,746,712,670,652,613,543,509,489,456,404,370,311,263,208,159,133,144,171,116,79,87,46,-28,-113,-123,-166,-222,-285,-528,-541,567,2009,1277,-269,-643,-611,-555,-524,-532,-490,-432,-373,-335,-299,-247,-203,-206,-210,-250
2018-05-14,10:46:53.877,-278,-302,-334,-349,-309,-253,-182,-109,-35,11,52,112,150,206,214,199,134,101,107,76,35,7,-56,-78,-85,-111,-169,-214,-255,-238,-285,-330,-324,-267,-250,-212,-167,-174,-198,-233,-188,-271,-378,-384,-411,-447,-472,-707,-975,-265,2045,2768,841,-263,-286,-217,-247,-340,-309,-269,-256,-258,-252,-228,-167,-134,-114,-79,-43,-18,3,21,52,77,99,121,171,194,206,241,281,315,327,292,222,166,98,43,12,-32,-70,-94,-118,-112,-123,-125,-121,-121,-126,-115,-132,-135,-147,-107,-52,-57,-71,-63,-73,-112,-154,-122,-76,-50,1,-59,-309,10,1849,3234,1775,149,-76,-54,-195,-371,-423,-400
2018-05-14,10:46:54.914,-389,-363,-321,-270,-217,-180,-140,-107,-70,-58,-36,-15,-9,16,49,53,48,71,81,88,86,90,75,36,-26,-104,-151,-200,-253,-243,-277,-245,-263,-322,-367,-398,-538,-600,-565,-543,-593,-635,-616,-661,-668,-684,-718,-516,-383,-357,-316,-224,-161,-111,-105,-299,-442,314,1955,1683,139,-389,-301,-254,-212,-227,-223,-178,-149,-92,-56,-23,16,47,99,176,218,245,285,331,357,373,379,385,381,375,373,378,378,360,321,255,200,142,88,48,-1,-28,-53,-74,-97,-98,-96,-104,-94,-94,-75,-61,-64,-65,-35,53,152,197,220,280,316,303,292,303,300,270,183,-80,-169,770,2233,1445
2018-05-14,10:46:55.951,-161,-407,-321,-248,-130,-135,-100,-50,-25,-23,-5,-3,-3,3,-11,-58,-97,-149,-194,-232,-279,-328,-365,-343,-307,-262,-278,-274,-68,57,33,-63,-114,-185,-276,-349,-359,-418,-490,-356,-299,-400,-388,-394,-438,-467,-317,-204,-145,-104,-50,34,159,194,228,297,286,214,121,78,40,16,-4,-196,-313,661,2595,2466,575,-162,-138,-61,-15,-86,-71,-29,-12,-3,14,43,76,82,89,81,53,46,31,-2,-28,-45,-63,-64,-55,-53,-37,-27,-8,-2,-27,-87,-138,-208,-241,-268,-296,-307,-320,-322,-315,-293,-270,-227,-163,-100,-33,18,53,88,93,83,93,67,-27,-104,-125,-170,-231,-248
2018-05-14,10:46:56.988,-216,-181,-151,-207,-463,-363,1115,2650,1576,-17,-372,-354,-389,-457,-532,-545,-550,-603,-600,-575,-572,-589,-578,-567,-697,-679,-402,-383,-429,-411,-398,-424,-371,-320,-317,-245,-125,-119,-158,-279,-274,-281,-373,-421,-358,-260,-180,-91,-42,0,46,84,112,108,77,49,21,14,7,34,115,207,234,255,275,268,228,182,198,224,241,210,-13,-156,854,2919,2660,581,-112,-56,-66,-180,-293,-286,-273,-278,-287,-292,-252,-221,-209,-209,-200,-197,-210,-220,-207,-206,-206,-197,-188,-169,-153,-109,-100,-77,-42,-43,-52,-58,-35,-10,21,82,120,161,192,192,162,135,76,-25,-84,-106,-124,-119,-107,-89
2018-05-14,10:46:58.026,-15,67,96,110,140,126,91,58,52,47,38,-43,-367,-532,659,2864,2516,343,-486,-505,-588,-750,-878,-827,-790,-781,-767,-789,-744,-689,-657,-629,-546,-526,-550,-580,-647,-700,-694,-631,-535,-386,-320,-282,-134,82,196,208,201,184,185,165,136,83,28,-9,-40,-33,-9,33,83,121,145,166,196,231,275,348,381,371,378,408,391,344,334,343,332,324,182,-41,282,1801,2253,646,-260,-233,-150,-138,-134,-146,-134,-129,-134,-129,-150,-170,-177,-180,-176,-171,-151,-129,-110,-98,-96,-78,-48,9,76,135,214,291,330,343,322,262,197,109,17,-63,-156,-256,-328,-356,-354,-318,-273,-225
2018-05-14,10:46:59.063,-189,-166,-130,-128,-102,-38,10,-11,-49,-46,-97,-142,-156,-175,-193,-200,-308,-597,-501,805,2074,935,-400,-590,-553,-531,-516,-556,-552,-591,-558,-563,-604,-559,-488,-432,-417,-435,-481,-465,-413,-430,-372,-184,-78,-46,127,282,371,476,502,484,418,304,167,88,40,58,107,141,180,214,245,257,276,282,291,288,312,332,353,410,469,470,463,485,451,356,299,273,235,195,90,-207,-120,1305,2619,1383,-121,-383,-338,-267,-329,-429,-425,-420,-437,-437,-432,-397,-362,-366,-362,-349,-335,-287,-235,-175,-120,-60,1,66,133,193,229,242,264,229,132,25,-64,-137,-169,-181,-165,-135,-115,-89
2018-05-14,10:47:00.100,-82,-64,-42,-41,-30,-31,-53,-52,-22,7,13,-38,-55,-45,-105,-191,-242,-264,-284,-303,-444,-775,-485,1489,3101,1449,-249,-475,-484,-597,-770,-796,-747,-783,-964,-816,-631,-721,-736,-654,-613,-558,-444,-319,-207,-95,21,106,138,152,138,126,144,164,205,227,223,217,218,224,228,229,236,244,236,210,209,205,212,228,229,245,254,285,322,363,342,307,314,281,202,135,117,79,60,-31,-256,-154,1085,2167,952,-327,-438,-331,-301,-289,-355,-347,-339,-314,-284,-262,-264,-248,-195,-145,-82,-10,60,131,193,249,288,297,276,218,154,97,45,-10,-73,-144,-202,-237,-242,-243,-235,-223
2018-05-14,10:47:01.137,-208,-204,-203,-205,-188,-213,-233,-236,-248,-254,-236,-211,-218,-275,-303,-343,-402,-464,-447,-432,-449,-450,-647,-733,117,1924,1464,-229,-647,-593,-684,-686,-674,-646,-594,-637,-660,-647,-624,-585,-464,-347,-248,-146,-24,95,188,256,306,356,376,370,382,401,445,491,508,504,474,436,406,388,398,396,383,372,367,356,355,338,327,317,298,294,286,300,336,335,280,242,220,140,50,5,-8,-22,-42,-206,-416,145,1870,2233,496,-452,-489,-433,-425,-521,-520,-511,-488,-481,-447,-384,-325,-270,-188,-109,-60,-25,17,46,34,5,-22,-59,-96,-106,-107,-87,-36,5,-3,-44,-67,-70,-73,-94
2018-05-14,10:47:02.175,-89,-86,-62,-50,-60,-71,-96,-104,-143,-162,-203,-236,-235,-228,-221,-248,-246,-224,-276,-341,-300,-329,-347,-311,-475,-848,-530,1667,2722,811,-521,-712,-774,-931,-1067,-1027,-1054,-975,-830,-735,-667,-554,-404,-317,-216,-103,-76,0,34,81,100,115,156,259,398,487,573,657,698,680,634,571,519,489,453,435,421,401,380,369,350,329,323,308,294,268,276,307,322,257,212,211,147,56,8,12,-7,-14,-126,-293,-102,1099,1884,567,-446,-458,-376,-377,-374,-436,-431,-387,-340,-277,-211,-142,-55,11,62,106,132,139,100,32,-34,-87,-129,-165,-148,-105,-45,20,81,88,49,6,-56,-104
2018-05-14,10:47:03.212,-129,-164,-172,-190,-217,-214,-233,-253,-289,-339,-372,-384,-397,-368,-314,-320,-348,-341,-338,-463,-543,-495,-398,-283,-315,-648,-873,24,2059,1845,-13,-728,-891,-838,-721,-740,-677,-551,-422,-303,-173,-79,-3,76,129,143,127,123,126,121,146,186,234,308,368,423,471,512,547,553,493,459,415,378,354,333,300,305,310,290,254,224,193,159,116,94,55,25,42,72,48,18,26,7,-37,-82,-93,-112,-129,-202,-462,-494,727,2463,1701,-110,-561,-486,-459,-555,-598,-524,-448,-368,-297,-217,-151,-97,-48,-46,-78,-133,-200,-251,-285,-302,-276,-223,-158,-92,-23,52,140,200,217,178,105,49
2018-05-14,10:47:04.249,2,-29,-77,-116,-194,-243,-259,-304,-348,-358,-366,-357,-350,-358,-324,-242,-205,-274,-333,-275,-341,-455,-474,-547,-558,-525,-753,-1173,-499,1858,2173,202,-731,-710,-727,-725,-726,-633,-481,-352,-224,-160,-127,-111,-77,-44,-15,26,65,132,190,274,349,424,458,483,535,605,666,706,732,707,659,610,558,505,472,456,440,411,391,365,324,289,252,236,210,194,221,269,254,209,178,154,79,0,-47,-79,-103,-140,-329,-414,388,1909,1534,-63,-509,-426,-388,-289,-318,-282,-216,-164,-117,-71,-64,-81,-106,-149,-206,-270,-306,-300,-273,-238,-183,-135,-100,-42,22,83,152,181,187,129,59,17
2018-05-14,10:47:05.286,-60,-143,-183,-236,-291,-332,-367,-392,-394,-411,-449,-479,-388,-345,-351,-281,-203,-193,-229,-207,-180,-287,-356,-358,-402,-402,-482,-922,-513,1533,2900,1314,-222,-514,-468,-440,-441,-364,-270,-194,-108,-73,-80,-85,-84,-81,-68,-53,-32,0,38,80,109,140,166,191,236,284,332,385,423,417,382,330,284,244,224,198,171,147,106,82,52,26,-1,-23,-34,-37,-45,-30,3,16,5,-15,-14,-56,-125,-158,-161,-185,-189,-320,-577,-191,1581,2433,776,-384,-389,-282,-293,-371,-353,-309,-284,-291,-298,-303,-319,-326,-323,-308,-272,-233,-189,-134,-78,-25,6,58,99,110,121,154,167,112,36,-75
2018-05-14,10:47:06.324,-183,-289,-388,-463,-514,-553,-609,-638,-624,-610,-619,-599,-571,-528,-485,-534,-472,-371,-520,-375,-177,-317,-490,-613,-518,-420,-500,-704,-1026,-655,1005,2092,796,-291,-330,-185,-99,-46,-21,16,49,53,51,86,125,173,229,292,332,361,381,404,430,449,480,524,556,594,631,679,711,712,656,558,451,352,274,217,155,119,108,92,73,79,79,39,27,-12,-44,-70,-85,-78,-40,-44,-94,-114,-128,-178,-252,-249,-238,-253,-294,-495,-581,414,2257,1990,180,-341,-198,-90,-125,-204,-214,-241,-300,-383,-459,-512,-524,-493,-453,-413,-369,-302,-239,-182,-123,-87,-36,13,35,75,106,129,143,110
2018-05-14,10:47:07.361,13,-101,-227,-351,-454,-515,-560,-599,-605,-608,-610,-610,-557,-493,-533,-505,-422,-443,-440,-469,-524,-647,-674,-496,-473,-545,-565,-545,-437,-295,-358,-450,499,2729,3048,1101,117,79,89,28,-43,0,74,146,229,305,342,390,427,447,455,449,464,495,525,550,553,569,570,590,602,624,628,605,581,512,417,324,230,147,95,59,28,-1,-26,-69,-100,-140,-155,-188,-198,-208,-227,-209,-142,-104,-137,-159,-162,-186,-209,-171,-108,-56,-21,-88,-213,235,1732,2028,393,-392,-386,-459,-517,-547,-588,-556,-508,-463,-418,-366,-332,-291,-261,-242,-241,-240,-221,-210,-218,-208,-186,-189,-197,-217,-232,-234
2018-05-14,10:47:08.398,-273,-338,-422,-522,-614,-663,-685,-669,-654,-623,-604,-582,-574,-581,-601,-594,-597,-623,-633,-621,-651,-687,-680,-673,-694,-664,-474,-357,-266,-120,28,166,265,184,-74,335,2260,3299,1681,393,267,329,365,316,332,381,418,436,458,494,493,500,482,476,452,435,408,376,351,320,299,292,292,280,284,303,327,348,308,241,181,127,82,42,-10,-47,-97,-138,-153,-195,-228,-231,-217,-215,-238,-232,-221,-242,-223,-149,-76,-35,7,73,109,118,129,168,168,146,5,-363,-329,1292,2856,1534,-189,-531,-488,-504,-563,-567,-518,-468,-422,-385,-336,-297,-262,-264,-287,-303,-296,-309,-321,-345,-361,-338
2018-05-14,10:47:09.435,-330,-344,-341,-329,-322,-298,-292,-339,-336,-331,-430,-440,-425,-466,-529,-606,-648,-687,-763,-828,-889,-1001,-966,-940,-901,-772,-626,-485,-295,-162,-65,25,113,98,53,68,95,132,147,17,-104,577,2339,2675,1117,366,459,532,601,617,629,681,695,692,706,696,669,653,635,598,563,534,500,466,434,378,342,306,271,259,259,270,256,221,142,43,-50,-121,-160,-226,-250,-269,-282,-284,-262,-254,-245,-233,-196,-148,-100,-65,11,61,117,198,243,214,167,108,-18,-148,-201,-242,-249,-245,-366,-532,5,1668,2010,471,-338,-356,-364,-379,-424,-444,-458,-482,-512,-553,-613,-665,-715,-760,-782,-814
2018-05-14,10:47:10.473,-828,-834,-797,-714,-669,-591,-527,-468,-365,-312,-320,-292,-265,-319,-388,-445,-491,-558,-630,-683,-719,-704,-622,-544,-446,-338,-197,-47,81,170,236,264,257,300,379,457,486,525,564,543,517,525,536,581,606,473,246,748,2710,3526,1794,611,442,406,326,179,143,156,125,100,104,94,103,84,56,46,34,21,12,18,11,6,7,-32,-51,-45,-37,-30,-20,-32,-88,-166,-247,-293,-325,-330,-309,-260,-221,-185,-129,-70,-31,-10,6,15,8,-34,-71,-92,-112,-66,-31,-53,-73,-41,-44,-98,-126,-88,-65,-64,-141,-435,-365,1138,2809,1835,80,-375,-421,-546,-717,-764,-739,-734,-727,-694
2018-05-14,10:47:11.510,-686,-664,-645,-622,-617,-597,-585,-585,-601,-611,-625,-612,-591,-547,-488,-458,-418,-334,-278,-227,-171,-141,-70,9,94,160,231,277,318,343,339,347,346,344,351,360,361,382,375,371,402,442,430,399,413,379,312,302,302,281,255,180,-161,-195,1233,2985,1929,191,-182,-119,-210,-374,-457,-445,-428,-422,-427,-416,-385,-355,-328,-300,-300,-302,-306,-300,-288,-272,-209,-148,-120,-61,-1,72,140,156,145,90,41,34,35,38,41,18,-28,-68,-105,-132,-142,-122,-92,-37,19,56,80,89,135,203,220,207,192,186,126,52,26,2,-48,-96,-267,-693,-564,1236,2826,1435,-275,-631,-697,-857
2018-05-14,10:47:12.547,-1002,-983,-961,-904,-897,-941,-920,-927,-989,-1155,-1016,-770,-824,-886,-853,-829,-688,-558,-385,-219,-105,-23,252,427,404,347,280,213,164,151,152,190,225,259,291,318,334,350,356,365,378,386,400,410,440,508,563,553,504,518,493,392,322,303,265,223,143,-174,-271,968,2735,1966,206,-251,-165,-188,-307,-405,-409,-412,-418,-419,-399,-373,-340,-332,-309,-298,-283,-255,-209,-155,-83,-13,53,128,195,261,302,310,258,136,-3,-121,-219,-269,-270,-265,-232,-184,-143,-113,-102,-97,-88,-97,-108,-128,-159,-195,-230,-240,-233,-296,-375,-391,-421,-513,-559,-588,-593,-498,-596,-865,-871,368,2545,1752
2018-05-14,10:47:13.584,-213,-603,-660,-762,-833,-938,-888,-848,-867,-808,-769,-766,-624,-453,-316,-145,-23,49,95,145,206,249,255,283,294,331,383,447,484,482,440,392,341,306,289,275,265,268,267,279,313,342,358,365,358,347,331,327,362,393,382,333,304,247,163,80,64,53,36,8,-216,-488,193,2160,2420,555,-363,-314,-272,-380,-526,-542,-537,-510,-471,-409,-317,-222,-172,-97,-36,-9,2,13,1,-41,-90,-103,-113,-108,-86,-59,-12,22,6,-32,-77,-122,-154,-162,-173,-203,-229,-255,-304,-342,-375,-419,-461,-507,-543,-591,-623,-583,-569,-612,-662,-615,-645,-712,-657,-634,-669,-758,-940,-1212,-1193,448
2018-05-14,10:47:14.622,2115,697,-998,-1660,-2110,-2041,-1535,-976,-655,-547,-496,-378,-155,88,281,411,521,583,556,664,776,818,854,907,982,1080,1165,1211,1239,1222,1150,1039,925,847,778,712,668,648,636,619,615,602,591,583,559,519,449,403,391,399,404,339,313,305,241,166,129,101,76,10,-181,-407,-29,1457,1839,321,-498,-511,-500,-465,-494,-501,-438,-365,-311,-269,-199,-137,-96,-90,-106,-152,-226,-272,-306,-343,-328,-292,-243,-176,-107,-46,26,71,43,-27,-93,-208,-353,-376,-396,-411,-458,-496,-547,-627,-693,-721,-776,-820,-890,-781,-773,-743,-594,-508,-493,-494,-548,-601,-603,-624,-669,-689,-1083,-1457,-163,2286
2018-05-14,10:47:15.659,2081,0,-854,-959,-953,-1001,-1003,-824,-626,-395,-143,0,116,229,292,351,386,406,435,491,575,651,703,757,814,855,878,912,960,990,969,907,844,797,743,700,679,652,618,581,530,476,417,377,346,302,258,274,303,304,252,206,190,131,56,-2,-38,-83,-107,-271,-584,-264,1527,2582,963,-426,-569,-471,-470,-575,-546,-449,-399,-351,-289,-234,-195,-188,-189,-230,-281,-319,-337,-346,-326,-300,-291,-247,-188,-144,-91,-39,-7,-7,-85,-183,-252,-317,-382,-441,-505,-554,-597,-651,-678,-742,-776,-678,-705,-737,-692,-586,-555,-569,-544,-513,-528,-552,-522,-490,-496,-570,-811,-1008,-211,1777,1656,-248
2018-05-14,10:47:16.696,-814,-778,-786,-677,-624,-445,-255,-96,8,83,137,179,197,192,201,241,320,393,485,563,634,701,775,833,881,920,981,976,940,896,825,773,729,690,657,624,594,549,516,477,431,394,350,308,276,285,308,281,213,184,146,53,-52,-100,-144,-188,-267,-519,-592,484,2240,1664,-93,-639,-614,-541,-576,-603,-514,-432,-346,-261,-194,-153,-129,-113,-133,-191,-241,-278,-301,-329,-320,-308,-294,-273,-210,-153,-110,-41,-24,-51,-90,-138,-194,-232,-264,-307,-356,-423,-474,-506,-533,-541,-542,-581,-582,-558,-485,-403,-290,-269,-250,-208,-252,-386,-424,-433,-467,-560,-909,-1076,272,2535,2099,13,-821,-905
2018-05-14,10:47:17.733,-912,-950,-860,-635,-418,-250,-112,3,96,145,168,150,125,120,136,166,212,271,339,400,458,504,525,562,591,580,558,525,474,433,405,395,383,372,354,338,324,313,286,248,200,170,160,180,210,214,193,172,164,119,50,0,-14,-40,-66,-253,-469,91,1751,1875,201,-570,-566,-547,-501,-510,-476,-406,-329,-266,-205,-134,-89,-60,-48,-74,-126,-182,-236,-265,-282,-274,-241,-209,-160,-113,-59,-8,10,-16,-115,-226,-308,-367,-421,-465,-486,-540,-591,-600,-626,-660,-623,-635,-627,-637,-621,-586,-481,-350,-382,-383,-377,-420,-480,-486,-484,-505,-670,-968,-626,1224,2299,685,-546,-675,-655,-564
2018-05-14,10:47:18.770,-460,-319,-144,-3,88,156,226,257,254,277,304,333,370,433,512,591,678,752,805,827,856,865,899,909,864,797,733,670,612,565,524,503,460,413,376,320,268,225,190,128,92,73,70,87,99,80,57,61,47,-35,-113,-117,-126,-156,-253,-584,-536,999,2624,1475,-196,-510,-386,-353,-455,-453,-373,-304,-262,-233,-207,-200,-233,-260,-299,-342,-382,-412,-429,-434,-419,-359,-269,-214,-164,-106,-37,5,10,-25,-104,-209,-291,-353,-418,-474,-524,-563,-572,-589,-596,-605,-609,-589,-582,-580,-559,-509,-452,-374,-384,-403,-365,-392,-453,-505,-508,-512,-520,-642,-973,-865,723,2233,927,-519,-639,-455
2018-05-14,10:47:34.021,-68,-277,-605,-74,1985,2591,722,-452,-536,-487,-466,-523,-507,-434,-416,-418,-394,-425,-458,-497,-535,-601,-702,-816,-832,-863,-892,-843,-791,-725,-682,-607,-513,-561,-565,-581,-607,-653,-765,-801,-727,-673,-652,-669,-624,-518,-396,-221,-77,5,100,170,218,290,283,274,361,387,366,375,429,478,491,411,224,423,1772,2768,1533,408,323,406,412,408,351,329,317,301,297,257,222,201,157,151,145,116,120,132,139,113,103,99,122,133,161,192,180,131,85,66,25,5,-4,2,7,-35,-66,-54,-85,-136,-155,-173,-219,-219,-185,-156,-53,-52,-70,58,7,-85,-180,-153,-147,-247,-447,-888
2018-05-14,10:47:35.095,-669,1322,2417,828,-574,-956,-916,-875,-1021,-1077,-999,-1141,-1089,-828,-821,-854,-726,-583,-438,-284,-249,-237,-109,-34,53,179,295,371,426,501,574,605,555,500,459,390,365,368,355,340,318,312,329,344,356,360,377,382,389,394,411,414,363,320,258,163,21,-73,-138,-197,-266,-501,-585,429,2075,1601,-6,-461,-340,-261,-269,-323,-283,-243,-209,-172,-162,-182,-184,-210,-240,-271,-297,-321,-331,-303,-271,-241,-154,-69,-6,63,138,136,88,-1,-107,-196,-304,-400,-478,-584,-681,-737,-788,-813,-815,-852,-843,-851,-827,-982,-797,-582,-597,-654,-587,-598,-708,-728,-731,-743,-819,-1030,-531,1376,2398,872
2018-05-14,10:47:36.132,-85,-7,84,132,109,149,220,256,301,396,490,551,596,641,681,698,730,748,783,838,871,849,847,856,823,801,778,696,542,394,270,115,10,-36,-81,-119,-148,-161,-190,-214,-213,-198,-175,-124,-63,-1,33,37,75,146,155,111,72,41,-9,-72,-387,-624,227,2316,2418,395,-493,-456,-466,-573,-648,-588,-521,-487,-405,-478,-545,-385,-271,-277,-424,-479,-535,-591,-614,-639,-660,-628,-506,-285,-175,-144,-200,-265,-370,-442,-538,-415,-168,-189,-215,-161,-186,-189,-149,-97,-54,-23,-8,30,114,172,169,142,160,178,178,202,246,279,284,143,-120,305,2215,3287,1643,293,205,250,188,55
2018-05-14,10:47:37.170,1,5,9,-28,-38,-66,-107,-128,-152,-181,-181,-157,-154,-133,-91,-40,0,22,69,107,145,173,195,157,101,70,33,4,-24,-55,-88,-114,-176,-192,-231,-249,-172,-160,-110,-57,-25,-36,-32,-15,-48,-123,-150,-198,-213,-217,-410,-689,-128,1684,1667,23,-624,-612,-677,-779,-697,-716,-675,-679,-781,-647,-483,-366,-415,-381,-325,-326,-334,-282,-162,-51,64,146,204,252,306,348,367,321,261,197,151,145,145,148,162,174,183,207,244,282,301,307,310,365,408,442,405,386,389,312,208,125,66,-4,-107,-383,-510,483,2242,1841,111,-474,-451,-351,-362,-446,-406,-374,-335,-309,-270,-212
2018-05-14,10:47:38.207,-149,-125,-106,-114,-123,-135,-161,-214,-222,-124,-43,7,46,80,142,200,192,126,85,19,-59,-71,-86,-180,-238,-285,-342,-532,-613,-559,-550,-614,-581,-385,-383,-509,-602,-855,-553,-500,-619,-480,-482,-587,-877,-1073,43,2364,2325,463,-232,-204,-213,-264,-294,-240,-201,-162,-108,-87,-45,0,68,126,171,202,235,271,304,345,402,453,510,562,593,620,632,609,535,422,292,206,140,47,-22,-63,-83,-88,-111,-118,-110,-86,-50,-1,18,-15,-27,-15,-38,-81,-83,-33,1,-3,-181,-317,414,2109,1797,135,-397,-403,-441,-532,-596,-520,-497,-442,-379,-373,-361,-326,-302,-301,-298,-406,-491,-467
2018-05-14,10:47:39.244,-575,-514,-518,-615,-672,-535,-393,-453,-613,-603,-671,-711,-668,-610,-769,-930,-964,-904,-724,-593,-614,-551,-367,-253,-98,55,131,159,149,199,236,235,242,281,307,345,239,14,563,2516,3186,1401,283,268,329,300,208,208,233,239,231,231,233,215,184,130,72,4,-50,-63,-47,-44,-14,25,44,85,117,162,199,189,151,113,72,76,89,117,147,165,156,117,75,10,-27,-43,-52,-40,0,44,32,64,118,84,13,12,30,13,-28,-260,-456,383,2322,1989,153,-662,-781,-879,-962,-1023,-968,-1028,-1237,-1334,-979,-599,-755,-774,-720,-768,-816,-773,-667,-559,-512,-434,-323,-219,-156,-91
2018-05-14,10:47:40.281,-14,22,9,-28,-67,-89,-90,-95,-82,-22,28,65,85,123,186,248,301,372,473,529,552,576,599,561,474,425,378,306,230,-4,-47,935,2330,1517,71,-227,-197,-198,-128,-130,-105,-66,-32,-19,0,47,98,159,212,214,208,221,191,155,145,155,163,170,183,215,260,279,241,160,96,45,19,-7,-39,-27,-20,-38,-34,-40,-108,-145,-212,-171,-217,-222,-256,-385,-166,-131,-299,-326,-326,-371,-439,-703,-1152,-843,1199,2603,1210,29,-173,-120,-9,-54,-79,-186,-265,-78,38,97,68,33,69,92,154,216,257,286,310,322,359,387,410,453,519,563,550,502,412,339,274,221
2018-05-14,10:47:41.319,190,149,138,139,157,169,174,167,169,163,165,175,161,123,132,151,121,50,12,19,43,49,-176,-260,724,2473,1777,-55,-412,-279,-329,-372,-456,-471,-462,-439,-368,-354,-404,-317,-219,-217,-233,-246,-256,-262,-247,-212,-202,-177,-164,-163,-114,-89,-96,-154,-234,-332,-390,-414,-406,-495,-584,-547,-511,-543,-588,-603,-546,-426,-332,-302,-266,-152,-102,-124,-176,-238,-253,-269,-260,-330,-597,-513,834,2212,1065,-371,-553,-478,-411,-381,-449,-404,-388,-379,-337,-295,-281,-275,-240,-247,-235,-213,-202,-191,-179,-141,-96,-69,-37,15,72,102,117,85,40,8,-28,-71,-60,-48,-18,30,34,-141,-200,52
2018-05-14,10:47:42.356,135,69,40,112,102,14,110,214,215,160,114,119,159,182,8,-270,316,2401,3233,1335,10,-90,-131,-246,-384,-374,-340,-294,-317,-336,-265,-226,-130,-99,-178,-188,-113,-79,-36,3,47,57,65,120,200,281,324,321,286,227,152,99,50,31,33,16,-27,-44,-47,-56,-70,-64,-55,-14,80,115,104,95,109,78,-31,-71,-70,-68,-138,-361,-305,897,2206,1018,-336,-457,-356,-306,-261,-308,-301,-257,-216,-213,-204,-190,-167,-137,-120,-98,-84,-78,-91,-121,-60,-50,-17,42,114,139,123,106,67,-4,-70,-84,-124,-182,-159,-134,-147,-159,-157,-139,-150,-154,-141,-90,-38,-4,-11,-12
2018-05-14,10:47:43.393,-23,-55,-162,-176,-69,-119,-213,-459,-656,446,2473,2098,272,-341,-306,-331,-421,-525,-518,-493,-504,-483,-394,-349,-326,-257,-189,-173,-189,-158,-131,-111,-107,-96,-64,-17,5,72,112,131,87,-3,-71,-119,-189,-221,-213,-229,-263,-284,-266,-269,-278,-254,-243,-224,-167,-121,-121,-123,-106,-81,-102,-131,-118,-96,-63,-106,-368,-197,1437,2977,1501,-139,-432,-498,-475,-432,-468,-441,-385,-339,-246,-181,-114,-99,-80,-72,-40,-15,15,48,60,98,120,148,218,244,290,327,330,263,211,27,-26,48,3,-92,-110,-153,-253,-350,-362,-208,-59,-28,-36,30,75,31,2,-1,-66,-168,-185,-187,-187,-265
2018-05-14,10:47:44.430,-490,-293,1133,2152,752,-418,-457,-335,-302,-226,-295,-271,-211,-178,-147,-126,-141,-185,-141,-110,-135,-117,-88,-106,-86,-83,-58,-39,-35,-3,12,0,-44,-108,-161,-194,-204,-197,-200,-206,-206,-169,-147,-119,-87,-123,-114,-85,-19,-140,-179,-250,41,101,-19,-85,-129,-123,-74,-102,-388,-323,923,2538,1719,39,-337,-248,-266,-320,-379,-371,-385,-405,-400,-366,-360,-280,-297,-356,-258,-229,-314,-341,-242,-164,-90,0,169,248,216,211,211,211,125,38,-23,-57,-47,-27,-42,-39,-44,-51,-40,-12,-10,2,24,63,127,137,137,164,155,87,30,32,40,12,-106,-441,-297,1415,2963,1408,-381,-695
2018-05-14,10:47:45.468,-666,-689,-788,-781,-688,-589,-516,-470,-420,-357,-292,-251,-229,-229,-193,-189,-227,-159,-101,-106,-115,-63,-55,-46,-102,-78,-93,-210,-290,-328,-341,-309,-265,-211,-218,-225,-219,-237,-245,-241,-251,-287,-225,-107,-126,-189,-169,-181,-235,-243,-249,-286,-356,-631,-831,-77,1700,1513,-47,-564,-531,-502,-369,-314,-205,-42,100,214,324,412,440,404,357,311,262,226,262,310,402,488,559,601,644,708,760,779,761,719,661,621,601,560,505,467,438,394,340,280,222,139,48,-14,-23,-54,-91,-146,-158,-170,-221,-253,-230,-189,-171,-278,-498,-209,1394,2477,1107,-105,-210,-172,-193,-283,-332,-395,-460,-382
2018-05-14,10:47:46.505,-331,-308,-301,-297,-267,-233,-188,-140,-99,-68,-58,-24,25,30,54,57,78,65,10,-60,-148,-252,-317,-381,-349,-361,-257,-284,-349,-185,-215,-327,-327,-321,-300,-207,-134,-65,-66,27,117,122,134,168,168,118,-111,-515,-80,2066,3062,1129,-161,-202,-132,-159,-229,-213,-142,-75,2,81,149,212,262,301,314,334,342,326,314,285,279,249,210,166,133,153,150,134,77,-6,-88,-140,-189,-206,-215,-215,-219,-231,-245,-257,-229,-144,-73,-36,-15,-1,-54,-97,-105,-149,-256,-323,-226,-192,-261,-418,-493,318,1926,1511,-10,-490,-385,-377,-418,-497,-478,-479,-471,-493,-516,-515,-535,-507,-494,-504
2018-05-14,10:47:47.542,-511,-384,-365,-372,-396,-343,-296,-366,-261,-131,-124,-201,-211,-222,-256,-236,-199,-183,-167,-164,-221,-260,-251,-265,-265,-255,-213,-145,-65,51,128,148,176,202,188,159,177,205,227,147,-130,51,1636,2939,1594,143,-74,-58,-122,-233,-295,-302,-292,-320,-317,-304,-276,-260,-258,-223,-216,-190,-170,-171,-149,-84,-26,52,128,195,252,287,270,212,132,39,-46,-103,-166,-159,-163,-191,-138,-93,-75,-63,-56,-40,-10,26,58,40,-26,-44,-120,-176,-271,-337,-357,-363,-471,-822,-735,1057,2829,1451,-329,-556,-542,-701,-917,-958,-923,-884,-839,-805,-720,-572,-440,-373,-297,-198,-144,-113,-80,-55,-67,-52
2018-05-14,10:47:48.579,-6,64,156,283,384,426,411,372,314,287,276,273,280,287,296,309,333,325,303,288,280,259,275,279,208,133,87,0,-108,-183,-158,-168,-186,-303,-481,-61,1544,2022,499,-389,-431,-355,-283,-316,-305,-242,-199,-182,-139,-102,-112,-129,-117,-188,-187,-169,-168,-128,-52,27,66,119,228,274,283,278,203,84,-36,-144,-265,-352,-376,-399,-455,-485,-487,-483,-495,-471,-366,-369,-442,-476,-457,-533,-468,-411,-457,-538,-557,-562,-570,-551,-716,-556,916,2446,1361,0,-198,-156,-164,-204,-224,-193,-179,-142,-60,28,122,191,234,263,291,326,364,400,432,479,498,552,574,589,591,596,547,425
2018-05-14,10:47:49.617,293,142,-17,-101,-144,-131,-105,-121,-105,-116,-137,-142,-158,-150,-119,-48,22,69,85,124,155,156,113,91,67,43,-18,-428,-452,1141,3007,1974,67,-350,-266,-308,-427,-477,-422,-362,-374,-299,-295,-406,-386,-487,-490,-389,-514,-615,-659,-663,-617,-564,-492,-527,-499,-619,-450,-314,-169,-43,-25,-64,-55,-20,-3,17,0,-4,-39,-64,65,42,73,175,217,262,253,227,213,180,173,134,177,217,237,157,-70,148,1667,2871,1629,301,122,209,155,49,-15,-21,-35,-122,-141,-256,-329,-395,-412,-351,-299,-231,-147,-85,-37,12,64,108,175,173,183,210,164,100,22,-53,-122,-186,-247,-274
2018-05-14,10:47:50.654,-309,-332,-419,-409,-201,-110,-162,-81,-42,-28,-9,-92,-149,-111,-186,-274,-368,-431,-467,-535,-850,-1025,-134,1785,1560,-146,-628,-514,-546,-656,-732,-814,-919,-757,-530,-456,-452,-347,-238,-205,-138,-53,-2,52,96,103,129,208,259,293,325,368,394,374,347,340,341,334,348,376,399,424,468,499,505,513,507,479,459,452,448,387,344,280,196,82,-45,-85,-131,-145,-262,-533,-182,1537,2438,967,-158,-270,-180,-157,-260,-274,-224,-176,-164,-161,-135,-107,-84,-99,-157,-192,-203,-215,-135,-109,-119,-88,-36,33,106,162,160,106,9,-106,-118,-225,-322,-357,-429,-494,-543,-561,-604,-590,-609,-670
2018-05-14,10:47:51.691,-594,-521,-486,-502,-582,-654,-664,-725,-870,-900,-866,-837,-886,-1110,-938,608,2300,1336,-129,-422,-380,-363,-402,-431,-338,-241,-120,-13,80,164,217,268,301,351,394,433,475,512,544,555,590,623,616,639,646,557,435,303,180,107,57,45,20,3,-25,-30,-30,-38,-48,-35,-15,10,43,23,-1,28,25,-2,-41,-47,-60,-73,-230,-548,-265,1404,2415,836,-301,-442,-432,-397,-387,-403,-380,-295,-251,-244,-250,-222,-227,-235,-272,-297,-306,-318,-297,-189,-122,-94,41,106,137,189,133,19,-50,-176,-325,-370,-351,-289,-298,-370,-333,-216,-129,-76,-11,13,48,93,133,132,120,138,125,104
2018-05-14,10:47:52.728,52,101,184,233,136,-158,120,1963,3193,1703,299,132,172,92,-54,-108,-91,-93,-108,-117,-118,-153,-186,-203,-223,-235,-238,-206,-188,-181,-135,-116,-121,-112,-80,-44,-27,-34,-64,-85,-96,-109,-79,-67,-72,-56,-60,-84,-127,-206,-269,-275,-251,-261,-168,-118,-125,-99,-60,-90,-131,-134,-150,-151,-239,-598,-598,887,2595,1466,-307,-763,-787,-773,-826,-879,-855,-821,-807,-791,-793,-874,-919,-914,-944,-913,-777,-749,-783,-752,-679,-596,-513,-383,-256,-167,-95,-81,-123,-163,-174,-201,-198,-209,-214,-211,-174,-113,-64,-1,58,106,154,257,344,359,353,394,398,375,358,354,350,327,131,-117,402,2188
2018-05-14,10:47:53.766,2240,453,-239,-225,-225,-179,-233,-251,-216,-182,-176,-166,-135,-113,-78,-30,6,41,70,126,177,218,239,279,324,349,330,304,290,238,164,102,42,25,38,40,60,106,136,129,106,57,25,24,19,41,40,-15,-105,-90,-128,-222,-222,-179,-183,-204,-496,-689,337,2312,1884,30,-658,-750,-781,-825,-893,-834,-711,-595,-476,-350,-227,-190,-167,-142,-154,-152,-121,-73,-52,-4,73,166,242,343,451,501,500,460,424,416,370,351,335,366,351,330,325,298,257,198,150,110,133,174,191,188,186,200,163,120,108,82,44,15,-224,-392,515,2547,2538,674,-75,-79,-98,-222,-343,-334
2018-05-14,10:47:54.803,-311,-302,-264,-267,-278,-329,-278,-196,-124,-52,-22,3,59,112,145,193,242,250,215,258,251,172,67,-40,-128,-180,-236,-262,-272,-229,-245,-281,-312,-400,-418,-440,-262,-123,-139,-202,-207,-206,-305,-334,-268,-228,-190,-148,-368,-445,624,2371,1552,-17,-356,-278,-286,-303,-337,-272,-206,-178,-142,-106,-67,-19,24,73,142,176,209,245,257,261,272,268,285,304,304,314,241,118,6,-95,-141,-161,-184,-172,-154,-126,-100,-84,-69,-60,-85,-67,5,82,120,128,126,104,26,-45,-69,-104,-126,-297,-553,-186,1478,2255,755,-258,-299,-251,-226,-266,-295,-323,-327,-310,-343,-345,-348,-409,-463,-501
2018-05-14,10:47:55.840,-516,-504,-451,-376,-334,-319,-312,-147,-154,-154,-115,-151,-288,-339,-421,-493,-508,-495,-456,-355,-247,-166,-116,-64,-50,-39,-31,-36,-19,25,52,38,79,124,118,72,71,100,113,70,-173,-188,1139,3025,2346,522,38,83,18,-148,-261,-280,-300,-323,-329,-340,-349,-365,-339,-337,-348,-334,-308,-262,-209,-155,-86,-32,21,102,196,280,304,288,253,216,183,171,144,91,24,-30,-32,-69,-55,-45,-49,-15,34,119,195,218,210,218,181,91,37,35,18,-40,-318,-649,-124,1908,2346,486,-524,-575,-697,-727,-705,-844,-903,-798,-754,-812,-819,-691,-607,-595,-516,-402,-258,-127,-59,33,73,92
2018-05-14,10:47:56.877,113,110,156,190,152,91,51,6,-14,-26,-27,-4,4,20,39,37,53,93,118,119,150,210,217,170,182,172,110,30,-32,-40,-43,-127,-357,-279,962,2092,973,-248,-449,-420,-371,-356,-404,-405,-383,-330,-264,-196,-137,-79,-45,-9,-10,-29,-36,-59,-104,-54,-8,25,64,111,163,183,147,61,12,-36,-81,-108,-100,-97,-101,-118,-122,-127,-205,-214,-249,-304,-170,-130,-140,-174,-161,-232,-281,-349,-481,-534,-417,-571,-1064,-723,1323,2785,1390,-154,-462,-398,-427,-540,-543,-492,-458,-431,-370,-315,-282,-242,-185,-135,-82,-36,-14,14,95,160,226,318,413,500,539,538,484,417,349,268
2018-05-14,10:47:57.915,195,125,62,0,-58,-108,-167,-215,-232,-231,-241,-194,-122,-46,-15,0,43,64,71,13,12,62,67,-105,-358,103,2108,2760,793,-372,-430,-444,-517,-624,-638,-540,-467,-421,-350,-256,-211,-200,-159,-141,-157,-162,-167,-180,-192,-228,-250,-284,-266,-246,-209,-221,-317,-205,-154,-210,-286,-488,-715,-491,-313,-488,-593,-478,-462,-478,-402,-284,-132,-21,39,146,160,117,108,120,104,103,-52,-210,561,2282,2082,520,-36,-13,-29,2,-19,3,63,103,117,124,140,175,190,174,150,131,102,70,47,42,35,50,68,92,108,126,58,-67,-153,-201,-250,-256,-259,-249,-214,-202,-195,-193,-172,-135
2018-05-14,10:47:58.952,-144,-147,-102,-65,-90,-150,-153,-196,-265,-312,-320,-284,-274,-493,-759,-39,2051,2465,614,-370,-450,-452,-539,-713,-734,-712,-721,-706,-742,-708,-693,-712,-631,-615,-587,-677,-532,-366,-395,-549,-660,-449,-203,-110,-13,19,-47,-95,-141,-78,-12,0,13,35,25,10,4,-15,-15,-5,27,88,138,144,162,191,198,185,165,181,200,227,109,-146,224,2123,3003,1188,-29,-107,-57,-113,-238,-291,-302,-298,-275,-232,-216,-191,-199,-207,-163,-137,-128,-100,-50,-32,7,58,127,224,332,428,424,359,295,210,112,11,-69,-131,-173,-188,-189,-168,-125,-57,-36,18,88,143,174,185,190,127,11,-36
2018-05-14,10:47:59.989,-27,-47,-123,-360,-453,528,2082,1386,-56,-419,-419,-477,-525,-572,-655,-718,-644,-677,-746,-642,-494,-511,-577,-557,-454,-345,-225,-113,-33,18,53,91,138,190,218,197,166,134,103,89,121,139,148,178,226,270,333,385,409,413,451,492,467,407,354,291,203,98,33,-5,-34,-106,-355,-192,1297,2461,1122,-211,-360,-267,-133,-196,-253,-214,-153,-83,-3,69,158,181,190,159,124,76,45,29,23,32,64,108,174,272,338,341,285,187,114,84,11,0,-52,-78,-100,-135,-162,-332,-338,-316,-355,-348,-299,-269,-306,-375,-366,-330,-351,-464,-540,-648,-765,-817,-437,1287,2597,1062,-337,-502
2018-05-14,10:48:01.026,-457,-454,-565,-587,-543,-493,-434,-392,-318,-239,-177,-125,-76,-29,2,56,115,174,258,316,362,439,503,545,554,500,417,345,258,174,86,32,13,7,-11,-22,-25,-28,-40,-23,4,31,37,24,57,28,-14,-9,45,115,152,0,57,1058,2439,1488,37,-284,-307,-358,-347,-350,-337,-307,-268,-183,-99,-36,-52,-33,23,36,41,77,92,63,25,37,18,-163,38,89,-23,-96,-159,-191,-254,-349,-413,-536,-796,-786,-620,-329,-317,-385,-331,-202,-127,-49,22,57,85,133,78,-2,-20,-13,-27,-153,-434,-70,1780,2740,1071,-205,-337,-273,-216,-293,-295,-242,-182,-98,-44,21,55,55
2018-05-14,10:48:02.064,71,69,55,23,-25,-74,-107,-121,-129,-125,-91,-47,-15,-10,-22,-61,-101,-122,-135,-142,-130,-124,-98,-51,-6,30,83,127,173,224,265,261,193,145,103,-9,-103,-119,-68,-60,-87,-339,-299,1084,2774,1750,-6,-351,-274,-314,-444,-518,-586,-593,-530,-531,-547,-577,-549,-495,-486,-502,-499,-450,-528,-495,-356,-330,-404,-491,-433,-376,-475,-611,-763,-887,-998,-1058,-1017,-963,-880,-787,-696,-600,-482,-351,-257,-143,-6,129,217,311,434,509,521,551,617,669,707,637,468,883,2395,2545,928,266,312,299,310,300,229,204,204,224,233,224,220,190,146,160,186,195,225,255,275,329,392,419
2018-05-14,10:48:03.101,437,445,431,338,216,99,-11,-96,-134,-152,-168,-192,-202,-179,-131,-109,-138,-125,-88,-64,-38,-17,-60,-56,-64,-133,-241,-252,-319,-350,-554,-872,-428,1491,2048,393,-484,-650,-892,-837,-715,-805,-795,-771,-771,-767,-640,-577,-590,-475,-360,-308,-236,-209,-157,-112,-98,-65,-19,21,87,145,175,171,146,102,72,56,69,94,125,161,181,196,201,207,241,256,293,349,354,336,307,258,202,115,66,44,25,-51,-314,-273,1084,2617,1556,-61,-353,-244,-163,-229,-279,-225,-205,-188,-146,-84,-48,-32,-27,-36,-35,-68,-100,-99,-140,-39,50,66,102,158,176,146,87,1,-112,-193,-223,-266
2018-05-14,10:48:04.138,-299,-348,-394,-409,-441,-470,-552,-559,-375,-318,-235,-292,-351,-359,-408,-548,-738,-771,-658,-566,-692,-868,-384,1249,1646,48,-623,-557,-523,-407,-375,-400,-358,-300,-233,-180,-121,-54,-18,14,44,56,99,159,215,289,343,392,462,506,551,563,495,405,318,238,165,105,51,29,-2,-17,-26,-67,-96,-111,-117,-90,-15,11,-19,-4,21,8,-24,-49,-17,-2,-26,-235,-394,536,2491,2192,307,-393,-430,-422,-406,-488,-471,-448,-461,-420,-421,-380,-339,-338,-313,-325,-356,-423,-394,-341,-382,-349,-320,-281,-227,-102,-21,-39,-137,-280,-274,-317,-294,-242,-286,-237,-245,-299,-254,-184,-102,-30,52,117
2018-05-14,10:48:05.175,138,89,67,80,29,-57,-62,-44,-17,-73,-379,-316,1335,3056,1842,120,-166,-77,-95,-207,-245,-177,-120,-79,-60,-42,-47,-51,-70,-92,-98,-88,-70,-43,10,46,75,117,151,169,190,175,133,66,25,-10,-18,-18,-14,23,37,31,30,18,-5,-58,-61,-35,-64,-69,-60,-55,-92,-156,-153,-131,-156,-163,-301,-497,65,1704,1616,21,-615,-676,-612,-509,-550,-567,-576,-505,-454,-542,-495,-550,-645,-489,-487,-504,-377,-387,-436,-389,-292,-195,-92,11,133,271,265,199,130,46,-19,-49,-45,-20,14,57,100,126,159,190,225,283,342,346,346,386,395,367,342,336,308,251,68,-236
2018-05-14,10:48:06.213,286,2174,2269,440,-331,-335,-353,-332,-382,-401,-394,-375,-369,-337,-284,-231,-179,-140,-123,-91,-39,16,74,131,186,223,258,287,299,274,142,92,5,-124,-129,-135,-139,-101,-82,-89,-91,-69,-76,-91,-74,-15,-39,-72,-42,-5,-11,-84,-181,-201,-164,-140,-299,-677,-651,1351,3235,1886,36,-382,-416,-524,-662,-666,-606,-538,-457,-308,-194,-153,-135,-103,-122,-151,-138,-149,-165,-125,-43,71,157,230,309,357,363,315,252,199,155,124,125,134,118,107,91,63,71,58,17,-4,22,-6,-63,-102,-127,-181,-260,-315,-325,-351,-419,-623,-502,768,1924,764,-510,-632,-548,-482,-472,-520,-518,-504
2018-05-14,10:48:07.250,-494,-509,-505,-521,-564,-580,-426,-359,-422,-423,-358,-317,-283,-261,-226,-169,-138,-157,-208,-290,-430,-502,-540,-560,-622,-660,-700,-844,-588,-471,-580,-625,-557,-485,-434,-457,-599,-429,-249,-311,-428,-468,-429,-414,-569,-737,-110,1758,1939,188,-480,-494,-473,-424,-500,-471,-412,-350,-292,-231,-134,-70,-14,48,102,134,178,219,233,263,285,325,377,399,387,374,325,212,109,36,5,-4,1,18,32,10,10,32,52,85,134,203,243,275,311,377,392,386,371,397,379,356,100,-204,598,2976,3113,1038,138,-12,-95,-206,-278,-241,-204,-175,-134,-121,-87,-90,-104,-114,-160,-187,-179,-231,-168,-65
2018-05-14,10:48:08.287,-152,3,105,134,167,135,127,27,-18,-24,-88,-51,4,0,-20,-22,-18,13,43,99,183,258,273,238,211,232,195,133,122,145,157,99,-139,-85,1251,2867,1894,282,-22,91,124,68,20,39,56,54,71,59,56,60,64,27,-3,31,38,94,117,123,192,224,231,245,263,247,189,145,118,107,102,130,158,175,159,165,143,52,0,20,-54,80,67,31,87,78,0,-58,-14,25,-62,-291,-428,321,1988,1689,105,-462,-600,-595,-484,-502,-520,-548,-524,-455,-488,-519,-531,-551,-618,-581,-427,-500,-415,-256,-166,-106,-4,124,240,331,332,294,213,126,54,4,-14,11
2018-05-14,10:48:09.324,33,-3,-18,-1,46,100,166,244,353,408,412,434,443,390,324,302,275,213,-30,-375,141,2176,2785,782,-374,-413,-393,-429,-542,-518,-458,-405,-367,-339,-285,-261,-245,-204,-144,-96,-50,26,80,113,144,155,162,190,207,186,159,106,111,111,81,46,37,72,97,79,80,98,111,111,136,192,161,120,130,108,15,-118,-241,-256,-292,-390,-742,-837,658,2684,1774,-40,-463,-404,-481,-602,-615,-607,-593,-497,-393,-357,-303,-275,-273,-279,-238,-197,-148,-138,-101,-45,40,129,186,241,268,263,197,136,90,36,8,-5,2,-2,-23,-46,-50,-67,-52,-14,29,25,7,23,21,-46
2018-05-14,10:48:10.362,-136,-170,-205,-237,-381,-618,-254,1318,1713,207,-607,-582,-498,-466,-527,-518,-466,-458,-463,-441,-440,-449,-449,-437,-450,-480,-440,-413,-397,-335,-309,-305,-283,-246,-225,-238,-257,-332,-404,-452,-470,-504,-498,-582,-592,-386,-334,-389,-436,-463,-495,-475,-531,-691,-627,-679,-645,-586,-641,-716,-776,-1038,-1111,186,2270,1811,11,-546,-504,-461,-535,-587,-548,-496,-454,-386,-304,-239,-144,-89,-52,10,37,66,111,149,186,238,275,330,407,430,357,256,178,109,57,21,14,10,-23,-44,-18,-19,-22,-9,35,78,81,69,68,102,94,39,23,68,74,3,-306,-234,1390,3172,1896,77,-256,-265,-380,-555
2018-05-14,10:48:11.399,-569,-481,-430,-406,-353,-309,-251,-254,-222,-168,-158,-158,-135,-118,-115,-52,56,62,97,130,133,98,-15,-243,-299,-157,-186,-248,-424,-486,-420,-517,-447,-515,-492,-413,-366,-223,-93,42,123,130,137,168,150,83,-215,-308,822,2563,1727,95,-224,-159,-161,-145,-146,-45,51,106,185,275,344,383,420,437,440,423,424,407,397,381,369,339,339,352,381,305,168,68,-11,-87,-96,-81,-31,18,72,116,155,233,319,424,502,504,469,461,416,295,229,141,63,23,-279,-206,1068,2327,1133,-132,-239,-146,-98,-106,-187,-179,-211,-226,-183,-227,-292,-273,-277,-364,-484,-420,-382,-471,-557,-346
2018-05-14,10:48:12.436,-466,-520,-351,-254,-35,27,-128,-204,-202,-184,-141,-53,-2,53,95,114,161,225,240,254,286,266,224,210,162,112,80,75,86,92,-128,-180,1053,2987,2310,491,30,102,85,-67,-203,-213,-231,-295,-360,-381,-420,-468,-497,-443,-373,-317,-275,-233,-181,-135,-85,-55,12,101,188,232,252,234,197,166,104,20,-87,-147,-239,-242,-288,-228,-102,-36,55,128,163,181,213,154,53,51,49,-13,-284,-620,-335,1460,2610,832,-580,-757,-815,-902,-967,-969,-1012,-1089,-890,-657,-718,-835,-720,-635,-624,-653,-598,-457,-305,-139,1,102,140,165,180,199,142,64,10,6,34,69,88,86,99,97
2018-05-14,10:48:13.473,121,171,216,290,377,414,427,455,423,358,295,250,213,118,-119,-210,638,2013,1324,-108,-377,-319,-273,-199,-251,-247,-212,-177,-163,-122,-89,-68,-43,5,52,73,66,55,74,95,87,81,126,180,216,169,145,34,-37,-58,-71,-104,-93,-105,-148,-143,-169,-221,-256,-291,-359,-387,-364,-388,-419,-487,-510,-500,-484,-762,-1044,-707,720,2339,1315,-277,-706,-566,-574,-754,-745,-653,-544,-411,-274,-152,-83,-30,16,14,32,42,76,124,171,252,337,402,470,537,588,587,537,494,460,446,438,436,428,385,336,265,217,177,138,124,106,72,61,81,62,51,44,47,50,-31,-344,-206
2018-05-14,10:48:14.511,1667,3044,1419,-43,-211,-160,-176,-299,-335,-308,-278,-263,-282,-321,-351,-309,-303,-274,-244,-235,-251,-222,-171,-121,-96,-71,-66,-52,-179,-124,-167,-292,-428,-536,-622,-698,-727,-725,-722,-740,-928,-872,-647,-449,-439,-582,-714,-796,-621,-668,-833,-873,-832,-998,-801,776,1894,588,-447,-528,-470,-383,-336,-334,-286,-219,-185,-134,-70,-35,-24,-5,33,65,115,167,202,243,306,358,389,432,433,383,295,171,34,-107,-201,-268,-311,-309,-319,-327,-303,-262,-192,-92,-68,-87,-93,-65,-89,-141,-137,-110,-70,-113,-362,-235,1367,2928,1645,0,-357,-330,-370,-577,-601,-583,-585,-533,-464,-376,-360,-318,-262,-202
2018-05-14,10:48:15.548,-173,-221,-193,-150,-177,-292,-185,-73,-63,-131,-109,-15,-50,-114,-166,-205,-216,-404,-520,-328,-321,-432,-63,46,40,104,68,67,117,188,186,155,150,148,94,-221,-251,1324,3260,2223,307,-118,-66,-107,-246,-265,-200,-156,-129,-87,-36,24,75,116,150,137,147,132,123,124,128,124,103,151,206,250,252,209,139,106,87,70,52,58,65,59,36,41,91,180,219,214,208,234,193,109,63,38,0,-102,-392,-227,1249,2355,1049,-130,-184,-117,-97,-110,-138,-137,-129,-154,-236,-216,-223,-205,-226,-269,-363,-394,-378,-337,-323,-332,-502,-480,-83,-35,-213,-471,-234,-113,-223,-182,-175,-199
2018-05-14,10:48:16.585,-132,-67,0,31,85,125,187,228,214,200,205,184,140,162,192,195,117,-128,121,1765,2839,1364,106,0,40,56,-38,-91,-102,-87,-91,-90,-96,-139,-191,-217,-217,-219,-206,-160,-106,-53,-13,48,110,176,240,240,185,131,116,114,121,122,124,108,69,27,2,-11,-35,0,22,64,97,117,79,76,154,139,132,107,-269,-282,1371,3375,2194,287,-214,-348,-492,-753,-820,-822,-827,-762,-763,-715,-693,-610,-412,-344,-437,-525,-502,-489,-477,-345,-163,-34,14,155,257,271,208,166,157,118,93,74,53,18,-11,-15,9,66,125,176,160,135,177,193,169,143,160,183,118,-158
2018-05-14,10:48:17.622,-191,1002,2568,1526,-18,-357,-325,-308,-346,-399,-354,-326,-321,-307,-288,-289,-283,-249,-220,-205,-178,-130,-121,-93,-45,-6,47,98,122,91,12,-102,-183,-247,-302,-316,-336,-335,-327,-332,-327,-305,-274,-237,-194,-245,-276,-264,-327,-391,-391,-450,-508,-595,-967,-788,904,1880,246,-1049,-1322,-706,-270,-520,-751,-753,-774,-814,-776,-717,-871,-409,-66,-235,-188,-53,25,110,189,192,260,372,371,394,391,318,252,192,158,150,160,151,143,127,128,175,217,287,325,321,285,231,241,381,354,267,180,116,-95,-459,45,2027,2477,603,-456,-507,-396,-445,-570,-560,-527,-476,-420,-373,-322,-286,-232,-202
2018-05-14,10:48:18.660,-147,-69,-19,20,67,68,59,97,119,135,144,75,63,59,26,1,10,12,30,48,45,10,36,55,9,17,73,40,-2,-50,-144,-284,-368,-429,-728,-737,-780,-15,2057,2456,498,-670,-921,-1051,-984,-1090,-1094,-1122,-1022,-973,-861,-776,-654,-485,-471,-494,-425,-399,-405,-387,-322,-183,-4,156,322,452,492,452,390,369,377,397,442,467,476,505,551,596,626,682,712,683,641,586,527,447,379,345,306,198,-75,-22,1133,2106,882,-236,-277,-217,-129,-102,-142,-150,-136,-104,-62,3,41,65,78,93,87,62,15,-7,-46,-47,50,100,112,149,166,109,17,-38,-78,-108,-146,-176
2018-05-14,10:48:19.697,-219,-252,-263,-322,-375,-387,-390,-431,-543,-562,-398,-445,-630,-320,-326,-441,-573,-952,-585,1450,2689,978,-413,-542,-597,-612,-625,-519,-475,-427,-382,-335,-275,-229,-240,-226,-191,-162,-111,-46,12,88,167,262,338,402,476,497,471,419,383,349,320,283,260,204,165,131,82,67,75,55,17,-38,-81,-96,-155,-200,-208,-169,-127,-187,-450,-271,1457,2883,1364,-107,-232,-110,-134,-272,-278,-231,-231,-254,-271,-286,-273,-248,-239,-269,-216,-116,-66,-44,-2,40,119,153,177,175,116,42,-48,-157,-272,-374,-459,-552,-540,-638,-950,-682,-156,-154,-293,-374,-507,-599,-667,-746,-808,-834,-873,-856,-1014,-1162
2018-05-14,10:48:37.846,-2925,-2974,-2428,-1975,-848,298,704,1091,1453,1932,2388,2632,2638,2932,4459,5675,4292,2741,2277,2308,2424,2383,2216,1986,1774,1648,1546,1537,1518,1512,1544,1422,1409,1427,1332,1293,1313,1319,1324,1317,1370,1337,1152,921,709,496,278,183,70,129,271,427,543,241,-732,-1884,-1534,-720,-581,-757,-1149,-1588,-2413,-3318,-2687,-237,460,-1165,-2294,-2664,-2705,-3267,-3955,-2869,-2195,-2020,-1673,-115,798,950,976,1121,1522,1767,1643,1861,2095,2031,1949,1878,1829,1786,1698,1495,1203,851,666,556,547,561,552,591,646,682,656,660,669,654,597,565,540,471,218,-111,397,1949,1731,-226,-1007,-832,-640,-449,-294,-252,-632,-1449,-2438,-2700
2018-05-14,10:48:38.883,-2128,-1751,-2119,-1817,-1612,-2562,-3361,-3711,-3917,-4193,-4295,-4395,-4333,-3945,-3765,-2664,-1906,-2792,-2562,-1431,-1437,-546,320,482,730,1067,1480,1738,2171,2528,2519,2220,1927,1771,1411,1043,1783,3190,2470,898,571,693,820,690,528,442,373,357,317,296,280,351,403,323,254,113,76,5,-78,-53,23,197,313,322,131,-427,-1580,-3475,-4620,-4048,-2833,-2200,-2453,-2893,-3137,-3429,-3630,-3422,-3231,-3031,-2947,-2652,-2557,-2373,-2438,-2410,65,2697,1903,323,509,846,1524,2279,2371,2466,2665,2906,2926,2943,2886,2666,2265,2008,1983,2010,1924,1713,1508,1388,1357,1387,1418,1420,1394,1286,1249,1208,1137,1106,1106,1095,1082,1157,1183,1059,872,758
2018-05-14,10:48:39.920,562,358,171,115,119,50,3,781,2724,2499,-382,-3083,-3798,-3030,-2368,-2302,-2451,-3038,-3580,-3682,-3801,-3973,-3832,-3468,-3215,-3245,-3326,-3064,-2780,-2626,-2845,-3411,-3066,-1744,269,950,751,904,1283,1833,2131,2331,2553,2878,3120,3143,2929,2683,2661,2821,2831,2637,2320,2090,1898,1624,1917,3556,4178,2641,1639,1548,1577,1494,1323,1293,1323,1263,1118,951,820,608,417,278,140,59,79,217,395,633,871,731,7,-1532,-2811,-2749,-1871,-1261,-1127,-1350,-1573,-1880,-2189,-2258,-2364,-2494,-2442,-2473,-2765,-3061,-2608,-2381,-2713,-2424,-1725,-584,1302,2811,1866,627,736,961,1338,1516,1641,1763,1918,1947,1862,1689,1612,1656,1615,1451,1259,1093,996,1015
2018-05-14,10:48:40.670,1077,1132,1129,1153,1163,1153,1029,908,912,905,883,845,831,762,638,511,326,135,8,-51,-80,-65,164,452,399,-469,-1834,-1719,-134,-175,-943,-1449,-1675,-1915,-2302,-2185,-2219,-1950,-2015,-2068,-1750,-1591,-1957,-2225,-1738,-1561,-1230,-749,-495,-504,-385,7,445,783,1090,1247,1369,1501,1637,1761,1777,1451,1062,987,1044,956,795,694,626,598,581,652,714,701,502,652,2178,3147,1683,618,558,623,648,515,442,343,180,-11,-183,-317,-391,-384,-383,-285,-68,171,271,-62,-1241,-2788,-3085,-2170,-1363,-1007,-1036,-1019,-1153,-1346,-1732,-1912,-1649,-1762,-2282,-2130,-1979,-2541,-2308,-1922,-1630,-1709,-1301,-569,-851,-818,926,3898,3963,2365
2018-05-14,10:48:41.707,1931,1947,1888,1749,1702,1466,932,558,643,755,685,549,425,450,548,680,692,807,871,899,898,964,975,970,931,848,814,804,812,781,690,640,613,562,419,303,394,466,445,232,-303,-1390,-3285,-5486,-6125,-4006,-854,-1084,-2677,-3471,-3974,-4215,-4159,-4190,-3899,-3169,-2701,-2950,-2156,-1273,-1453,-1319,-927,-1501,-805,609,1090,1097,1281,1597,1963,2385,2633,2843,3072,3290,3448,3475,3143,2538,2322,2472,2512,2295,2108,2065,1961,1842,1724,1624,1593,1401,1200,2013,3186,2159,540,308,483,379,200,-29,-225,-433,-650,-756,-873,-882,-803,-702,-683,-479,-210,-240,-611,-907,-893,-41,912,1308,1158,905,628,384,281,149,-9,59
2018-05-14,10:48:42.744,87,-54,-245,-430,-638,-810,-925,-1022,-1106,-1018,-979,-1528,-1407,469,1863,290,-968,-1095,-941,-1039,-1213,-1654,-2350,-2764,-2279,-1404,-838,-546,-386,-306,-172,32,141,225,262,198,166,163,131,106,125,16,-86,-130,-189,-312,-418,-481,-509,-593,-665,-641,-502,-300,-200,-352,-782,-1810,-3447,-4553,-4327,-2849,-532,-771,-2728,-3676,-4173,-4608,-3721,-3185,-2896,-2577,-2380,-2303,-2079,-1509,-991,-1465,-1384,-190,1119,1711,1819,1838,2098,2400,2834,3007,3097,3127,3104,3121,3074,2862,2568,2341,2293,2210,1904,1647,1571,1520,1448,1312,1197,1111,961,722,751,2012,2952,1660,483,489,668,764,685,546,345,135,74,122,100,198,408,552,566,434
2018-05-14,10:48:43.781,-275,-1759,-2583,-2191,-1346,-1115,-1319,-1828,-2202,-2572,-2928,-3291,-2856,-2326,-2357,-2553,-2397,-2427,-1657,-974,-987,-1602,-516,623,1211,976,934,1137,1758,4186,5215,3528,2521,2534,2415,2346,2119,1680,1299,1176,1125,927,741,662,628,613,719,757,760,766,698,720,716,742,766,817,830,769,727,768,747,563,412,319,214,133,179,269,282,193,0,-657,-1933,-2873,-2967,-2349,-994,659,346,-1738,-2926,-3451,-3816,-3830,-3620,-3600,-3587,-3354,-2912,-2341,-1514,-1713,-1794,-1545,-673,362,1029,1021,910,1328,1575,1835,1969,1999,2093,2031,1778,1484,1121,1031,1033,856,738,595,493,486,464,362,185,136,29,-176,-439,-133,1428,1918,69,-815
2018-05-14,10:48:44.819,-531,-409,-425,-634,-762,-826,-884,-824,-587,-354,-207,-94,-89,-404,-1657,-3189,-3344,-2487,-1654,-1486,-1528,-1653,-2051,-2325,-2194,-1981,-1966,-1861,-1756,-1818,-1408,-837,-540,30,334,373,327,141,365,908,1422,1270,1535,3079,4619,3274,1529,1282,1311,1229,830,315,177,300,250,82,52,89,84,165,241,303,347,328,289,306,310,404,522,601,673,672,563,488,421,366,194,8,71,195,287,302,381,467,381,-343,-1614,-2392,-2258,-1711,-680,1070,1081,-518,-1219,-1442,-1721,-1750,-1639,-1378,-1003,-1169,-1248,-967,-828,-262,-301,-788,-7,619,821,1242,1469,1430,1754,2161,2220,2079,1970,2024,1934,1613,1263,1075,1213,1254,1088,875
2018-05-14,10:48:45.856,749,759,798,779,646,565,486,280,5,653,2363,2318,678,90,202,299,168,-35,-30,-85,-273,-383,-288,-204,-78,248,542,670,714,127,-1523,-2584,-1915,-850,-195,-57,-44,-327,-846,-1071,-947,-750,-516,-380,-401,-528,-280,-163,-692,-453,525,509,201,196,478,396,1244,3721,3662,1769,988,913,882,776,546,250,-7,-74,-9,-7,-260,-438,-512,-465,-322,-162,-102,-70,-47,10,81,112,203,274,279,229,227,288,273,308,361,317,202,188,342,446,456,444,398,320,58,-1055,-2833,-2731,-347,202,-1068,-1576,-1753,-1993,-2129,-2232,-2341,-2202,-1688,-1488,-1688,-1553,-1100,-1411,-1558,-955,-1048,-586,587,1018,1273,1796
2018-05-14,10:48:46.893,1743,1672,1949,2037,1961,1855,1726,1635,1422,1109,867,880,993,926,698,512,381,388,392,347,44,42,1280,2273,796,-422,-313,-111,-85,-177,-219,-204,-137,-56,-100,-220,-267,-248,-140,52,341,664,883,910,280,-1067,-2162,-1963,-981,-619,-857,-1169,-1565,-1927,-2087,-2020,-1786,-1610,-1650,-1650,-1575,-1524,-1642,-1550,-1580,-1478,-769,-983,-540,1965,3322,2251,2088,1918,1717,1783,1825,1947,1954,1922,1765,1390,950,714,813,709,508,356,272,211,248,357,501,553,553,478,358,250,145,152,167,207,273,289,327,320,266,275,183,40,-49,21,190,363,416,1039,1772,-189,-2542,-2691,-1880,-1485,-1484,-1671,-1984,-2395,-2651,-2679
2018-05-14,10:48:47.930,-2352,-2010,-1947,-1813,-1864,-1856,-1714,-1644,-1345,-1370,-1242,-639,147,589,466,766,1304,1796,1700,1717,1976,2057,2073,2012,1684,1264,900,814,963,982,760,376,-108,173,2062,2775,1101,85,69,172,96,-45,-13,29,110,112,60,42,-25,-126,-309,-479,-602,-652,-642,-567,-419,-121,245,564,721,591,-649,-2092,-2060,-1050,-50,6,-510,-976,-1148,-1496,-1531,-1052,-998,-1039,-1233,-1513,-1941,-2061,-939,981,1112,177,-416,-331,-28,276,392,534,737,924,992,986,930,616,161,-71,-45,134,288,280,227,141,137,209,258,342,349,365,376,400,353,331,390,498,453,420,492,500,338,208,80,-93,-364,-509,334,1902
2018-05-14,10:48:48.968,1319,180,164,84,-631,-2055,-2727,-2188,-1608,-1258,-1308,-1668,-1565,-1346,-1282,-1314,-1419,-1344,-1552,-1551,-1281,-1551,-1144,-693,-446,132,300,400,387,541,1082,1317,1479,1647,1648,1636,1640,1555,1413,1115,690,396,148,-242,51,1954,2594,698,-394,-339,-132,-240,-370,-315,-247,-177,-106,-82,-77,-20,-52,-66,-99,-109,-196,-304,-399,-491,-591,-532,-493,-359,-226,-62,179,410,471,-172,-1114,-1217,-546,681,730,429,7,-204,-15,107,200,-265,-593,1168,2812,1429,-152,-585,-91,250,-331,-257,8,301,576,287,158,484,448,588,570,402,376,276,-35,-531,-708,-612,-503,-554,-716,-843,-913,-823,-671,-515,-430,-271,-188,-97
2018-05-14,10:48:50.005,23,113,72,163,383,583,486,34,305,1778,1529,-164,-681,-414,-210,-55,57,200,370,362,50,-683,-2429,-3563,-2694,-1906,-2318,-2613,-2932,-3770,-4103,-3582,-3881,-4172,-4013,-4056,-4410,-4438,-3642,-3306,-2748,-1625,-853,484,1846,2573,3013,3523,4035,4312,4387,4216,3901,3327,3347,5043,5810,3711,2185,1884,1774,1525,1123,899,871,883,894,872,839,875,945,1051,1072,1083,1021,888,811,698,512,337,146,-118,-329,-497,-518,-435,-289,55,430,705,839,728,-277,-2172,-2793,-2039,-922,-667,-1582,-2615,-2456,-1168,-17,-1322,-2699,-2291,-1765,-2390,-2559,-2206,-1621,-1880,-1728,-883,-546,0,606,1200,1294,1339,1778,2203,2190,2214,2206,2135,1967,1602
2018-05-14,10:48:51.042,1301,1173,1132,1078,928,735,536,505,463,454,507,448,412,381,398,364,236,-1,677,2459,2348,512,-160,-210,-295,-380,-576,-610,-549,-495,-384,-99,172,276,413,110,-1312,-2113,-1481,-446,190,-21,-442,-783,-928,-926,-879,-349,-231,-188,-302,-637,-475,-307,-823,-323,8,-145,37,261,265,343,190,51,1342,3368,2634,870,329,205,-40,-561,-930,-955,-823,-771,-793,-896,-904,-899,-829,-754,-720,-738,-583,-526,-451,-419,-304,-224,-177,-152,-166,-239,-247,-337,-456,-585,-604,-637,-644,-529,-366,-131,77,211,55,-1128,-2762,-3243,-1489,1190,721,-1207,-1422,-1285,-1420,-1662,-1655,-1593,-1498,-1239,-1327,-1386,-995,-1329,-1581,-1167
2018-05-14,10:48:52.079,-650,-596,-675,-39,594,856,1012,1204,1444,1456,1467,1541,1511,1386,1158,856,643,571,461,335,157,-22,-140,-109,-47,1,-336,-236,1536,2788,1404,170,51,158,90,-75,-92,-159,-236,-276,-323,-370,-430,-498,-499,-429,-300,-53,302,531,649,552,-511,-1681,-1465,-488,118,118,93,118,-137,-76,321,350,250,177,242,205,-150,100,27,-305,-425,178,2632,3266,1260,596,995,795,611,615,684,631,542,401,192,-141,-393,-467,-443,-417,-433,-449,-521,-486,-370,-250,-91,47,107,105,148,169,201,281,293,369,507,545,565,499,387,189,78,29,39,-46,-9,1064,2801,2282,592,-930,-2292,-1877,-932,-644
2018-05-14,10:48:53.117,-554,-740,-593,-691,-897,-820,-517,-225,-262,-429,-471,-675,-863,-369,-476,-575,133,284,133,531,610,522,773,1066,1229,1369,1344,1234,1162,1114,851,417,91,-3,-117,-411,-255,1187,1890,300,-686,-678,-459,-390,-540,-507,-405,-333,-257,-218,-160,-148,-53,-57,-100,-103,-162,-240,-223,-262,-229,-139,-43,-34,-10,164,403,410,351,-251,-1488,-1846,-1032,-89,145,160,-123,-378,-575,-594,-762,-837,152,2357,2725,523,-316,-924,-1236,-500,-74,-44,-385,-525,76,353,227,216,393,410,324,243,168,-12,-326,-611,-707,-645,-515,-542,-661,-779,-868,-866,-730,-623,-500,-406,-332,-219,-119,-150,-205,-102,-56,-137,-382,-114
2018-05-14,10:48:54.154,1603,2075,302,-654,-607,-499,-441,-434,-303,-72,197,419,422,-10,-1268,-2186,-1756,-603,67,-145,-382,-534,-696,-699,-293,-444,-320,-97,-170,-298,-159,-364,-511,-36,450,720,770,656,885,880,759,834,950,830,586,1089,2790,2664,691,-288,-326,-187,-77,-217,-371,-479,-476,-377,-296,-226,-196,-175,-102,-34,33,123,154,303,435,498,580,554,420,242,37,-158,-317,-370,-338,-194,16,173,457,766,760,492,-400,-1448,-1357,-634,-77,1250,3234,2540,535,194,176,80,-15,100,56,-172,-227,-591,-552,-47,-22,-393,-316,100,263,156,-11,83,391,596,722,732,679,553,365,42,-401,-623,-482,-354,-301,-424
2018-05-14,10:48:55.191,-455,-529,-571,-628,-588,-561,-671,-975,-831,720,1855,552,-597,-676,-571,-561,-657,-685,-693,-832,-1026,-1089,-1119,-1128,-1094,-992,-813,-614,-453,-442,-1025,-2148,-2594,-2051,-1043,-489,-659,-821,-870,-784,-843,-809,-577,-409,-454,-445,-319,-498,-186,-450,-817,-618,-567,-489,1024,2320,1164,-13,-180,-136,-123,-205,-286,-300,-276,-462,-870,-1058,-998,-964,-995,-1011,-989,-933,-819,-740,-668,-545,-409,-319,-265,-248,-256,-182,-136,-82,21,83,116,139,120,37,-52,-149,-245,-183,-66,-11,-230,153,2085,3448,1531,-969,-1759,-1261,-474,161,142,14,25,-44,127,412,425,345,436,589,580,649,302,421,766,715,542,1589,1541,821
2018-05-14,10:48:56.228,939,751,1288,1353,1044,1076,1125,943,776,575,215,-117,-207,-161,-217,-509,-762,-50,1843,1772,114,-369,-267,-158,-185,-218,-102,-24,74,209,280,312,362,415,388,307,274,298,272,249,347,535,737,949,1153,1140,772,-298,-1218,-1215,-265,491,122,-210,-54,128,-331,-382,-72,-143,-415,-805,-901,3,1463,72,-569,-363,-131,435,570,265,504,1029,1068,929,1104,1414,1480,1369,1222,1072,751,476,388,410,377,295,143,-15,-58,-93,-118,-93,-32,62,83,171,269,278,324,333,336,331,304,189,-144,-251,851,2177,896,-645,-695,-353,-97,99,312,515,486,-190,-1767,-2586,-1716,-609,-362,-338,-203,-379
2018-05-14,10:48:57.266,-575,-723,-696,-709,-703,-765,-1141,-1042,-881,-583,209,70,67,-156,-58,106,168,789,1308,1316,1395,1453,1375,1290,917,706,1940,2642,896,-154,-159,-127,-138,-210,-97,76,169,228,234,179,120,126,148,159,151,101,116,195,216,188,199,78,-133,-238,-405,-552,-513,-433,-194,-41,12,130,145,-398,-1440,-1680,-1404,-568,-18,10,97,1182,2747,1680,247,-65,-36,18,97,15,-69,-156,-174,-138,443,431,278,212,125,49,-77,-105,-27,-60,11,41,90,89,85,-29,-407,-704,-324,-172,-390,-566,-533,-486,-409,-406,-451,-488,-405,-399,-442,-567,190,2153,2373,533,-69,197,368,366,240,174,132,73
2018-05-14,10:48:58.303,52,53,18,-145,-539,-869,-1334,-2415,-3979,-4784,-4447,-3859,-3238,-2855,-2671,-2534,-2279,-1876,-1522,-1345,-1034,-470,48,101,56,307,388,127,55,758,1092,919,1256,1682,3151,4653,3148,1640,1527,1855,1716,1279,1151,1065,695,146,-101,-26,63,69,-47,10,7,22,70,127,130,165,235,263,170,138,62,39,23,1,67,168,204,133,85,96,3,-147,-222,-230,-250,-357,-476,-11,967,-141,-2452,-3281,-2564,-1767,-1561,-1705,-1914,-2446,-2340,-1928,-1839,-2012,-1946,-1438,-1276,-1484,-1243,-586,-675,-436,-162,226,1065,1135,1589,1635,1410,1696,1863,1928,1919,1938,1829,1731,1517,1140,773,622,669,595,325,18,377,2153,2621,776
2018-05-14,10:48:59.340,43,185,282,173,58,43,143,218,219,230,243,122,56,-41,-184,-244,-266,-184,29,331,621,759,787,511,-641,-1887,-2031,-1792,-808,-326,-586,-1010,-1546,-1703,-1417,-1192,-1170,-1170,-845,-949,-1328,-1027,-503,2085,3070,1433,332,375,379,223,491,1429,1346,1317,1486,1351,1288,1272,1227,1147,930,370,0,126,180,126,57,79,59,130,143,213,259,305,307,330,317,277,200,137,155,219,90,56,107,-44,-235,371,1565,988,-453,-671,-355,-228,-276,-824,-1640,-2716,-3640,-4043,-3499,-2604,-2246,-2178,-2304,-2712,-3008,-2987,-2462,-2105,-2138,-2061,-1943,-1746,-1607,-1080,-920,-690,-334,-187,308,1148,1099,1051,2353,2971,2587,2812
2018-05-14,10:49:00.377,3195,3082,2790,2389,2027,2760,3858,2559,1038,737,619,529,325,226,309,426,472,499,481,422,439,547,749,799,802,812,658,373,197,185,78,-87,-346,-480,-406,-240,17,281,465,570,213,-1260,-2700,-2672,-1760,-1148,-1007,-1213,-1703,-2485,-2669,-1124,645,13,-1225,-1562,-1612,-1520,-1508,-1587,-1731,-1455,-631,-117,149,19,1139,1784,1321,1575,1584,1632,1972,1804,1659,1662,1502,1109,777,625,589,691,626,416,246,225,202,233,267,272,230,155,170,232,96,5,867,2238,1357,-233,-569,-433,-437,-480,-523,-483,-371,-193,-32,187,409,488,447,-137,-1559,-2881,-2741,-1933,-1233,-1069,-1206,-1706,-2161,-2370,-2293,-2047,-1581,-1581
2018-05-14,10:49:01.415,-1655,-1415,-1121,-1229,-1222,465,954,-261,349,1902,1991,2061,2415,3077,4903,5322,3760,2417,2063,1858,1436,1159,827,363,223,232,196,58,-43,-86,-50,-23,-21,32,43,5,10,107,221,284,264,211,208,234,291,302,314,346,249,49,-56,-30,79,117,185,349,552,516,136,102,522,-803,-3018,-3236,-2667,-2405,-2181,-2399,-3111,-3379,-2554,-2090,-2402,-2096,-1483,-1317,-1354,-1551,-1352,-1074,-71,305,1186,2196,1910,1738,2416,2232,1977,2323,2486,2419,2560,2537,2344,2229,2168,1795,1082,738,757,682,410,-10,29,1345,2054,671,-137,-128,49,37,-137,-119,-14,34,19,13,18,100,196,219,117,-71,-157,-200,-148,-9
2018-05-14,10:49:02.452,248,501,607,590,523,144,-866,-2277,-2875,-2355,-1646,-1468,-1730,-1972,-2146,-2270,-2438,-2731,-1971,-1173,-1667,-2299,-1239,1309,2087,-81,-893,-657,-689,411,1297,1049,1052,1510,1676,1494,1342,1430,1540,1358,1240,1019,565,316,227,332,425,1336,1429,1053,794,468,220,46,-105,-171,-177,-169,-236,-367,-394,-427,-482,-472,-387,-450,-670,-471,811,1301,-167,-849,-541,-401,-476,-749,-1254,-2248,-3344,-3288,-2595,-1583,-1378,-1639,-1918,-1971,-1786,-1567,-1859,-1899,-700,-432,-806,-604,-617,-839,-258,-531,-407,919,1366,1033,970,990,1374,1322,1250,1263,1160,1187,1301,1021,561,776,2030,1562,-56,-591,-591,-503,-432,-395,-260,-156,-157,-160,-124,-33
2018-05-14,10:49:03.489,-24,-31,90,119,216,356,394,426,364,224,197,209,110,122,231,349,425,379,286,85,-783,-2251,-2865,-2225,-1425,-1334,-1611,-1896,-1948,-2154,-2391,-856,1434,1389,20,-700,-1015,-1044,-935,-700,-246,-145,962,986,1148,2142,1874,1383,1811,1791,1622,1653,1622,1557,1469,1331,1006,419,110,124,-118,-391,-406,-350,-243,-46,154,206,271,336,260,232,200,165,116,-51,-62,1204,2703,1437,-133,-332,-196,-149,-173,-118,44,137,209,143,-238,-940,-2045,-2675,-2286,-1459,-1198,-1370,-1116,-929,-1190,-1588,-1511,-1244,-1249,-894,-1062,-1040,-622,-61,45,-235,-145,-166,952,1638,1257,1087,1518,1683,1444,1288,1951,3432,2925,1443,929,648
2018-05-14,10:49:04.526,181,-129,-197,-275,-414,-518,-514,-422,-310,-266,-234,-133,-6,-38,-3,88,108,138,276,448,380,410,492,334,105,59,146,170,243,398,535,693,661,323,-486,-2027,-3406,-3188,-2267,-1940,-1371,530,1166,-612,-1469,-1091,-924,-1014,-1203,-1118,-1191,-971,-777,-714,200,491,498,569,1229,1951,1886,1941,1698,1800,1792,1695,1639,1490,1343,1148,908,516,14,-221,-112,-185,-457,-609,-565,-445,-359,-283,-182,-107,-177,-382,109,1721,1715,117,-439,-191,38,134,184,220,127,78,1,74,73,187,336,429,300,-60,-1196,-2528,-2849,-1954,-1095,-1135,-969,-896,-1257,-1662,-1591,-1441,-1333,-1268,-1205,-1025,-915,-41,477,359,129,-72
2018-05-14,10:49:05.564,509,185,714,1381,2988,3424,2090,1472,1560,1546,1524,1436,1373,1086,695,223,100,153,-44,-276,-371,-331,-256,-201,-183,-135,-103,-67,-58,-90,-77,-74,-36,46,163,197,430,492,394,263,216,223,215,288,485,788,917,670,-104,-1362,-1453,-36,-621,-1675,-1780,-1676,-1547,-1762,-2040,-1965,-1477,-1476,-1626,-1230,-651,-766,-807,-652,-1307,-872,-163,-239,573,1330,1845,1918,1599,1462,1578,1418,1385,1516,1500,1532,1476,1334,1151,746,222,-132,-353,-603,-738,-855,-1089,-905,448,1498,277,-702,-628,-485,-399,-527,-579,-459,-407,-355,-273,-140,-19,69,35,45,108,178,272,375,460,483,364,-3,-796,-2158,-3224,-3198,-2276,-1480
2018-05-14,10:49:06.601,-1378,-1149,-1294,-1217,-1230,-1422,-1546,-1787,-1644,-1371,-977,-933,-1268,-1011,572,1809,1101,-14,-135,943,1082,1008,885,1219,1592,1419,1590,1581,1560,1541,1365,981,519,315,322,243,94,-16,-31,-43,-67,-68,28,-7,12,116,172,202,234,219,202,126,140,75,85,73,-144,-516,-655,127,1845,1523,167,143,648,769,364,-918,-2511,-2915,-2323,-1268,-590,-591,-977,-1258,-1339,-1209,-867,-692,-665,-588,-602,-855,-520,-471,147,1008,742,182,153,494,1204,1293,1353,1690,1624,1649,1618,1279,1178,1194,1041,472,-302,187,2088,1743,-74,-637,-549,-402,-227,-163,-123,-66,-33,-59,66,168,220,328,379,437,518,532,525,565
2018-05-14,10:49:07.638,533,402,329,354,297,318,479,557,513,376,-151,-1272,-2491,-2986,-2410,-1571,-1256,-1293,-1317,-1595,-1841,-2065,-1842,-604,1354,920,-936,-1475,-1022,-608,-152,-147,204,303,586,885,1106,1102,1351,1607,1495,1743,1811,1642,1664,1597,1509,1198,706,184,130,141,-55,-246,-326,-244,-101,1,85,80,149,199,185,157,191,209,252,-7,-129,1030,2809,1615,-513,-796,-663,-567,-522,-441,-86,308,642,782,580,-365,-2168,-2986,-2225,-1252,-1037,-1072,-1257,-1519,-1573,-1550,-1391,-686,-493,-906,-1093,-839,-578,-736,-820,-138,156,1029,1502,1066,791,792,1183,1335,1360,1328,1688,3088,3336,2046,1357,1057,558,219,210,30,-172,-252,-255,-221
2018-05-14,10:49:08.675,-127,-85,-32,-126,-64,-30,5,1,-3,155,234,315,334,371,333,254,118,34,17,47,180,286,384,480,414,116,-802,-2274,-3190,-3139,-2629,-2342,-2681,-326,1368,-602,-1976,-2009,-1812,-1714,-1612,-1515,-1410,-1340,-427,7,-158,327,1102,982,1099,1304,728,1452,2648,2623,1916,1603,1502,1343,1205,974,651,321,204,228,199,60,-110,-162,-204,-259,-327,-342,-316,-263,-355,-441,98,1968,2277,357,-447,-351,-293,-296,-460,-388,-381,-469,-437,-345,-261,-148,17,211,266,-45,-962,-2276,-2978,-2343,-1365,-1159,-1149,-1478,-1953,-2085,-1988,-1777,-1916,-1723,-1393,-822,-517,-797,-667,-624,-1135,-865,-668,-219,323,1001,2016,2681,2755,2237
2018-05-14,10:49:09.713,1719,1621,1639,1434,1422,1234,847,389,164,185,271,292,192,-34,-191,-232,-202,-134,-75,37,282,449,544,547,542,446,322,247,144,121,149,227,138,-61,-199,-292,-340,-266,-65,168,125,147,1321,2528,422,-2242,-2473,-1607,-1024,-1398,-1910,-2480,-3019,-3023,-2514,-2320,-2277,-1931,-2002,-2073,-1725,-1695,-1676,-974,-172,-508,-161,1135,2054,2230,2113,1929,2240,2525,2487,2352,2233,1936,1717,1474,1174,900,709,620,569,328,-72,-78,1316,2588,1420,158,-66,8,70,11,89,207,200,124,14,-146,-322,-321,-417,-472,-428,-424,-381,-216,-57,119,268,291,21,-795,-1859,-2046,-1419,-623,-607,-834,-1205,-1917,-2444,-2445,-2648,-2919
2018-05-14,10:49:10.750,-2449,-1770,-1570,-2031,-2649,-1396,1178,589,-958,-596,-548,-1029,102,1610,1630,1799,1803,1893,1794,1652,1657,1694,1526,1438,1260,988,789,682,785,771,618,403,256,243,205,170,224,254,382,523,629,698,719,695,561,413,307,269,88,-221,-7,1605,2302,428,-616,-499,-289,-105,-31,134,268,237,-205,-1277,-2340,-2372,-1426,-464,-451,-952,-1272,-1972,-1996,-1174,-917,-1066,-1241,-743,-876,-844,-335,-200,111,195,785,825,655,846,1674,1819,1779,1683,1574,1538,1310,821,768,2042,2707,959,-222,-416,-365,-214,-440,-651,-660,-660,-575,-417,-351,-313,-311,-297,-272,-207,-118,-86,-133,-80,-96,-109,-182,-291,-403,-483,-559,-574
2018-05-14,10:49:11.787,-369,-199,-119,-61,-191,-704,-1515,-2053,-1933,-1068,-638,-964,-1727,-2805,-2123,42,569,-867,-1579,-1566,-1184,-1398,-1472,-598,-644,-962,-688,46,557,810,1162,1085,923,1004,1355,1433,1317,1268,1234,1184,871,119,-197,-12,82,-32,-87,-79,-3,41,195,270,302,259,283,288,376,537,375,48,723,2983,3206,914,-246,-503,-761,-1058,-1246,-1214,-1009,-718,-239,225,492,517,249,-574,-1981,-2392,-1850,-1169,-868,-1169,-1354,-951,-723,-671,-537,-494,-377,-314,-684,-157,440,106,-94,585,694,831,1526,2304,2193,1901,1353,1314,2817,3771,2279,1102,917,933,799,539,355,259,363,460,331,294,291,428,452,514,597,614,597,562
2018-05-14,10:49:12.824,607,619,600,485,339,330,304,308,196,45,16,28,31,22,102,266,322,248,27,-263,-901,-1967,-2835,-2592,-676,-26,-1054,-1095,-1404,-1609,-1383,-1262,-1080,-1086,-1391,-1159,-668,-368,-34,-5,165,293,441,78,591,1112,1533,1583,1546,1966,1532,1358,1163,1082,1038,910,792,710,405,-33,-199,-260,-284,-281,-212,-203,-202,-342,-433,318,1673,1273,-109,-372,-184,-124,-163,-156,-117,-104,-49,11,-80,-144,-195,-255,-268,-261,-216,-87,111,141,116,-83,-492,-1109,-2031,-2449,-2053,-1420,-1436,-1387,-845,-967,-1201,-1200,-1109,-1127,-1052,-932,-1020,-1173,-1051,-1391,-214,2184,2536,1046,623,655,606,619,839,1420,1373,1080,1169,1283
2018-05-14,10:49:13.862,1242,1195,1140,989,612,49,-202,-212,-207,-196,-134,-4,77,140,134,33,69,146,109,199,291,365,398,390,370,322,326,256,137,118,-114,-152,717,1760,1055,158,214,211,-6,-625,-1533,-2444,-2474,-1890,-1455,-1338,-1168,-937,-903,-991,-1021,-869,-896,-663,-366,-473,-361,-145,-342,-118,208,-453,-228,701,746,591,211,239,1066,1276,1305,1200,1167,1222,1227,1060,690,397,1159,2006,584,-637,-769,-778,-643,-638,-693,-603,-490,-447,-371,-255,-207,-158,-150,-110,-24,35,100,86,64,80,25,-122,-273,-477,-656,-612,-472,-221,36,334,627,481,61,-933,-2289,-2898,-2489,-1035,-706,-1418,-1722,-1379,194,1991,983,-338
2018-05-14,10:49:14.899,-481,-455,-448,-548,-800,-217,434,243,176,574,595,537,453,792,1112,1314,1582,1441,1308,1283,1142,953,810,550,223,-304,-510,-359,-412,-591,-606,-415,-293,-222,-113,-72,-51,-35,47,33,-157,228,1869,2370,704,-188,-35,39,-96,-224,-290,-353,-451,-498,-455,-273,58,280,252,-74,-815,-1801,-2448,-2140,-1304,-702,-567,-1030,-825,-587,-822,-659,-726,-734,-643,-1030,-858,-529,-278,-94,278,682,501,69,-212,294,1291,2643,2644,1357,830,1026,1097,1079,1025,1002,981,756,278,68,139,31,-61,-121,-44,36,146,175,250,279,365,353,295,238,210,134,98,151,219,249,336,375,241,69,16,15,-118,-241
2018-05-14,10:49:15.936,-84,100,110,4,613,1941,369,-2655,-3170,-2448,-1677,-1474,-1778,-1785,-1191,-909,-810,-621,-488,-333,-328,-417,-228,-22,-254,168,1050,1138,520,865,1368,1266,1536,1611,1702,1325,1191,1295,1235,1048,976,891,661,359,-82,-452,-576,-798,-1208,-1002,660,1696,209,-633,-538,-309,-215,-249,-218,-133,-41,22,52,100,128,80,17,-60,-91,-1,28,84,141,279,487,609,503,5,-409,-1305,-2267,-2546,-1788,-715,-532,-925,-1079,-934,-1232,-1360,-833,-436,-528,-697,-902,-170,1962,1304,-982,-841,264,494,532,695,566,463,1009,1168,858,1237,1471,1286,1303,1261,1126,971,642,167,93,252,22,-168,-169,-240,-239,-305,-308,-239
2018-05-14,10:49:16.973,-185,6,44,58,114,101,-27,-106,-129,-290,-520,-455,629,1906,691,-856,-799,-512,-269,38,335,628,666,481,27,-1097,-2310,-2546,-1551,-577,-721,-1073,-1093,-1006,-941,-743,-721,-671,-268,-155,-744,-278,319,-194,-141,-129,-159,546,1300,1135,1186,986,1015,897,1020,834,643,829,2272,2542,982,139,-175,-383,-355,-541,-840,-919,-746,-693,-652,-553,-477,-387,-329,-249,-197,-144,-94,-36,-56,0,-17,-97,-70,-176,-200,-199,-251,-233,-162,-37,65,181,289,378,264,-220,-1131,-2472,-3220,-3221,-2061,154,1242,-288,-1650,-2050,-2109,-2000,-1721,-1321,-940,-579,-414,-568,-479,-440,-145,78,196,329,745,1381,1814,2267,2028,2128
2018-05-14,10:49:18.011,2251,1990,1750,1585,1381,1208,968,644,503,357,234,217,118,-285,-599,-625,-586,-473,-476,-464,470,2517,2386,509,-62,-67,-129,-237,-339,-475,-569,-571,-582,-656,-729,-696,-583,-415,-186,97,439,702,783,563,-645,-1994,-1802,-739,-54,-13,-352,-875,-1233,-1341,-1335,-1081,-1126,-1118,-1007,-1130,-906,-304,-282,-1220,-939,922,2265,1501,837,1054,1224,1326,1536,1557,1557,1570,1490,1414,1344,1050,661,610,586,633,742,521,203,69,96,152,208,160,126,113,58,46,54,133,132,104,88,17,-47,-104,-209,-353,-437,-510,-659,-686,55,1753,1721,515,354,496,195,-857,-2118,-2306,-1498,-591,-365,-402,-1090,-1768,-1363,-961
2018-05-14,10:49:19.048,-915,-972,-912,-972,-1570,-1132,-557,-517,44,-311,-313,456,818,518,947,1450,1260,1471,1648,1531,1443,1401,1293,1121,939,415,-475,-42,2402,2847,625,-469,-620,-512,-483,-508,-484,-374,-286,-278,-233,-228,-107,-50,41,90,110,71,-81,-182,-79,-144,-190,-154,-134,-164,-109,-32,69,32,-341,-985,-2018,-2435,-2258,-2050,-2028,-2120,-1855,-1931,-2341,-2568,-2446,-1299,-537,-1714,-2755,-2572,-3018,-3226,-1931,-931,-1527,-1063,-609,-776,-655,376,956,1180,1888,2274,2459,2779,3048,3108,2901,2400,1771,1439,1479,1463,1324,1071,973,1025,1106,1160,1161,1135,1155,1149,1116,1179,1255,1132,854,1213,2872,3060,651,-540,-545,-663,-781,-953,-851,-680
2018-05-14,10:49:20.085,-396,-115,143,390,500,412,-212,-1366,-2780,-3421,-2966,-2053,-1121,-1065,-1328,-1831,-2267,-2225,-2021,-1495,-1254,-1458,-1878,-1629,-1581,-1901,-1044,-273,-500,554,619,374,577,546,1560,3594,3070,1849,1595,1712,1904,1971,1770,1236,674,511,573,517,424,339,231,305,412,520,622,606,621,670,782,780,731,687,590,443,282,152,93,47,13,-100,-182,-207,-167,-125,-5,168,371,407,231,295,1303,47,-2487,-2846,-2071,-1714,-1969,-2109,-2017,-1814,-1696,-1810,-1148,-562,-510,-462,-1166,-1576,-434,-659,-200,817,1315,926,1024,2395,2208,1709,2435,2946,2562,2052,1886,1786,1604,1386,1045,612,335,171,205,139,-228,-613,-262,1386,1651,326
2018-05-14,10:49:21.122,78,440,529,380,233,78,-95,-169,-179,-230,-252,-390,-401,-308,-222,-155,9,187,299,423,559,646,599,111,-1358,-2875,-2347,-1504,-793,-964,-1571,-1623,-1876,-2058,-1724,-1745,-1733,-1669,-1744,-2358,-2314,-377,1529,1511,831,220,-387,468,1275,1413,1799,1901,1909,2032,1966,1917,1779,1641,1410,1013,556,211,147,206,244,16,-211,-332,-292,-111,30,193,347,471,497,401,305,259,157,-79,-320,-440,-490,-630,-826,-736,564,1533,151,-865,-485,7,301,456,603,681,162,-1521,-2763,-2412,-1488,-68,-216,-1002,-1335,-1529,-1583,-1313,-1284,-1345,-1097,-1063,-1279,-941,-823,-1624,-1176,-348,43,-382,-604,161,881,1269,955,1801,2239,2099
2018-05-14,10:49:22.160,1995,1697,1641,2663,2711,976,206,205,121,25,-164,-268,-207,-115,-57,-3,106,203,283,355,341,275,300,307,272,293,327,304,141,-16,-189,-279,-273,-159,96,435,882,1082,930,-30,-1962,-2760,-1803,-194,75,-837,-1642,-1215,1022,1893,222,-940,-1111,-707,-638,-631,-420,-776,-498,-469,-545,40,50,219,560,942,1082,1379,1492,1432,1387,1350,1258,1055,679,78,-266,-230,-240,-306,-443,-501,-577,-542,-428,-363,-345,-292,-213,-167,-248,-336,406,2053,1693,92,-367,-300,-295,-361,-553,-624,-657,-649,-612,-491,-291,-27,129,94,-368,-1564,-2741,-2802,-2142,-1437,-1482,-1793,-2079,-2295,-2248,-2122,-2096,-2090,-2443,-1900,-955,-1126
2018-05-14,10:49:23.197,-1011,-923,-930,-362,-361,-175,206,629,1393,3376,3594,2007,1451,1521,1458,1308,1186,1013,831,544,127,-33,-78,-151,-189,-405,-647,-601,-449,-314,-205,-103,-64,14,94,137,140,137,64,-29,-55,-137,-327,-504,-578,-618,-746,-846,-800,-635,-446,-456,-200,1623,3343,1603,-1289,-2103,-1425,-983,-1153,-1198,-1261,-1649,-1343,-894,-843,-991,-879,-817,-842,-935,-617,-672,-762,141,925,1223,1007,802,997,1111,1152,1413,1573,1731,1815,1820,1693,1538,1142,572,334,439,534,295,106,982,2097,1181,218,190,303,443,443,437,494,510,546,562,558,538,571,509,438,424,313,287,197,156,241,390,556,696,741,660,381,-370
2018-05-14,10:51:47.845,391,304,187,53,-52,-98,-142,-178,-197,-192,-181,-190,-162,-123,-125,-109,-96,-88,-70,-23,35,50,12,8,2,-58,-131,-107,-77,-89,-100,-273,-534,43,1940,2565,732,-525,-542,-416,-446,-521,-499,-458,-441,-429,-379,-331,-289,-260,-270,-250,-237,-244,-189,-120,-57,1,35,32,18,-46,-115,-166,-215,-255,-281,-267,-247,-249,-257,-243,-234,-207,-173,-153,-112,-90,-73,-40,1,-35,-45,-24,-52,-88,-113,-109,-117,-110,-171,-478,-528,832,2758,2169,87,-569,-410,-363,-469,-520,-487,-462,-438,-406,-372,-337,-302,-261,-240,-219,-198,-136,-43,46,101,158,191,169,96,21,-61,-137,-182,-201,-222,-224
2018-05-14,10:51:48.883,-228,-205,-191,-172,-149,-107,-111,-114,-102,-79,-31,33,36,33,47,35,-24,-77,-70,-71,-62,-55,-252,-399,412,2224,2038,191,-476,-370,-265,-199,-230,-219,-186,-151,-150,-131,-74,-39,-19,0,0,31,83,133,184,266,323,332,323,263,160,66,-19,-89,-129,-136,-150,-187,-223,-224,-193,-209,-239,-244,-235,-219,-229,-193,-115,-109,-146,-146,-158,-197,-277,-283,-258,-268,-320,-578,-770,175,2168,2280,345,-607,-584,-543,-623,-688,-645,-608,-589,-538,-480,-421,-368,-355,-337,-296,-266,-237,-222,-175,-115,-77,-60,-96,-141,-207,-271,-328,-348,-347,-325,-323,-314,-292,-288,-274,-272,-254,-232,-198,-143,-130
2018-05-14,10:51:50.270,-72,1,48,38,36,63,18,-33,-31,-18,-31,-26,-123,-429,-304,1366,3035,1894,43,-322,-142,-140,-221,-254,-217,-155,-155,-116,-85,-65,-41,-25,-11,5,43,118,199,307,452,558,612,565,402,173,-27,-183,-279,-288,-247,-169,-93,-29,21,55,34,11,-22,-45,-34,4,82,162,182,129,161,171,141,149,148,149,139,-61,-325,132,1856,2468,716,-379,-406,-321,-278,-334,-308,-265,-223,-179,-156,-145,-97,-72,-55,-55,-55,-59,-70,27,135,245,297,289,232,166,90,52,46,56,106,162,201,222,263,296,343,366,384,422,450,446,486,519,533,483,463,445,368,266,215,209
2018-05-14,10:51:51.307,175,142,-90,-488,-225,1653,2946,1572,-79,-522,-590,-699,-799,-814,-774,-773,-759,-710,-675,-654,-662,-668,-654,-629,-606,-572,-481,-368,-327,-291,-302,-339,-377,-373,-418,-440,-406,-384,-347,-281,-224,-192,-175,-175,-163,-134,-90,-52,-6,57,139,154,106,71,78,3,-64,-87,-112,-142,-113,-158,-386,-54,2419,4415,3055,1143,555,441,292,61,-48,-67,-137,-239,-336,-385,-455,-481,-503,-532,-480,-381,-175,-7,132,292,356,380,348,272,162,47,-71,-127,-163,-194,-216,-214,-238,-250,-225,-197,-220,-183,-115,-32,58,169,225,208,227,224,135,56,20,-16,-35,-69,-306,-548,-19,1779,2273,538,-506,-449
2018-05-14,10:51:52.344,-389,-366,-425,-442,-434,-472,-595,-655,-667,-652,-675,-691,-662,-612,-551,-475,-366,-273,-212,-158,-150,-161,-181,-228,-309,-365,-355,-343,-350,-315,-264,-248,-229,-159,-106,-98,-76,-53,-5,63,138,166,159,169,116,72,67,106,131,161,146,-154,-180,1138,3024,2333,360,-221,-96,-35,-69,-102,-64,-40,-31,-46,-27,-14,-19,7,25,30,44,74,94,136,186,233,274,247,201,133,53,-28,-69,-112,-140,-141,-113,-92,-76,-71,-91,-70,-50,-26,3,28,50,83,69,66,97,67,27,65,118,154,222,146,-146,107,1907,3412,2106,298,-151,-141,-253,-395,-457,-462,-450,-443,-459,-455,-448,-398
2018-05-14,10:51:53.382,-340,-310,-272,-236,-187,-115,-45,8,51,74,52,-10,-81,-139,-207,-220,-219,-226,-229,-207,-185,-196,-188,-181,-200,-218,-228,-181,-138,-115,-140,-176,-155,-225,-353,-467,-495,-525,-560,-641,-940,-1033,14,1812,1394,-430,-1024,-893,-816,-758,-763,-776,-763,-747,-737,-713,-658,-593,-548,-526,-469,-381,-302,-215,-116,-37,40,83,100,75,25,-4,-42,-81,-64,-9,39,65,48,61,79,122,139,153,109,77,130,168,142,87,57,4,-69,-95,-77,-64,-46,-47,-269,-355,681,2678,2486,580,-160,-149,-98,-42,-64,-40,13,60,122,192,252,297,349,376,420,453,481,543,609,683,737,770,789,741
2018-05-14,10:51:54.419,635,525,465,413,327,269,217,146,98,41,2,-20,-27,-22,-30,-19,16,55,53,0,-1,-25,-96,-159,-144,-136,-130,-183,-480,-516,762,2795,2482,444,-396,-397,-405,-534,-581,-560,-574,-620,-670,-685,-697,-704,-675,-623,-580,-565,-539,-479,-412,-315,-229,-167,-147,-150,-194,-266,-322,-369,-409,-425,-415,-426,-441,-434,-421,-406,-384,-354,-321,-327,-292,-244,-225,-266,-269,-284,-329,-380,-381,-379,-357,-375,-593,-838,-194,1738,2385,698,-618,-825,-733,-686,-753,-736,-685,-651,-606,-612,-596,-537,-512,-350,-243,-246,-188,-26,157,176,217,355,496,532,587,648,641,584,536,612,568,521,538,537,505,587
2018-05-14,10:51:55.456,636,498,490,628,720,749,798,744,719,681,563,398,362,378,289,98,-174,-473,-47,1566,1954,3,-1297,-1595,-1815,-2272,-2898,-3386,-3635,-3812,-4076,-4320,-4350,-4248,-3945,-3621,-3243,-2909,-2652,-2346,-1959,-1753,-1762,-1827,-1792,-1697,-1642,-1579,-1551,-1600,-1514,-571,82,236,369,424,336,291,257,125,-200,-211,-46,-271,-282,269,304,689,1179,1197,1071,1621,2312,1660,1414,2003,3855,7019,7581,5316,3519,3062,2659,2170,3250,5505,6985,7523,7322,6807,5988,5334,4707,4011,3362,2940,2649,2574,2639,2620,2310,1447,752,216,-460,-1032,-1643,-2061,-2377,-2814,-3313,-4183,-4780,-5227,-5650,-5835,-5971,-6128,-5946,-5294,-4602,-4161,-4023,-3919,-3876,-3836,-3934,-3850
2018-05-14,10:51:56.493,-2857,-1686,-1182,-862,-901,-1036,-727,905,1679,406,-532,-524,-392,-122,5,-12,266,602,979,1116,997,831,1111,1380,1346,1609,1934,2018,2450,2505,2789,3145,3119,3049,2966,3193,2713,2040,2530,3955,4469,3985,3077,2023,752,-552,-1960,-2773,-2170,-937,229,1164,1728,2071,2175,2452,4467,5557,4990,3912,2515,-110,-2378,-3282,-2974,-1121,-712,-2314,-2966,-2457,-2122,-2069,-2167,-2259,-2384,-2424,-2485,-2736,-3121,-3863,-4559,-5090,-5498,-5854,-5970,-5850,-5568,-5328,-5153,-4894,-4596,-4235,-3958,-3600,-3046,-3052,-3353,-3022,-2143,-1407,-684,-190,-142,330,1168,1418,2108,2760,3126,3725,4002,4248,4811,5240,4633,3763,3195,3188,3523,4513,5193,5686,7459,8703,6552,3872,3033,2949
2018-05-14,10:51:57.531,2873,2724,2706,2564,2452,2398,2313,2192,2064,1747,1331,1033,724,335,-197,-841,-1405,-1841,-2088,-2172,-2154,-2237,-2489,-2783,-3073,-3280,-3340,-3364,-3380,-3469,-3665,-3908,-4027,-4208,-4578,-4812,-4698,-4608,-4527,-4394,-4470,-4661,-4067,-3381,-3306,-2916,-2549,-1824,-1606,-1753,-816,-280,1384,3986,3730,2917,2535,2191,2856,3358,3309,2946,2763,2788,2558,2359,2202,1998,2132,2695,3491,4129,4643,5311,5436,4816,4348,4013,3073,2567,2276,2127,2171,2303,2481,2562,2477,2263,2105,1861,1453,1133,667,26,-499,-809,-1161,-1500,-1667,-1944,-2145,-2344,-2385,-2423,-2581,-2789,-2959,-3225,-3728,-3754,-2191,-561,-1809,-3850,-4160,-3825,-3911,-4007,-3910,-3689,-3447,-3081,-2761,-2324,-2044,-1825,-1796,-1278
2018-05-14,10:51:58.568,-829,-1087,-779,-128,334,646,548,1024,1414,1293,1592,1829,1752,1700,1505,1183,783,433,127,8,201,617,1104,1442,1525,1219,931,822,959,1260,1607,1770,1826,1945,2036,2295,2670,2771,2478,2537,3825,5002,3656,1899,1288,1142,806,385,-119,-520,-949,-1562,-2158,-2417,-2593,-2617,-2368,-2038,-1814,-1652,-1510,-1600,-1816,-1991,-2134,-2299,-2417,-2227,-2070,-2181,-2163,-2068,-2039,-1988,-1855,-1717,-1629,-1409,-1216,-1001,-808,-631,-629,-422,-87,-43,107,62,299,795,555,613,1210,1306,1369,1712,1688,2359,4791,5809,4075,2677,2017,1271,601,-4,63,100,80,171,371,687,983,1204,1419,1593,1750,1827,1944,2063,2124,2172,2297,2583,2714,2747,2701,2533
