2018-05-15,16:30:47.170,-1085,-1056,-1005,-967,-947,-919,-905,-876,-887,-904,-900,-902,-919,-937,-947,-957,-941,-889,-805,-688,-557,-403,-203,22,260,479,664,807,895,916,920,896,830,775,717,649,588,541,483,414,360,321,299,276,248,241,233,236,225,215,203,192,191,194,198,185,177,147,144,136,120,118,121,105,97,91,59,20,-63,-116,-166,-214,-194,-134,-44,40,106,184,187,185,177,171,127,-225,-1144,-844,1052,2355,3298,2779,1534,303,-756,-1127,-1077,-1038,-1037,-1022,-990,-972,-941,-915,-892,-880,-860,-846,-844,-878,-889,-914,-942,-947,-941,-933,-885,-807,-712,-597,-443,-253,-44,176,391,584,713,787,820,818
2018-05-15,16:30:48.207,779,747,723,654,582,536,489,442,374,312,281,256,224,205,185,183,183,176,175,175,174,167,157,149,143,122,122,114,87,77,30,-66,-146,-202,-241,-235,-183,-127,-54,40,129,188,172,152,146,128,21,-703,-1232,399,2161,3180,3455,2306,910,-439,-1208,-1235,-1160,-1145,-1123,-1093,-1032,-992,-967,-955,-922,-914,-918,-911,-924,-937,-972,-1010,-1005,-997,-983,-960,-894,-801,-677,-508,-306,-100,134,368,564,713,819,865,889,894,853,791,746,688,608,553,502,432,381,340,316,293,243,226,213,218,214,217,203,188,186,180,176,162,151,125,119,118,91,65,-10,-83,-125,-198,-226,-179
2018-05-15,16:30:49.244,-139,-48,61,160,192,181,159,146,144,87,-480,-1184,-38,1804,2895,3415,2438,1118,-184,-1070,-1178,-1113,-1079,-1057,-1032,-973,-950,-919,-884,-860,-847,-850,-847,-851,-865,-874,-888,-918,-927,-924,-891,-829,-764,-659,-509,-347,-150,60,296,519,691,791,857,885,864,830,778,726,670,593,518,479,429,365,330,302,262,213,193,187,179,189,187,162,147,149,132,130,105,94,64,-7,-100,-143,-190,-240,-219,-165,-106,-30,48,123,123,116,101,89,60,-191,-1051,-1131,865,2245,3243,2916,1716,538,-609,-1235,-1242,-1183,-1164,-1139,-1110,-1072,-1041,-1017,-1002,-979,-964,-973,-993,-1005,-1021,-1047,-1058,-1070,-1066,-1016
2018-05-15,16:30:50.281,-941,-858,-748,-595,-415,-209,20,267,489,652,777,850,889,890,872,836,788,720,645,582,515,458,414,370,342,303,262,233,239,226,235,234,226,219,206,191,177,164,153,146,125,123,106,60,-40,-101,-131,-177,-198,-153,-83,-7,76,167,206,194,169,159,133,44,-598,-1172,269,2126,3129,3463,2378,980,-359,-1188,-1270,-1199,-1161,-1130,-1096,-1057,-1032,-1001,-984,-968,-949,-942,-941,-960,-976,-990,-1001,-1018,-1021,-1007,-970,-898,-815,-692,-533,-332,-102,131,369,587,760,856,922,956,932,903,868,821,756,677,604,547,489,436,381,334,314,299,269,251,233,221,220,220,223,218,201,193
2018-05-15,16:30:51.319,174,171,177,139,122,121,106,52,-59,-103,-133,-187,-200,-150,-80,-9,82,163,193,169,151,136,122,11,-713,-1304,225,1885,2987,3200,2055,888,-218,-1033,-1158,-1096,-1073,-1064,-1038,-998,-969,-948,-916,-905,-904,-907,-917,-920,-941,-987,-1025,-1042,-1053,-1032,-994,-927,-839,-721,-554,-366,-160,87,301,478,632,724,770,790,783,748,691,638,585,533,477,427,361,310,287,246,213,190,176,173,183,164,168,172,171,163,171,172,174,157,140,124,99,91,80,51,-11,-124,-158,-183,-209,-194,-134,-58,40,118,181,182,170,156,137,95,-267,-1142,-675,1541,2828,3597,3026,1672,254,-948,-1344,-1268
2018-05-15,16:30:52.356,-1245,-1215,-1169,-1127,-1091,-1049,-1023,-1001,-976,-977,-986,-983,-1003,-1022,-1034,-1048,-1066,-1062,-1033,-985,-903,-792,-633,-442,-226,35,287,509,685,824,907,929,922,889,849,789,725,660,593,528,462,407,352,319,283,252,243,227,223,214,210,207,205,189,181,179,177,161,145,154,147,132,125,103,89,64,53,42,15,-50,-144,-181,-225,-272,-246,-196,-125,-52,43,129,139,131,130,124,87,-249,-1132,-761,1337,2703,3540,3036,1708,305,-873,-1301,-1230,-1183,-1149,-1121,-1089,-1056,-1021,-978,-958,-946,-930,-915,-917,-926,-948,-965,-988,-995,-993,-959,-919,-854,-741,-600,-433,-219,37,292,504,693,859,947
2018-05-15,16:30:53.393,985,984,948,887,852,806,730,656,585,522,460,397,351,307,276,255,241,217,226,225,205,201,205,202,176,176,161,141,146,127,89,86,88,64,60,41,29,21,-1,-55,-134,-170,-212,-268,-259,-206,-142,-54,26,108,117,78,60,44,14,-297,-1203,-998,1020,2344,3270,2819,1616,431,-689,-1273,-1258,-1205,-1192,-1169,-1142,-1106,-1064,-1030,-1011,-1008,-1003,-982,-990,-1014,-1030,-1056,-1081,-1106,-1101,-1055,-989,-914,-796,-636,-451,-226,16,263,500,673,797,888,922,924,895,856,799,741,680,616,556,481,424,383,341,295,275,246,229,226,210,198,221,216,204,197,180,162,144,135,131,107
2018-05-15,16:30:54.430,106,111,87,55,49,40,39,34,24,25,18,3,-13,-31,-80,-162,-199,-255,-285,-259,-203,-135,-53,38,116,135,136,122,121,80,-296,-1209,-714,1437,2770,3578,3000,1642,225,-946,-1331,-1269,-1220,-1206,-1167,-1129,-1089,-1056,-1015,-986,-977,-978,-988,-988,-1007,-1038,-1057,-1065,-1079,-1080,-1060,-1007,-917,-809,-680,-495,-267,-2,254,496,707,859,944,986,1009,975,912,871,805,724,655,582,511,459,407,347,312,283,258,235,213,199,192,200,203,194,194,195,184,182,171,166,146,139,120,108,89,92,75,50,41,26,19,8,13,7,3,-5,-34,-123,-169,-205,-254,-233,-180,-97,-13,78
2018-05-15,16:30:55.468,160,183,169,156,132,110,-39,-851,-1211,485,2157,3261,3295,2072,787,-411,-1148,-1215,-1163,-1147,-1127,-1086,-1038,-1007,-980,-946,-936,-917,-902,-924,-942,-955,-972,-997,-1015,-1027,-1031,-1000,-933,-839,-723,-571,-367,-125,117,378,587,749,868,919,932,922,883,837,782,714,651,586,503,430,385,335,296,263,230,193,164,149,143,144,154,146,151,136,129,132,121,119,107,94,83,70,53,44,42,22,26,15,11,6,-32,-75,-168,-204,-240,-284,-311,-249,-179,-94,6,115,156,132,117,100,92,-14,-763,-1299,257,2059,3143,3395,2314,1004,-293,-1166,-1269,-1202,-1179,-1158,-1140,-1095,-1038,-1001,-993,-984
2018-05-15,16:30:56.505,-958,-961,-980,-970,-988,-1021,-1043,-1058,-1074,-1076,-1030,-955,-870,-734,-553,-352,-129,126,385,597,770,886,938,970,978,939,885,818,757,690,614,548,492,437,379,337,295,256,227,219,207,188,185,186,173,180,181,179,160,137,121,118,113,110,96,76,62,68,59,41,17,16,24,16,5,-14,-43,-142,-219,-238,-275,-278,-230,-165,-83,16,112,156,139,123,99,86,30,-543,-1290,-166,1792,2960,3523,2611,1262,-112,-1097,-1297,-1211,-1186,-1170,-1138,-1093,-1051,-1022,-991,-964,-955,-942,-945,-942,-960,-993,-1019,-1045,-1066,-1070,-1037,-991,-920,-797,-644,-441,-214,30,293,524,715,856,934,964,966
2018-05-15,16:30:57.542,949,904,845,785,705,647,588,516,452,412,368,344,316,291,268,261,241,224,215,216,207,205,191,176,170,158,137,127,110,88,71,74,60,39,30,21,23,19,12,-44,-146,-187,-253,-319,-287,-228,-158,-70,27,108,124,128,116,101,72,-160,-1038,-1173,608,2044,3164,2986,1829,678,-440,-1122,-1137,-1075,-1069,-1050,-1026,-1005,-978,-944,-925,-905,-908,-909,-929,-946,-966,-976,-994,-1021,-1033,-1025,-990,-929,-826,-692,-522,-325,-96,142,377,585,726,819,880,890,872,842,781,709,669,602,534,486,436,385,349,296,264,243,221,208,201,185,177,175,152,147,157,150,137,134,123,116
2018-05-15,16:30:58.579,92,103,84,64,46,36,28,23,21,-2,-40,-125,-177,-204,-264,-295,-241,-168,-86,7,100,164,162,141,121,105,62,-491,-1296,-190,1811,2930,3544,2659,1321,-51,-1088,-1301,-1226,-1204,-1199,-1167,-1108,-1060,-1033,-1003,-992,-974,-964,-956,-961,-975,-1002,-1035,-1064,-1091,-1094,-1069,-1018,-921,-804,-660,-463,-213,63,320,553,737,866,956,984,974,952,920,859,791,712,640,584,523,468,416,354,313,279,248,223,205,190,178,184,169,157,157,165,150,139,150,136,118,114,93,86,100,87,88,83,69,44,-4,-134,-191,-221,-272,-267,-221,-156,-75,23,118,156,144,138,122,91,6,-672,-1357
2018-05-15,16:30:59.616,148,2012,3106,3482,2415,1044,-338,-1225,-1317,-1231,-1204,-1183,-1142,-1099,-1052,-1003,-965,-953,-941,-926,-938,-940,-960,-990,-1012,-1034,-1028,-1040,-1014,-957,-868,-747,-597,-388,-141,101,367,611,783,905,991,1016,996,966,901,831,769,698,652,581,522,481,415,360,324,283,254,225,199,195,194,192,185,180,173,161,152,143,129,121,102,104,103,80,64,61,51,32,13,-44,-143,-185,-218,-283,-262,-194,-121,-56,33,122,144,119,118,110,89,-119,-948,-1220,519,2034,3172,3071,1891,715,-426,-1139,-1177,-1135,-1117,-1088,-1064,-1034,-997,-975,-944,-934,-933,-921,-910,-931,-951,-966,-996,-1040,-1049,-1025,-997,-938
2018-05-15,16:31:00.654,-842,-714,-555,-337,-91,157,378,580,760,879,933,931,917,880,803,747,697,620,556,503,445,407,361,335,297,257,237,204,187,185,174,172,155,140,138,152,154,149,119,110,94,92,85,54,35,16,27,28,4,-29,-129,-189,-207,-270,-290,-240,-170,-91,-11,77,147,150,117,96,106,65,-372,-1214,-606,1447,2664,3456,2797,1555,227,-922,-1272,-1198,-1170,-1154,-1138,-1086,-1046,-1022,-988,-971,-959,-951,-947,-958,-987,-1020,-1043,-1064,-1095,-1103,-1074,-1026,-948,-821,-662,-472,-243,15,281,520,712,852,937,992,996,959,911,845,782,728,667,593,521,454,401,361,301,266,247,208,192,180
2018-05-15,16:31:01.691,177,159,150,159,158,149,147,146,141,124,130,128,108,85,63,70,73,46,35,26,8,0,14,-2,-36,-130,-197,-218,-284,-312,-262,-191,-122,-31,66,143,134,109,105,106,67,-309,-1195,-721,1391,2697,3526,2983,1677,235,-968,-1340,-1262,-1203,-1190,-1155,-1126,-1081,-1035,-1003,-989,-974,-971,-970,-973,-996,-1020,-1038,-1053,-1082,-1088,-1076,-1041,-970,-867,-723,-535,-306,-52,212,466,678,837,955,1005,1006,964,925,875,818,761,691,625,556,490,432,385,341,295,255,222,213,180,178,183,173,174,180,179,167,156,171,172,146,111,102,105,93,72,64,58,44,26,23,20,1,-15,-16
2018-05-15,16:31:02.728,-27,-67,-166,-198,-222,-304,-317,-251,-179,-109,-18,67,116,107,89,87,72,-14,-631,-1320,-106,1769,2906,3383,2326,1106,-111,-1042,-1193,-1133,-1100,-1073,-1048,-1015,-986,-955,-916,-892,-888,-882,-894,-914,-935,-947,-982,-994,-1007,-995,-966,-914,-844,-755,-589,-398,-177,63,320,547,724,846,929,981,960,925,889,827,766,702,645,572,504,448,392,359,316,277,248,214,189,189,177,164,162,143,142,149,134,132,149,145,116,107,93,77,58,53,36,31,17,15,-2,-7,-11,-22,-44,-111,-193,-227,-278,-312,-289,-242,-159,-72,13,78,82,71,71,72,42,-189,-1042,-1170,805,2284,3328,3206
2018-05-15,16:31:03.765,1953,621,-626,-1274,-1266,-1206,-1177,-1152,-1129,-1094,-1055,-1010,-983,-953,-953,-948,-947,-968,-991,-1013,-1047,-1064,-1086,-1072,-1030,-958,-864,-742,-556,-325,-66,196,436,674,851,960,1014,1027,1017,976,918,866,799,738,670,617,546,477,407,355,322,275,232,197,175,168,155,156,144,141,143,137,128,124,98,104,99,70,45,52,58,39,18,27,34,14,-16,-39,-36,-37,-30,-38,-43,-46,-83,-152,-207,-232,-280,-288,-237,-197,-99,16,66,101,104,83,68,54,8,-549,-1383,-246,1776,2928,3525,2611,1256,-116,-1102,-1264,-1187,-1161,-1148,-1102,-1062,-1047,-1015,-979,-950,-941,-940,-921,-953,-974,-1009,-1037
2018-05-15,16:31:04.802,-1059,-1073,-1090,-1074,-1021,-940,-816,-659,-469,-248,20,293,523,722,888,990,1012,1016,1007,955,891,832,766,695,630,562,507,454,390,337,298,264,236,223,196,190,187,178,179,182,176,164,161,152,141,134,121,119,109,85,63,65,68,61,56,54,39,38,30,19,5,-9,-26,-44,-89,-161,-229,-277,-298,-258,-208,-104,-2,33,61,74,77,69,39,6,-361,-1273,-876,1070,2380,3288,2704,1515,326,-749,-1213,-1176,-1135,-1115,-1083,-1052,-1021,-971,-948,-926,-904,-901,-901,-901,-912,-938,-968,-1002,-1021,-1022,-1029,-998,-918,-808,-678,-504,-283,-53,188,425,623,782,888,947,965,941,902,846
2018-05-15,16:31:05.840,789,725,658,587,518,450,399,348,305,258,226,209,184,168,163,167,171,171,167,167,145,134,113,104,105,104,105,100,89,76,71,44,40,55,41,25,13,13,17,0,-19,-25,-69,-144,-176,-209,-228,-200,-164,-35,73,99,138,139,120,113,122,98,-241,-1139,-979,936,2300,3244,2826,1692,580,-497,-1101,-1117,-1099,-1096,-1068,-1030,-988,-969,-945,-929,-918,-921,-949,-960,-986,-1029,-1070,-1121,-1142,-1157,-1156,-1133,-1067,-955,-799,-608,-398,-122,170,380,590,747,850,901,933,923,860,785,729,656,612,533,488,417,368,355,337,263,95,68,34,13,0,-80,-89,-40,-32,-80,-96,-92
2018-05-15,16:31:06.877,-102,-84,-68,-43,-30,-1,23,41,60,76,99,139,156,161,176,169,146,124,36,-19,-61,-79,-117,-60,34,60,95,143,158,142,146,125,76,-155,-1057,-873,1217,2555,3426,3194,1684,233,-905,-1324,-1268,-1195,-1171,-1135,-1052,-982,-931,-892,-859,-831,-820,-808,-800,-825,-868,-898,-922,-956,-976,-987,-970,-918,-803,-662,-486,-263,-17,243,492,704,843,930,989,991,954,895,820,770,693,610,537,479,463,420,363,355,361,314,320,325,305,287,268,268,259,262,276,272,261,251,235,217,194,188,171,175,168,143,119,102,46,-43,-81,-124,-139,-101,-47,29,110,177,217,234,231,200
2018-05-15,16:31:07.914,217,187,-134,-1090,-860,1082,2280,3220,2737,1485,409,-641,-1136,-1107,-1063,-1055,-1061,-1036,-1005,-975,-956,-941,-925,-921,-942,-965,-968,-1008,-1045,-1089,-1142,-1154,-1125,-1104,-1053,-965,-848,-665,-440,-195,62,323,534,681,816,862,855,839,803,753,692,634,591,524,483,404,387,358,308,296,263,250,245,205,194,184,171,175,187,215,194,192,211,193,198,117,66,54,9,18,71,154,233,316,428,482,458,412,360,338,243,-258,-1135,-434,1729,2795,3405,2659,1482,433,-609,-1163,-1197,-1175,-1168,-1145,-1078,-1047,-1003,-981,-974,-955,-970,-984,-1025,-1068,-1089,-1130,-1154,-1175,-1189,-1149,-1090,-979,-810,-591,-324,-52
2018-05-15,16:31:08.951,269,565,794,1001,1129,1240,1289,1296,1263,1180,1085,1015,996,958,863,790,709,648,628,618,598,551,540,503,478,483,415,370,348,314,267,240,241,197,140,42,-116,-160,-212,-262,-255,-202,-140,-82,-2,75,57,26,0,-35,-81,-404,-1376,-1299,933,2292,3200,2887,1630,291,-965,-1551,-1515,-1448,-1428,-1397,-1353,-1292,-1243,-1193,-1162,-1148,-1119,-1126,-1112,-1130,-1138,-1157,-1200,-1186,-1163,-1113,-1063,-992,-870,-719,-534,-297,-25,252,500,726,882,971,1018,1014,997,923,857,793,716,658,590,539,495,408,365,324,269,211,178,182,244,285,276,209,176,144,101,35,-126,-188,-247,-288,-259,-214,-156,-105
2018-05-15,16:31:09.989,-13,92,62,41,4,-30,-60,-254,-1122,-1406,534,2255,3267,3259,2034,609,-776,-1496,-1516,-1424,-1391,-1387,-1342,-1271,-1262,-1231,-1185,-1158,-1134,-1138,-1150,-1184,-1205,-1226,-1258,-1258,-1259,-1232,-1185,-1103,-1000,-830,-624,-398,-141,152,417,625,766,877,937,924,907,857,831,734,651,602,543,477,404,366,350,311,279,252,240,203,193,167,150,141,73,-17,-58,-111,-132,-97,-38,38,135,210,244,230,196,166,158,124,-157,-1033,-877,1178,2590,3486,3100,1730,351,-837,-1327,-1277,-1212,-1198,-1184,-1117,-1066,-1039,-1006,-974,-965,-972,-960,-963,-972,-983,-1005,-1025,-1020,-1019,-1000,-956,-895,-801,-655,-465,-261,-34,227,481
2018-05-15,16:31:11.026,677,797,881,917,903,876,842,773,693,625,568,519,461,407,364,331,324,306,281,268,251,220,188,108,60,1,-38,-49,-9,82,174,248,281,280,264,257,229,198,155,-308,-1126,-326,1511,2612,3346,2511,1271,33,-948,-1193,-1113,-1061,-1021,-987,-950,-896,-854,-839,-817,-780,-765,-799,-818,-839,-865,-876,-859,-880,-880,-838,-800,-723,-623,-509,-302,-94,128,372,589,708,810,835,858,828,777,737,685,609,559,483,393,364,354,299,284,247,199,187,143,139,124,-2,-46,-123,-191,-153,-101,-45,39,127,218,221,176,159,154,114,-155,-1008,-970,956,2354,3290,2844,1644,472,-675,-1264,-1228
2018-05-15,16:31:12.063,-1185,-1165,-1136,-1108,-1072,-1050,-1009,-967,-966,-970,-990,-1004,-1030,-1043,-1045,-1064,-1069,-1075,-1035,-979,-887,-733,-566,-364,-147,105,352,537,699,818,861,880,848,820,748,693,643,564,516,459,407,368,319,298,278,257,252,243,251,240,217,166,62,27,-25,-57,-12,43,119,190,272,325,296,278,258,231,162,-325,-1154,-377,1724,2876,3597,2752,1397,57,-1005,-1267,-1177,-1168,-1148,-1132,-1092,-1043,-1022,-978,-970,-954,-934,-958,-972,-998,-1029,-1057,-1078,-1031,-991,-948,-890,-806,-660,-510,-308,-73,171,429,629,781,877,924,951,939,889,830,786,731,665,610,560,497,457,405,367,341,333,309,289,308
2018-05-15,16:31:13.100,300,273,261,217,140,66,-3,-60,-58,9,69,138,231,273,265,242,230,219,167,-179,-1109,-820,1301,2580,3473,2794,1541,371,-726,-1176,-1172,-1141,-1134,-1109,-1064,-1048,-1002,-987,-992,-987,-998,-996,-1013,-1029,-1061,-1099,-1099,-1106,-1095,-1065,-1016,-913,-802,-655,-457,-232,17,248,469,627,728,807,819,812,774,717,676,610,557,492,427,374,321,289,237,194,198,182,177,161,179,196,177,181,165,114,15,-50,-86,-123,-96,-26,31,116,183,257,264,241,232,193,129,-449,-1269,-11,2176,3211,3683,2642,1251,-175,-1174,-1348,-1264,-1234,-1223,-1175,-1145,-1113,-1067,-1040,-998,-1010,-992,-979,-999,-1014,-1042,-1070
2018-05-15,16:31:14.137,-1088,-1092,-1053,-1019,-946,-836,-716,-521,-309,-72,175,407,635,785,887,949,951,946,895,831,761,691,626,552,496,439,378,358,306,279,255,245,248,234,247,236,236,224,192,209,192,177,154,116,117,92,14,-89,-120,-140,-176,-152,-83,-15,44,103,191,176,149,149,126,21,-692,-1203,410,2251,3188,3413,2286,906,-441,-1268,-1337,-1244,-1204,-1197,-1146,-1096,-1028,-1008,-987,-938,-945,-940,-935,-955,-963,-969,-976,-1007,-1003,-964,-930,-867,-788,-662,-486,-301,-53,204,435,647,803,929,975,997,986,931,882,800,728,681,606,545,485,427,386,321,283,273,263,243,218,222,221,214,227,213
2018-05-15,16:31:15.175,216,197,199,168,127,154,129,119,95,72,53,27,-40,-123,-152,-195,-232,-177,-121,-72,12,98,154,131,104,83,47,-183,-1116,-1114,960,2355,3296,2921,1695,508,-584,-1210,-1271,-1222,-1185,-1164,-1120,-1094,-1050,-1027,-1004,-980,-1000,-1003,-1006,-1007,-1024,-1063,-1078,-1098,-1102,-1056,-991,-894,-795,-648,-441,-242,-8,220,450,639,777,856,873,881,869,826,785,723,663,606,530,485,411,362,328,289,267,223,212,222,211,203,197,202,180,167,174,152,161,155,142,147,112,112,122,101,88,71,61,36,32,14,-47,-140,-192,-229,-265,-254,-194,-115,-27,35,99,123,96,84,61,-39,-740,-1405
2018-05-15,16:31:16.212,246,2154,3114,3446,2285,899,-417,-1223,-1283,-1223,-1190,-1170,-1121,-1079,-1042,-995,-975,-964,-936,-934,-937,-967,-979,-991,-1013,-1021,-1040,-1009,-974,-903,-810,-696,-528,-329,-103,130,343,582,762,878,954,969,967,940,881,827,739,670,607,567,501,423,393,344,295,285,253,242,213,202,211,203,199,189,193,188,168,166,140,121,103,74,66,51,35,16,3,6,-16,-19,-28,-26,-28,-42,-75,-172,-213,-237,-282,-244,-192,-112,-28,60,149,164,152,149,138,80,-532,-1349,-150,1868,2883,3433,2453,1145,-107,-989,-1143,-1084,-1054,-1036,-996,-968,-928,-924,-907,-883,-884,-859,-864,-881,-901,-940,-960,-991
2018-05-15,16:31:17.249,-1004,-1023,-1012,-931,-856,-743,-584,-393,-155,68,312,539,715,861,933,966,959,920,866,786,727,656,577,521,446,394,340,277,252,203,180,159,136,140,121,135,127,105,99,98,103,99,90,87,58,51,30,19,18,7,8,-23,-26,-41,-81,-136,-231,-263,-279,-295,-250,-206,-118,-24,59,113,90,91,85,48,-256,-1206,-947,1339,2687,3583,3077,1709,306,-901,-1350,-1312,-1241,-1223,-1189,-1145,-1110,-1069,-1031,-1003,-989,-992,-967,-973,-983,-998,-1043,-1061,-1087,-1091,-1068,-1003,-905,-811,-636,-438,-238,15,268,508,687,832,939,967,968,932,895,863,805,744,655,592,532,445,407,363,320,286
2018-05-15,16:31:18.286,243,234,211,213,207,192,204,193,179,172,154,151,140,142,140,121,115,94,92,71,48,51,27,16,4,12,17,-8,-20,-41,-98,-169,-215,-236,-282,-239,-189,-122,-24,36,94,94,91,93,62,-109,-965,-1200,760,2283,3253,3258,1975,573,-692,-1251,-1237,-1179,-1150,-1135,-1091,-1046,-1001,-961,-945,-914,-903,-900,-894,-922,-928,-938,-968,-984,-1006,-985,-941,-850,-768,-655,-477,-280,-39,209,442,654,819,944,996,1007,989,934,903,845,764,712,626,579,516,453,409,357,340,291,280,272,228,236,213,213,215,183,183,182,190,179,165,160,121,116,108,86,89,53,41,26,8,8
2018-05-15,16:31:19.324,-2,-11,-19,-33,-67,-166,-210,-231,-277,-324,-276,-207,-143,-24,42,65,69,61,35,17,-295,-1191,-1071,1006,2344,3287,2800,1523,350,-727,-1258,-1220,-1181,-1168,-1134,-1100,-1056,-1017,-989,-986,-965,-935,-935,-945,-965,-992,-1002,-1029,-1046,-1068,-1054,-993,-919,-802,-652,-483,-257,-13,246,461,654,814,891,955,949,925,878,823,768,691,633,570,497,448,388,355,308,264,239,206,205,192,195,202,173,182,177,176,183,164,160,154,149,135,113,119,97,85,73,50,55,43,30,17,7,10,-32,-93,-191,-243,-253,-298,-278,-219,-152,-26,45,90,112,101,107,84,23,-509,-1341,-232,1937,2999
2018-05-15,16:31:20.361,3669,2691,1226,-251,-1205,-1331,-1260,-1226,-1215,-1154,-1122,-1098,-1048,-1031,-986,-965,-951,-936,-951,-953,-991,-1018,-1049,-1069,-1050,-1039,-987,-898,-790,-640,-446,-202,37,282,533,722,861,943,990,990,953,913,852,790,725,648,597,516,465,425,372,329,280,259,238,202,203,181,194,199,201,217,213,221,217,193,186,157,156,148,119,114,104,90,79,78,60,26,35,22,16,8,-21,-46,-105,-171,-204,-246,-224,-191,-89,0,36,90,89,77,67,36,20,-376,-1318,-811,1348,2539,3373,2637,1380,192,-853,-1229,-1169,-1120,-1106,-1074,-1045,-993,-954,-918,-885,-883,-883,-893,-904,-909,-920,-943,-985,-1009
2018-05-15,16:31:21.398,-1011,-998,-948,-866,-749,-609,-448,-218,16,274,508,697,842,927,978,962,933,881,803,735,670,589,544,469,420,362,314,291,245,223,201,193,176,160,170,162,165,174,165,145,127,131,126,89,86,81,67,45,31,33,1,2,-6,-19,-43,-88,-189,-237,-238,-225,-201,-81,1,51,80,105,110,84,66,47,-243,-1153,-985,1297,2716,3626,3237,1825,296,-975,-1377,-1295,-1242,-1217,-1173,-1140,-1087,-1051,-1004,-985,-972,-951,-958,-950,-961,-990,-1022,-1052,-1056,-1071,-1061,-1002,-936,-836,-699,-523,-294,-41,236,484,688,845,939,1001,999,982,933,854,797,725,663,598,533,487,414,367,317,281
2018-05-15,16:31:22.435,264,235,227,220,207,210,190,202,203,187,174,157,166,138,117,108,82,70,62,52,59,36,43,15,0,4,-13,-9,-49,-66,-180,-224,-218,-239,-205,-101,-17,39,64,114,114,96,97,68,-244,-1151,-817,1365,2641,3528,2978,1585,174,-1002,-1312,-1234,-1186,-1146,-1112,-1064,-1035,-993,-955,-930,-896,-897,-881,-881,-907,-917,-958,-961,-960,-987,-974,-967,-898,-809,-697,-512,-313,-52,195,437,660,797,910,943,949,940,884,843,766,691,630,556,505,441,393,358,296,261,234,218,194,185,182,154,152,145,124,123,99,104,86,66,64,38,32,29,9,16,-12,-34,-51,-48,-57,-91
2018-05-15,16:31:23.472,-143,-247,-282,-271,-301,-243,-135,-53,-7,31,47,16,27,34,-45,-578,-1365,-368,1725,2807,3430,2515,1202,-100,-1155,-1375,-1305,-1253,-1236,-1202,-1142,-1116,-1077,-1048,-1016,-986,-974,-951,-962,-970,-978,-1020,-1048,-1065,-1042,-1001,-966,-863,-738,-576,-367,-148,98,326,563,761,883,967,984,971,949,894,840,775,724,641,572,523,457,413,369,335,298,260,251,229,206,201,195,190,184,169,174,151,166,157,145,138,125,120,104,92,73,47,45,27,14,11,6,11,-43,-116,-186,-218,-254,-263,-227,-145,-46,22,39,91,96,56,63,48,-85,-875,-1212,619,2332,3326,3416,2161,678,-731,-1360,-1332
2018-05-15,16:31:24.510,-1255,-1214,-1200,-1131,-1112,-1062,-1016,-977,-950,-933,-926,-935,-937,-943,-975,-991,-1017,-1027,-1018,-1005,-939,-848,-749,-583,-378,-145,117,365,586,756,905,976,994,982,941,894,824,767,701,612,551,494,431,387,338,302,268,250,242,214,204,196,209,210,191,211,196,191,196,194,188,164,138,122,124,112,95,95,72,45,48,33,34,1,-44,-116,-175,-208,-280,-263,-204,-136,-12,45,96,119,98,106,93,71,-323,-1211,-753,1288,2558,3368,2666,1407,163,-899,-1226,-1162,-1106,-1100,-1075,-1046,-1013,-972,-964,-926,-905,-895,-895,-911,-914,-944,-962,-989,-1003,-1006,-998,-945,-881,-787,-635,-477,-280,-30
2018-05-15,16:31:25.547,214,450,615,763,846,892,900,852,805,742,677,631,564,496,438,390,348,293,271,239,202,188,163,159,144,141,156,144,149,159,139,138,124,119,86,95,87,67,58,35,35,30,21,32,12,-33,-132,-205,-217,-238,-233,-211,-128,0,54,116,152,142,126,103,88,-199,-1084,-959,1177,2684,3558,3191,1855,340,-950,-1409,-1343,-1282,-1261,-1212,-1155,-1090,-1058,-1033,-989,-975,-944,-954,-951,-967,-986,-993,-1018,-1051,-1062,-1043,-997,-943,-851,-701,-524,-300,-65,196,465,653,814,931,991,1001,963,929,857,808,749,665,600,529,470,423,368,337,288,263,245,222,210,181,185,194,194,191
2018-05-15,16:31:26.584,161,170,164,176,180,149,133,102,95,92,78,64,50,52,35,16,21,17,0,-63,-196,-217,-239,-258,-236,-203,-126,-28,53,115,140,147,120,128,77,-397,-1215,-364,1730,2924,3609,2775,1341,-107,-1143,-1311,-1229,-1205,-1166,-1119,-1061,-1012,-991,-952,-943,-910,-892,-894,-890,-910,-927,-944,-972,-975,-994,-979,-936,-866,-772,-653,-468,-250,0,266,482,700,832,922,973,949,930,876,821,771,697,634,554,500,455,391,358,319,292,245,213,221,196,201,188,168,206,193,186,174,155,152,153,135,106,96,99,75,58,28,15,22,-8,-31,-109,-188,-203,-251,-279,-250,-190,-145,-31,45
2018-05-15,16:31:27.621,79,76,56,47,60,-78,-838,-1342,253,1991,3038,3203,2111,829,-405,-1224,-1295,-1213,-1189,-1148,-1132,-1086,-1037,-1010,-976,-962,-953,-961,-968,-965,-995,-1006,-1047,-1066,-1062,-1051,-1004,-950,-850,-694,-537,-325,-91,156,390,592,776,882,944,956,943,917,860,794,736,663,586,503,465,414,368,340,301,273,245,222,221,210,203,218,222,218,214,213,191,180,176,152,143,116,109,103,96,111,82,79,78,59,44,5,-74,-153,-171,-215,-221,-172,-106,-39,82,139,186,171,144,128,113,-8,-809,-1214,614,2363,3387,3466,2251,744,-667,-1308,-1295,-1221,-1206,-1181,-1122,-1088,-1045,-1011,-992,-952,-946,-931
2018-05-15,16:31:28.658,-936,-964,-967,-1007,-1021,-1036,-1053,-1039,-1012,-958,-874,-750,-573,-387,-143,98,350,575,730,863,939,967,964,911,868,795,748,684,606,545,473,426,372,319,286,248,236,207,188,188,173,185,173,165,158,149,138,134,104,100,82,78,61,58,51,18,30,32,-14,-27,-27,-14,-24,-59,-170,-243,-266,-302,-296,-263,-203,-111,-35,52,101,76,84,53,51,-132,-1029,-1141,835,2328,3336,3163,1896,440,-818,-1292,-1239,-1170,-1161,-1107,-1068,-1023,-972,-948,-918,-907,-884,-886,-887,-873,-904,-925,-952,-970,-975,-978,-949,-895,-814,-681,-536,-341,-105,131,373,580,760,876,935,970,943,915,867,790
2018-05-15,16:31:29.696,719,647,596,537,461,415,364,345,289,253,241,207,187,162,151,147,142,149,128,123,119,103,99,72,71,48,14,30,22,-8,-24,-36,-76,-173,-205,-250,-294,-285,-257,-168,-90,4,111,130,121,90,76,52,-346,-1248,-842,1299,2496,3352,2663,1427,214,-861,-1250,-1198,-1174,-1146,-1115,-1075,-1016,-1006,-971,-942,-921,-904,-932,-924,-928,-977,-987,-1035,-1032,-1040,-1013,-944,-888,-770,-626,-437,-224,23,273,474,673,812,873,935,938,915,874,809,761,699,650,588,516,472,418,400,363,316,283,251,244,229,223,230,214,215,216,224,230,202,192,184,166,166,143,142,122,99,89,62
2018-05-15,16:31:30.733,67,46,-38,-135,-157,-171,-205,-177,-117,-53,31,112,168,169,161,157,116,43,-563,-1299,-99,1823,2887,3409,2427,1078,-349,-1209,-1262,-1176,-1150,-1136,-1091,-1067,-1035,-985,-962,-926,-914,-911,-915,-920,-926,-958,-990,-1003,-1012,-1001,-999,-925,-840,-755,-590,-426,-201,30,272,508,693,823,905,946,944,896,852,793,729,662,604,572,497,428,402,338,309,274,259,245,221,218,196,204,204,198,197,173,184,175,140,114,88,88,70,58,69,45,32,-3,-87,-178,-217,-247,-294,-255,-179,-140,-30,86,126,105,84,77,51,-49,-761,-1349,81,1828,2924,3221,2135,903,-343,-1168,-1237,-1184,-1168,-1143
2018-05-15,16:31:31.770,-1102,-1073,-1049,-1000,-990,-965,-959,-957,-941,-960,-977,-1005,-1012,-1017,-1040,-1028,-993,-926,-821,-692,-509,-326,-94,151,381,617,774,903,994,993,995,958,899,833,758,707,634,575,512,450,402,352,331,290,239,232,205,184,171,159,155,128,122,99,91,92,81,67,50,51,57,41,36,6,-10,-2,-37,-93,-211,-241,-263,-281,-236,-186,-98,-31,38,145,135,133,114,95,65,-433,-1286,-412,1686,2880,3570,2806,1379,-140,-1157,-1331,-1241,-1209,-1167,-1148,-1119,-1043,-1011,-1005,-979,-971,-951,-958,-961,-966,-980,-996,-1031,-1052,-1071,-1052,-988,-936,-818,-669,-488,-264,-23,243,483,673,827,904,971,967
2018-05-15,16:31:32.807,923,882,814,751,682,613,555,497,451,381,337,310,257,223,195,180,165,161,169,165,162,153,152,156,135,124,105,82,89,71,85,72,50,56,48,47,22,-3,-56,-170,-205,-257,-270,-236,-196,-103,-29,67,157,169,165,136,128,104,-289,-1210,-701,1401,2700,3555,2958,1583,73,-1044,-1280,-1193,-1168,-1133,-1099,-1061,-1013,-997,-949,-934,-926,-901,-915,-905,-901,-919,-967,-994,-985,-992,-978,-948,-884,-769,-650,-475,-257,-12,251,464,680,835,932,980,978,970,927,866,796,722,671,626,567,509,441,408,358,312,280,239,233,233,227,211,197,203,187,180,179,140,131,116,116,114
2018-05-15,16:31:33.844,80,66,35,48,43,14,5,-12,-69,-173,-228,-255,-280,-261,-206,-135,-45,37,124,123,109,104,87,62,-273,-1232,-930,1151,2424,3374,2769,1547,230,-890,-1268,-1218,-1166,-1148,-1111,-1107,-1068,-1027,-1017,-982,-973,-960,-970,-993,-994,-1019,-1018,-1060,-1093,-1075,-1067,-999,-923,-825,-669,-493,-266,-22,227,466,643,784,874,909,917,901,866,802,752,680,600,555,499,455,400,344,322,287,253,235,203,191,183,188,193,180,183,165,173,179,167,151,116,101,104,83,62,27,38,22,16,11,0,4,-39,-117,-210,-250,-259,-266,-241,-178,-104,-6,65,139,156,129,128,104,45,-477,-1356,-309
2018-05-15,16:31:34.882,1877,3001,3644,2692,1237,-293,-1225,-1309,-1227,-1181,-1166,-1130,-1093,-1050,-1019,-1009,-968,-941,-929,-922,-940,-943,-976,-1004,-1037,-1053,-1030,-1027,-984,-897,-800,-647,-482,-236,24,254,498,696,835,929,977,984,931,906,861,800,727,653,605,534,470,415,365,337,294,263,239,214,229,187,176,194,192,203,195,187,179,157,147,151,136,112,99,94,83,62,65,45,31,7,-12,-22,-61,-159,-219,-234,-274,-283,-237,-172,-82,-3,88,144,119,103,90,94,-69,-941,-1192,776,2377,3422,3320,2071,540,-802,-1292,-1231,-1161,-1155,-1122,-1079,-1036,-990,-968,-931,-917,-912,-892,-907,-903,-917,-935,-944,-983,-987
2018-05-15,16:31:35.919,-969,-942,-878,-801,-665,-524,-347,-126,115,370,580,755,870,938,971,948,900,842,799,752,661,600,548,498,444,368,353,304,248,247,220,216,206,203,192,185,191,178,186,188,154,158,144,117,80,58,66,49,43,35,20,22,-20,-34,-71,-186,-217,-243,-267,-260,-230,-151,-68,34,107,114,107,93,109,74,-205,-1082,-1116,874,2299,3334,2907,1672,403,-785,-1226,-1168,-1127,-1113,-1088,-1058,-1028,-1001,-941,-925,-913,-920,-924,-931,-946,-937,-969,-1005,-1003,-1023,-1002,-971,-909,-802,-677,-490,-283,-52,181,398,599,742,837,905,913,908,871,822,761,686,642,579,521,475,404,360,314,286
2018-05-15,16:31:36.956,251,215,219,184,179,170,173,182,171,179,163,149,148,140,132,108,105,96,73,59,51,35,37,12,29,9,-7,-58,-195,-229,-265,-284,-266,-235,-144,-59,25,110,134,145,109,105,92,-213,-1120,-938,1200,2611,3576,3149,1776,226,-1043,-1336,-1234,-1204,-1149,-1102,-1074,-1028,-1012,-976,-942,-924,-911,-909,-920,-945,-954,-971,-1010,-1014,-1025,-1009,-979,-916,-811,-694,-532,-334,-90,180,393,608,783,877,943,955,946,914,867,797,717,658,590,540,478,409,379,329,287,267,233,226,199,205,207,185,201,203,208,204,185,180,169,166,149,131,141,102,95,99,76,51,29,20,13,-22
2018-05-15,16:31:37.993,-98,-203,-222,-272,-287,-247,-194,-112,-23,72,134,121,112,99,81,28,-526,-1320,-314,1698,2888,3530,2648,1230,-288,-1225,-1280,-1183,-1181,-1154,-1113,-1081,-1033,-1002,-964,-939,-924,-901,-907,-900,-909,-934,-948,-982,-978,-990,-976,-913,-842,-744,-618,-441,-226,8,264,500,705,857,929,974,961,940,885,839,788,702,648,600,544,503,441,396,332,280,274,248,239,216,200,211,184,187,182,158,161,148,145,131,119,118,90,84,64,60,53,48,52,2,-98,-174,-213,-246,-273,-222,-147,-96,-10,67,110,118,96,92,71,-76,-846,-1285,295,1949,3054,3129,2015,768,-473,-1192,-1232,-1157,-1126,-1116
2018-05-15,16:31:39.031,-1061,-1024,-978,-950,-928,-909,-914,-895,-898,-933,-947,-985,-989,-997,-1027,-1013,-990,-920,-820,-696,-551,-363,-124,102,333,562,709,827,886,905,900,850,808,738,679,621,546,498,435,394,341,295,282,242,216,210,187,188,166,165,156,157,165,141,159,160,124,133,115,113,89,72,80,50,39,39,41,17,-74,-176,-220,-235,-240,-246,-173,-113,-31,73,141,158,125,121,103,25,-524,-1294,-147,1870,2989,3545,2623,1173,-339,-1247,-1312,-1239,-1204,-1175,-1136,-1062,-1040,-992,-969,-951,-925,-920,-910,-923,-937,-939,-987,-997,-1023,-1021,-988,-944,-851,-767,-629,-449,-250,27,261,489,681,805,917,939
2018-05-15,16:31:40.068,953,914,858,801,751,679,612,548,500,417,374,349,313,276,232,226,216,197,190,175,180,170,168,175,155,165,156,128,132,120,125,106,93,83,51,56,39,15,-56,-149,-160,-221,-240,-219,-167,-62,14,110,173,171,159,129,130,72,-394,-1286,-508,1486,2696,3379,2547,1273,-40,-1032,-1206,-1109,-1089,-1063,-1034,-1003,-970,-940,-900,-898,-871,-857,-871,-876,-891,-880,-918,-948,-950,-972,-952,-920,-848,-754,-655,-480,-263,-32,228,449,636,766,855,916,909,894,843,788,726,641,580,514,472,409,356,323,275,245,219,188,177,160,163,156,146,150,132,135,130,116,111,82,85,75
2018-05-15,16:32:00.570,-18,-74,-148,-227,-300,-307,-261,-223,-183,-123,-58,10,0,-36,-52,-74,-115,-571,-1432,-782,1436,2508,3216,2544,1216,134,-875,-1409,-1371,-1304,-1288,-1249,-1220,-1184,-1129,-1078,-1054,-1048,-1038,-1007,-1018,-1051,-1066,-1099,-1134,-1154,-1158,-1129,-1052,-965,-844,-627,-400,-174,91,342,551,735,881,960,969,973,962,918,861,817,776,745,681,649,603,560,516,478,440,404,378,350,318,278,226,202,181,149,119,96,84,48,-29,-128,-173,-242,-315,-304,-258,-190,-111,-24,50,89,63,51,30,18,-49,-717,-1477,-468,1284,2403,2915,2115,1108,157,-763,-1086,-991,-936,-925,-880,-837,-808,-798,-775,-772,-776,-798,-820
2018-05-15,16:32:01.807,-855,-891,-931,-983,-1022,-1015,-993,-954,-889,-797,-685,-554,-382,-174,86,342,569,746,884,999,1018,1011,982,936,895,835,736,694,629,580,545,495,450,399,441,578,585,547,527,521,525,513,494,462,447,447,344,253,222,135,57,80,143,239,292,344,405,408,389,367,336,255,-122,-1051,-1005,867,2171,3037,2726,1602,606,-356,-1114,-1175,-1094,-1065,-1009,-924,-843,-805,-798,-807,-826,-830,-844,-892,-931,-958,-1003,-1048,-1065,-1089,-1087,-1043,-986,-869,-747,-603,-392,-134,108,339,558,713,810,886,918,869,807,722,657,605,522,443,387,351,319,288,217,169,133,107,124,128,148,186,163,145
2018-05-15,16:32:02.844,169,162,151,118,91,64,-32,-135,-207,-311,-382,-365,-316,-238,-176,-88,29,65,33,21,6,-38,-260,-1157,-1517,409,2093,2965,3022,1770,609,-412,-1257,-1436,-1384,-1357,-1334,-1296,-1245,-1186,-1148,-1110,-1087,-1076,-1070,-1078,-1096,-1117,-1111,-1125,-1145,-1154,-1143,-1107,-1037,-964,-828,-632,-421,-189,86,345,602,811,968,1050,1074,1075,1034,973,934,878,797,707,648,570,520,467,434,412,389,380,388,383,376,379,352,305,281,275,252,226,203,153,34,-52,-128,-221,-212,-160,-112,-43,24,107,159,157,137,112,104,63,-345,-1268,-1110,694,2034,2937,2668,1679,638,-441,-1095,-1144,-1109,-1080,-1065,-1001,-939,-896
2018-05-15,16:32:03.881,-878,-869,-846,-849,-866,-916,-926,-953,-997,-1028,-1044,-1067,-1076,-1068,-1027,-958,-835,-646,-410,-153,120,382,585,728,817,875,889,845,802,746,675,602,535,469,407,358,284,231,202,161,125,131,104,77,103,119,85,76,91,92,53,-30,-75,-153,-249,-225,-126,-96,-63,-42,22,92,97,102,133,171,169,-251,-1150,-752,1321,2526,3300,2683,1456,491,-483,-1162,-1207,-1130,-1120,-1055,-968,-931,-933,-917,-880,-829,-788,-790,-835,-830,-859,-888,-941,-975,-959,-950,-922,-848,-759,-614,-445,-237,10,275,494,673,821,907,932,916,884,835,748,677,626,564,500,450,422,381,303,224,161,145,167,177
2018-05-15,16:32:04.918,239,284,319,327,335,327,306,281,245,216,155,62,-45,-122,-208,-249,-223,-216,-143,-39,71,183,214,204,192,174,141,-204,-1180,-1170,982,2389,3221,2905,1608,504,-486,-1250,-1380,-1310,-1248,-1254,-1188,-1100,-1090,-1081,-1071,-1014,-1030,-1034,-1028,-1062,-1163,-1148,-1118,-1072,-1077,-1111,-1158,-1095,-966,-827,-633,-347,-36,256,539,787,963,1080,1112,1113,1077,1008,939,852,793,745,689,658,656,647,571,538,524,496,454,412,399,389,345,290,292,269,220,195,186,168,107,16,-53,-126,-203,-171,-118,-27,40,107,172,189,165,129,110,74,0,-593,-1375,-550,1192,2305,2921,2207,1223,333,-586,-982,-922,-895
2018-05-15,16:32:05.956,-900,-886,-861,-843,-839,-837,-845,-861,-894,-905,-928,-974,-1020,-1030,-1027,-1024,-1010,-990,-969,-893,-793,-679,-470,-262,-24,204,410,583,717,801,844,839,812,768,693,632,571,481,458,402,306,264,295,230,200,178,165,175,145,110,151,155,118,40,19,-20,-82,-130,-150,-172,-113,-23,14,60,124,184,232,207,174,155,153,80,-370,-1253,-741,1260,2363,3165,2582,1533,626,-323,-950,-974,-930,-935,-913,-904,-884,-843,-841,-822,-811,-813,-848,-875,-877,-885,-938,-970,-1007,-1021,-993,-961,-894,-802,-669,-493,-277,-19,209,422,612,759,848,909,897,863,804,761,735,723,653,622,593,536,475,396
2018-05-15,16:32:06.993,352,297,255,222,173,130,108,69,48,35,27,43,39,-40,-80,-119,-168,-140,-100,-39,33,97,131,149,141,96,24,-17,-209,-1070,-1611,169,2083,2949,3153,2059,834,-230,-1153,-1465,-1416,-1359,-1338,-1296,-1250,-1217,-1185,-1157,-1109,-1081,-1077,-1099,-1129,-1135,-1162,-1211,-1257,-1246,-1221,-1126,-966,-773,-576,-346,-131,108,359,586,808,980,1056,1073,1091,1070,1038,975,937,892,860,821,777,705,621,557,500,450,395,346,310,289,269,247,236,212,115,44,-35,-115,-124,-69,-9,45,118,182,224,191,153,164,153,99,-361,-1291,-914,1028,2268,3048,2619,1551,489,-551,-1093,-1070,-1006,-965,-920,-871,-824,-775
2018-05-15,16:32:08.030,-773,-775,-746,-761,-796,-839,-915,-958,-997,-1063,-1125,-1124,-1094,-1039,-944,-808,-646,-448,-218,30,280,506,690,825,871,874,861,810,753,693,631,545,463,418,363,282,227,216,177,145,135,118,104,83,89,52,-37,-67,-135,-172,-147,-140,-67,59,147,227,264,271,281,277,242,153,-413,-1239,-380,1459,2422,3098,2392,1244,258,-671,-1044,-982,-958,-928,-881,-854,-817,-784,-754,-740,-740,-745,-763,-782,-800,-830,-856,-902,-926,-925,-933,-879,-809,-727,-595,-389,-140,97,317,527,741,875,970,987,973,948,885,802,736,634,564,541,519,508,491,460,439,426,387,369,350,321,306,300,273,180
2018-05-15,16:32:09.067,57,-30,-123,-161,-108,-71,-23,79,164,216,207,189,168,132,88,-227,-1118,-1113,805,2194,3100,2801,1598,564,-396,-1219,-1330,-1301,-1279,-1262,-1209,-1165,-1145,-1120,-1082,-1065,-1058,-1054,-1072,-1101,-1100,-1089,-1082,-1108,-1124,-1120,-1077,-994,-874,-739,-533,-284,-12,240,486,684,821,908,948,947,929,869,790,746,677,642,620,574,542,505,484,467,450,428,402,371,323,305,307,294,271,221,118,49,-29,-105,-102,-59,-23,23,78,132,183,170,136,112,85,10,-501,-1442,-914,1133,2265,3083,2514,1466,387,-695,-1201,-1153,-1063,-989,-945,-881,-821,-783,-754,-744,-754,-773,-808,-840,-871,-913,-958,-997,-1053,-1058
2018-05-15,16:32:10.104,-1044,-968,-855,-713,-541,-351,-121,138,393,587,745,870,934,951,921,876,834,779,689,637,582,479,445,364,239,140,118,98,62,77,113,119,97,122,111,108,132,142,12,-85,25,-26,-94,-72,-23,60,133,229,353,406,377,340,300,258,40,-870,-1044,691,2082,3008,2992,1842,795,-137,-932,-1057,-986,-970,-933,-893,-880,-888,-864,-841,-827,-846,-852,-857,-877,-888,-935,-959,-983,-980,-997,-982,-947,-859,-744,-588,-402,-174,86,336,555,738,847,907,924,908,885,817,732,651,581,535,503,478,433,387,359,322,279,247,214,196,192,170,140,99,77,40,-67,-124,-214,-307,-244,-177
2018-05-15,16:32:11.142,-105,-28,47,95,117,91,48,33,-2,-208,-1045,-1452,251,1964,2881,3024,1901,770,-228,-1122,-1408,-1352,-1318,-1263,-1249,-1226,-1170,-1142,-1118,-1087,-1085,-1076,-1091,-1093,-1096,-1108,-1164,-1171,-1154,-1149,-1127,-1040,-921,-783,-592,-322,-37,236,485,695,823,892,977,967,941,899,839,778,712,672,600,551,528,477,441,422,387,371,364,326,298,317,308,258,232,216,196,192,160,139,64,-23,-96,-166,-181,-134,-108,-49,31,102,160,157,151,165,105,30,-270,-1185,-1179,830,2269,3155,2947,1802,697,-349,-1040,-1104,-1038,-1036,-1014,-994,-954,-940,-945,-923,-905,-914,-920,-930,-947,-965,-1008,-1024,-1056,-1075,-1054,-1001
2018-05-15,16:32:12.179,-929,-851,-731,-548,-329,-82,158,375,574,716,805,861,885,851,820,776,714,658,604,536,477,439,396,354,301,274,254,234,231,235,227,214,209,220,214,213,183,153,76,1,-73,-129,-123,-17,54,114,166,239,287,261,220,186,141,32,-653,-1361,-172,1744,2760,3182,2297,1247,308,-590,-1040,-1029,-1000,-1001,-987,-942,-912,-895,-877,-877,-857,-865,-895,-931,-942,-989,-1031,-1053,-1073,-1079,-1076,-1024,-944,-841,-694,-481,-225,30,253,459,633,761,862,897,900,850,755,720,673,641,607,569,518,456,382,327,282,252,224,210,165,117,97,75,70,30,8,6,45,17,-74,-104,-131,-191
2018-05-15,16:32:13.216,-188,-164,-131,-71,-24,67,96,79,64,47,12,-316,-1320,-1253,1040,2634,3387,3118,1842,628,-490,-1247,-1337,-1290,-1244,-1199,-1170,-1134,-1066,-1020,-978,-960,-978,-970,-985,-1007,-1008,-1032,-1056,-1041,-1039,-1033,-983,-909,-802,-653,-441,-223,35,297,539,769,930,1036,1111,1115,1100,1068,1011,937,857,787,711,607,530,476,430,370,318,276,264,260,262,241,251,233,211,207,213,175,166,100,-17,-64,-123,-169,-148,-97,-41,32,66,133,190,181,148,102,15,-187,-1000,-1573,130,2051,3030,3298,2355,1184,-34,-967,-1184,-1151,-1135,-1150,-1143,-1111,-1079,-1044,-1009,-973,-956,-960,-973,-975,-993,-1034,-1058,-1110,-1178,-1177
2018-05-15,16:32:14.253,-1140,-1076,-988,-866,-690,-460,-207,62,320,555,737,842,904,923,892,845,795,740,677,601,518,460,395,336,307,250,206,185,177,165,150,101,39,40,72,80,96,129,170,192,192,185,95,0,-42,-112,-103,-36,-55,-86,80,126,102,115,150,126,123,15,-727,-1279,89,1868,2787,3107,2047,900,-64,-869,-1020,-934,-937,-944,-925,-880,-857,-831,-854,-852,-856,-892,-899,-939,-965,-967,-971,-983,-977,-985,-965,-925,-860,-730,-590,-421,-214,-13,183,357,551,738,853,964,1032,1037,1041,1017,943,865,756,644,591,529,448,385,350,292,232,188,174,156,143,161,184,195,214,212,186,94
2018-05-15,16:32:15.291,31,-44,-126,-170,-117,-47,11,61,142,191,148,141,129,109,17,-561,-1309,-306,1696,2620,3239,2331,1039,50,-894,-1330,-1299,-1272,-1268,-1226,-1185,-1161,-1152,-1130,-1119,-1091,-1081,-1079,-1035,-985,-926,-890,-874,-874,-873,-843,-805,-741,-650,-531,-387,-220,16,291,521,689,842,956,1023,1036,1035,994,941,894,836,760,709,655,586,526,497,463,423,399,396,373,376,357,314,323,316,276,186,147,83,4,26,100,175,229,275,336,370,349,314,305,292,187,-484,-1234,-176,1665,2665,3186,2389,1482,605,-316,-786,-773,-747,-754,-739,-722,-712,-699,-715,-729,-750,-783,-824,-866,-908,-919,-927,-920,-896,-921
2018-05-15,16:32:16.328,-960,-899,-804,-691,-539,-330,-105,113,338,581,747,842,869,877,867,793,713,632,546,470,393,327,268,242,198,120,69,81,26,1,58,105,88,63,37,29,-7,-130,-172,-206,-253,-202,-106,-4,101,216,291,292,235,179,147,113,-83,-986,-1360,375,1930,2942,3046,2071,1012,-62,-953,-1157,-1108,-1114,-1095,-1064,-1052,-1027,-1006,-987,-979,-974,-985,-994,-1013,-1056,-1091,-1121,-1170,-1207,-1234,-1263,-1344,-1074,-785,-651,-463,-209,33,289,525,702,823,867,879,827,754,703,654,637,569,516,466,399,353,289,234,196,178,155,129,98,67,35,6,-67,-171,-212,-262,-270,-180,-108,-14,62,98,133
2018-05-15,16:32:17.365,133,92,61,37,4,-254,-1193,-1265,757,2239,3079,2894,1579,503,-454,-1239,-1364,-1297,-1281,-1257,-1222,-1219,-1114,-1070,-1048,-1038,-1012,-999,-984,-991,-1056,-1127,-1147,-1100,-1058,-1011,-983,-953,-818,-601,-391,-181,60,303,516,719,873,997,1055,1074,1053,1002,949,881,820,766,735,687,637,596,549,507,459,460,429,381,359,286,154,103,22,-30,9,37,106,168,225,258,273,262,219,204,180,59,-629,-1327,-176,1519,2477,2901,2198,1273,284,-688,-1080,-1053,-1037,-1037,-1003,-945,-887,-846,-829,-842,-854,-865,-888,-933,-966,-982,-1012,-1049,-1062,-1066,-1054,-1020,-960,-856,-696,-479,-240,29,267,467,633,741,787,795
2018-05-15,16:32:18.402,788,759,714,662,597,512,448,392,327,274,232,167,138,141,130,96,83,46,-29,-61,-136,-197,-144,-104,-48,37,100,130,258,213,171,184,171,56,-737,-1389,155,2082,2997,3334,2308,1107,76,-833,-1130,-1069,-1051,-1052,-1019,-996,-967,-916,-886,-884,-892,-894,-914,-930,-944,-973,-1011,-1019,-1020,-989,-958,-908,-809,-680,-532,-350,-116,140,387,593,773,867,909,920,897,870,824,767,703,639,564,502,449,395,355,304,261,249,224,194,174,170,108,40,-44,-91,-59,-11,38,169,250,321,374,366,363,313,265,179,-272,-1134,-590,1430,2551,3199,2581,1408,367,-634,-1207,-1186,-1114,-1085,-1064,-1037
2018-05-15,16:32:19.439,-1016,-994,-972,-968,-976,-991,-1022,-1044,-1071,-1112,-1145,-1154,-1158,-1154,-1145,-1105,-1003,-872,-713,-507,-286,-19,209,476,659,789,798,986,1027,1007,953,908,840,793,622,523,570,603,555,497,439,440,499,556,556,543,498,374,315,231,142,146,169,217,275,341,390,382,374,376,380,364,131,-684,-923,732,2157,3081,3053,2060,1102,145,-690,-893,-842,-844,-826,-806,-805,-793,-761,-766,-781,-782,-793,-802,-808,-808,-837,-878,-898,-902,-886,-868,-825,-748,-670,-507,-324,-135,72,289,493,658,740,785,786,781,756,695,623,562,505,447,397,337,273,219,168,150,121,101,86,92,51,-13,-42,-68
2018-05-15,16:32:20.477,-85,-42,-23,46,96,157,216,220,182,155,131,81,-298,-1255,-1186,981,2351,3111,2813,1576,451,-538,-1289,-1432,-1391,-1373,-1352,-1354,-1353,-1304,-1185,-1170,-1158,-1149,-1137,-1144,-1183,-1189,-1233,-1254,-1240,-1227,-1201,-1114,-963,-776,-567,-368,-134,120,339,537,715,858,922,919,892,861,787,730,675,627,591,573,533,520,504,464,427,387,353,347,330,271,229,151,47,-9,-110,-119,-87,-33,48,95,135,164,167,142,110,79,1,-459,-1377,-1005,973,2123,2968,2635,1568,434,-697,-1311,-1287,-1207,-1191,-1136,-1060,-994,-944,-931,-914,-912,-907,-910,-932,-971,-1011,-1045,-1098,-1133,-1157,-1166,-1145,-1065,-940,-776,-553,-301
2018-05-15,16:32:21.514,-18,256,491,670,788,872,906,899,856,811,731,616,525,442,378,318,242,198,179,148,129,126,53,121,160,98,-52,-98,-137,-133,-113,-83,-10,58,106,149,209,196,123,96,85,-226,-1157,-991,1239,2690,3519,3210,1868,776,-205,-935,-995,-956,-960,-966,-967,-957,-932,-894,-848,-823,-808,-753,-722,-720,-724,-743,-762,-787,-816,-837,-825,-771,-675,-570,-410,-216,-9,230,451,621,766,864,900,917,904,892,845,788,725,634,562,505,442,365,349,309,251,234,227,177,21,-74,-91,-127,-111,-39,33,120,205,270,306,296,255,218,167,105,-323,-1240,-907,1122,2257,3054,2537,1463,534,-421
2018-05-15,16:32:22.551,-1157,-1199,-1134,-1116,-1094,-1069,-1042,-1027,-1014,-1011,-1014,-1018,-1046,-1074,-1115,-1143,-1193,-1212,-1230,-1244,-1238,-1143,-1059,-889,-676,-502,-247,-28,150,362,545,643,719,747,820,805,781,722,633,532,463,395,349,317,330,376,405,434,445,427,408,371,314,185,144,56,-2,34,57,129,210,286,348,380,378,382,376,352,55,-854,-961,950,2390,3216,3057,1961,911,-164,-996,-1120,-1087,-1111,-1067,-1042,-1004,-972,-943,-944,-925,-928,-935,-940,-936,-975,-1006,-1035,-1050,-1065,-1058,-1044,-986,-934,-791,-614,-409,-133,157,438,658,810,913,970,967,920,883,842,775,688,604,532,462,407,336,286,276,276,289,303
2018-05-15,16:32:23.588,289,293,298,273,163,99,18,-37,-34,-4,63,101,150,216,241,205,130,126,110,-221,-1147,-1240,894,2395,3208,3051,1781,729,-264,-1106,-1308,-1187,-1141,-1153,-1103,-1071,-1082,-1096,-1026,-993,-961,-903,-843,-764,-717,-728,-758,-781,-787,-809,-812,-793,-763,-679,-551,-350,-133,102,359,591,781,923,1000,1038,1022,981,934,859,797,708,629,525,439,383,342,290,249,222,223,207,129,-5,-74,-155,-161,-103,-76,-5,60,116,192,203,177,146,106,64,-198,-1098,-1362,471,1818,2751,2705,1827,933,-66,-911,-1059,-1019,-1047,-979,-929,-995,-1025,-926,-892,-914,-912,-939,-991,-1020,-1034,-1028,-1008,-1007,-985,-964,-948
2018-05-15,16:32:24.625,-873,-753,-629,-480,-291,-61,142,322,486,599,678,722,716,688,637,542,555,553,474,369,305,272,274,256,233,224,198,248,250,264,240,140,68,-12,-58,-46,-43,19,103,176,282,397,419,399,360,330,85,-823,-1185,731,2367,3218,3202,2063,983,-89,-966,-1131,-1042,-991,-954,-885,-833,-791,-753,-737,-739,-756,-774,-781,-804,-851,-891,-926,-957,-973,-955,-957,-909,-816,-696,-534,-316,-80,171,404,601,756,867,917,905,881,852,842,787,714,644,566,478,417,336,322,308,305,292,262,253,219,158,68,6,-52,-113,-68,5,51,127,204,245,269,254,234,210,178,3,-859,-1412,361
2018-05-15,16:32:25.663,2151,3030,3129,2067,1017,-14,-943,-1245,-1215,-1187,-1175,-1148,-1104,-1070,-1040,-1044,-1055,-1023,-1008,-1036,-1005,-1026,-1071,-1113,-1187,-1153,-1135,-1051,-1027,-841,-654,-484,-315,-93,154,355,512,693,806,869,896,918,920,878,827,752,664,584,520,454,409,364,308,279,286,264,253,234,126,93,65,15,42,93,145,233,300,313,335,321,295,262,215,69,-684,-1432,29,1917,2769,3148,2320,1274,158,-855,-1224,-1194,-1132,-1121,-1098,-1090,-1071,-1039,-1015,-1002,-1008,-984,-964,-966,-1010,-1058,-1075,-1069,-1062,-1003,-956,-903,-800,-681,-503,-326,-142,78,305,506,643,736,772,779,768,748,697,632,588,540,526,465,412,373
2018-05-15,16:32:26.700,317,282,243,219,227,222,194,174,160,98,-15,-76,-156,-171,-153,-127,-59,-24,27,117,137,106,39,43,49,-499,-1612,-867,1780,2945,3570,2864,1482,238,-875,-1413,-1407,-1329,-1302,-1261,-1189,-1098,-1018,-949,-859,-805,-797,-806,-821,-845,-876,-933,-1011,-1047,-1049,-1060,-1019,-900,-798,-637,-432,-184,99,359,602,811,998,1136,1175,1174,1154,1098,1014,925,829,748,668,582,520,478,422,380,351,321,316,297,255,224,149,56,-13,-71,-80,-44,-13,58,119,173,238,234,194,180,156,65,-579,-1429,-343,1667,2795,3344,2538,1412,339,-657,-1114,-1084,-1041,-1045,-1025,-989,-1001,-1012,-1027,-1034,-1058,-1037,-1025,-1013
2018-05-15,16:32:27.737,-991,-977,-971,-962,-972,-961,-944,-904,-826,-740,-601,-441,-254,-30,181,372,535,653,750,770,763,742,691,610,525,455,371,288,199,170,111,84,120,120,134,149,141,104,10,-25,-67,-131,-117,24,192,341,426,524,554,529,496,464,388,-29,-981,-786,1205,2352,3077,2706,1744,815,-143,-899,-996,-924,-904,-876,-855,-804,-771,-749,-734,-750,-772,-751,-792,-843,-882,-923,-936,-954,-963,-953,-902,-841,-758,-644,-489,-302,-123,60,225,430,566,624,671,692,628,519,606,433,436,439,286,477,442,391,376,351,317,296,262,263,267,257,202,88,20,-47,-113,-111,-76,0,26,75,175,240
2018-05-15,16:32:28.774,228,210,169,143,-181,-1210,-1215,999,2480,3260,3012,1824,661,-482,-1288,-1456,-1392,-1353,-1321,-1303,-1241,-1208,-1206,-1176,-1083,-1058,-1018,-1027,-1073,-1114,-1149,-1151,-1139,-1180,-1170,-1042,-982,-869,-700,-533,-324,-63,204,449,708,925,1055,1123,1121,1086,1045,970,875,780,686,607,528,458,393,366,361,358,388,402,418,438,439,373,267,235,166,147,204,238,307,324,371,419,408,375,324,269,181,-442,-1313,-447,1423,2467,3092,2541,1558,500,-581,-1132,-1128,-1100,-1081,-1030,-990,-958,-914,-884,-891,-861,-858,-854,-848,-839,-864,-879,-914,-930,-950,-948,-894,-827,-738,-616,-466,-278,-98,81,267,443,602,717,788,816
2018-05-15,16:32:29.812,794,755,693,641,551,480,425,366,307,249,206,164,118,94,76,25,-62,-121,-156,-212,-219,-165,-77,-43,29,25,44,49,25,28,-1,-125,-949,-1524,210,2037,2832,2999,2007,936,-33,-867,-1102,-983,-922,-898,-869,-852,-832,-825,-834,-837,-867,-908,-926,-939,-958,-954,-945,-898,-846,-808,-740,-645,-526,-397,-240,-79,92,280,459,617,746,825,871,883,862,805,755,673,611,581,505,436,371,325,303,283,256,238,231,213,157,42,-35,-57,-117,-122,-86,-50,44,134,198,288,316,311,321,318,219,-507,-1281,-47,1904,2876,3303,2462,1322,205,-839,-1301,-1291,-1248,-1197,-1140,-1070,-1011,-958,-909
2018-05-15,16:32:30.849,-887,-900,-902,-911,-948,-988,-1016,-1057,-1099,-1096,-1089,-1059,-1003,-909,-787,-649,-476,-289,-74,120,299,464,568,630,676,727,759,704,642,568,493,414,324,308,315,299,281,324,370,412,442,446,403,293,219,123,56,51,62,107,178,256,314,362,388,410,417,415,240,-617,-971,747,2317,3206,3302,2345,1279,180,-740,-976,-915,-922,-904,-873,-849,-840,-824,-835,-818,-797,-804,-802,-833,-858,-928,-948,-953,-978,-939,-908,-856,-792,-705,-560,-377,-201,-31,171,387,567,703,783,814,818,805,758,675,593,528,476,393,312,253,217,168,125,73,58,23,-56,-63,-80,-87,-29,14,74,132,198
2018-05-15,16:32:31.886,252,250,199,155,126,62,-335,-1335,-1131,1080,2328,3020,2804,1706,602,-466,-1244,-1375,-1328,-1315,-1286,-1232,-1212,-1219,-1252,-1138,-1067,-1092,-1123,-997,-1028,-1065,-1113,-1179,-1139,-1014,-930,-816,-649,-480,-318,-160,6,196,368,527,666,750,824,828,808,799,781,750,717,687,671,633,597,578,557,524,503,485,443,417,405,375,255,162,94,-8,-20,24,79,141,172,190,238,268,222,189,136,-28,-814,-1461,-99,1665,2644,3030,2329,1294,151,-881,-1198,-1183,-1140,-1083,-1025,-973,-906,-857,-840,-840,-823,-835,-875,-897,-921,-974,-1013,-1047,-1081,-1095,-1040,-982,-902,-777,-609,-406,-173,67,285,463,625,750,818,827
2018-05-15,16:32:32.923,818,776,709,647,584,490,391,321,274,188,161,180,165,130,109,152,97,-56,-113,-72,-59,-30,28,71,113,196,225,197,269,192,76,83,-308,-1259,-636,1658,2903,3592,3052,1813,686,-374,-984,-1018,-1014,-1019,-1003,-999,-983,-949,-929,-881,-832,-793,-768,-736,-710,-698,-683,-676,-678,-670,-637,-609,-585,-493,-383,-255,-99,55,201,374,559,649,746,819,818,710,688,691,625,537,499,426,334,290,249,208,177,142,148,166,71,-55,-58,-88,-113,-18,71,153,222,281,348,336,316,257,226,9,-910,-1258,523,2011,2856,2911,1976,960,-81,-986,-1232,-1141,-1091,-1072,-1037,-1003,-973,-952,-946,-960
2018-05-15,16:32:33.960,-980,-992,-1004,-1024,-1046,-1101,-1113,-1125,-1147,-1129,-1062,-972,-873,-790,-563,-360,-166,35,172,329,485,520,482,588,695,669,561,518,459,406,305,299,261,288,312,347,406,408,384,354,313,197,130,36,-20,-17,7,65,159,246,314,380,366,372,372,366,35,-930,-756,1349,2670,3456,3180,2088,961,-166,-919,-1015,-987,-995,-984,-968,-905,-881,-876,-860,-881,-876,-886,-921,-931,-973,-1013,-1051,-1024,-999,-985,-923,-848,-762,-625,-466,-285,-94,106,290,464,625,750,810,829,840,793,745,667,604,526,453,398,330,265,215,185,149,123,125,143,123,40,20,-10,-19,15,60,135,178,227,279
2018-05-15,16:32:34.998,294,272,232,185,117,-295,-1349,-1075,1233,2593,3363,2972,1664,465,-620,-1319,-1367,-1352,-1324,-1292,-1226,-1203,-1165,-1118,-1034,-1019,-1027,-1043,-1036,-1041,-1045,-1024,-1046,-1041,-929,-838,-764,-620,-472,-354,-213,-52,129,304,470,632,755,861,898,895,878,861,816,773,731,679,673,686,637,609,581,549,528,470,337,268,178,98,125,146,199,260,301,344,355,315,285,248,215,-11,-924,-1312,416,1854,2715,2782,1982,1088,29,-920,-1165,-1091,-1069,-1075,-1061,-1005,-945,-906,-878,-820,-781,-775,-790,-803,-829,-873,-891,-898,-891,-866,-824,-770,-694,-603,-504,-365,-210,-57,109,280,435,558,631,644,647,635,594,540
2018-05-15,16:32:36.035,477,403,347,290,224,184,154,130,100,54,31,-26,-128,-182,-223,-218,-134,-92,-9,32,50,93,131,128,75,70,-28,-748,-1640,-352,2047,3117,3539,2560,1271,46,-964,-1300,-1181,-1054,-986,-941,-893,-862,-865,-856,-838,-834,-855,-868,-891,-912,-912,-919,-908,-890,-846,-786,-693,-573,-440,-296,-127,89,310,473,631,790,900,950,963,958,887,822,741,661,573,472,413,354,322,310,286,265,236,228,190,70,-3,-67,-98,-72,-26,57,131,203,223,262,257,257,250,237,47,-863,-1141,838,2486,3398,3318,2110,914,-209,-1041,-1192,-1134,-1122,-1105,-1095,-1062,-1020,-980,-934,-907,-873,-836,-822,-855,-884
2018-05-15,16:32:37.072,-901,-911,-933,-913,-884,-856,-800,-756,-659,-503,-363,-197,-32,128,332,478,566,629,638,663,653,591,509,433,354,270,196,172,148,174,154,77,12,-71,-68,-75,-57,-18,72,185,286,360,427,441,421,382,342,288,-1,-947,-1068,1015,2366,3268,3095,2078,1099,108,-698,-836,-775,-760,-752,-727,-689,-683,-698,-704,-701,-722,-750,-773,-795,-803,-824,-847,-846,-841,-815,-761,-682,-625,-541,-420,-284,-135,-2,158,314,421,494,560,577,557,522,469,399,364,349,331,292,293,306,280,256,241,201,76,21,-32,-76,-28,2,56,122,177,220,242,236,204,206,197,-69,-1019,-1207,933,2451,3336
2018-05-15,16:32:38.109,3139,1916,784,-303,-1143,-1299,-1262,-1236,-1217,-1178,-1150,-1109,-1090,-1050,-1020,-1042,-1043,-1074,-1094,-1086,-1097,-1104,-1116,-1031,-987,-941,-858,-744,-581,-441,-280,-164,12,239,431,587,731,854,933,950,903,843,774,698,630,552,480,428,393,357,336,319,331,351,306,201,155,113,97,143,206,291,354,403,438,456,409,357,320,253,-178,-1152,-881,1217,2458,3297,2870,1734,614,-517,-1144,-1171,-1138,-1120,-1087,-1046,-1017,-978,-970,-951,-945,-942,-930,-939,-981,-1026,-1028,-993,-965,-907,-794,-683,-580,-477,-381,-243,-88,57,200,344,486,602,682,729,734,699,643,580,539,497,464,446,412,377,340,326,310,271
2018-05-15,16:32:39.146,238,156,128,81,-41,-97,-59,-29,-5,72,149,213,229,205,192,170,74,-469,-1379,-616,1606,2647,3233,2444,1296,281,-701,-1244,-1208,-1181,-1171,-1149,-1131,-1045,-989,-927,-865,-820,-743,-698,-680,-711,-749,-757,-758,-756,-736,-689,-659,-596,-528,-435,-282,-122,55,246,432,606,766,850,884,901,896,848,799,735,646,597,535,455,400,348,288,251,239,179,80,38,-33,-65,-1,22,57,102,145,192,195,142,86,52,-17,-489,-1406,-973,1002,2129,2871,2487,1542,575,-445,-1112,-1081,-966,-879,-828,-836,-796,-795,-775,-781,-816,-854,-865,-889,-952,-988,-1005,-1030,-1040,-974,-870,-752,-651,-502,-337,-182,-21
2018-05-15,16:32:40.184,99,234,376,498,590,643,655,650,609,542,478,450,360,285,253,201,121,126,148,121,126,104,7,-55,-99,-131,-100,-62,9,99,166,165,167,126,83,75,36,-360,-1351,-978,1569,3095,3827,3325,1929,604,-542,-1146,-1194,-1133,-1092,-1030,-967,-978,-945,-883,-853,-844,-828,-827,-835,-836,-845,-849,-823,-799,-758,-703,-631,-550,-478,-337,-199,-45,107,247,415,570,698,778,794,784,744,701,640,571,493,435,384,337,297,243,235,213,154,71,7,-41,-123,-128,-54,-12,71,168,276,351,425,455,446,429,378,-112,-1043,-494,1653,2897,3565,2867,1586,496,-548,-1172,-1200,-1143,-1095,-1051,-985,-950
2018-05-15,16:32:41.221,-905,-892,-883,-883,-886,-876,-912,-919,-931,-945,-937,-929,-910,-844,-793,-716,-605,-483,-345,-185,-38,115,293,466,594,657,660,676,659,618,537,462,400,362,307,260,183,116,102,83,0,-24,-19,-2,51,131,195,268,332,351,308,313,309,272,254,69,-757,-1262,301,1905,2851,3027,2174,1263,300,-643,-971,-949,-941,-921,-871,-859,-853,-822,-805,-799,-805,-818,-840,-845,-876,-894,-878,-883,-871,-841,-779,-692,-599,-493,-397,-286,-113,36,155,323,463,557,596,582,525,503,464,431,384,341,311,292,307,305,283,263,246,213,124,72,-18,-83,-57,-10,58,157,232,279,332,324,293,265
2018-05-15,16:32:42.258,212,-1,-980,-1362,732,2474,3355,3319,2110,893,-242,-1117,-1311,-1272,-1259,-1226,-1169,-1118,-1110,-1054,-1007,-992,-1002,-999,-970,-973,-992,-1022,-1048,-1031,-1008,-933,-825,-744,-672,-540,-415,-248,-50,170,408,622,769,860,902,916,865,842,794,695,609,553,520,470,423,407,404,391,411,368,261,222,172,146,192,229,292,356,420,433,429,383,358,311,247,-218,-1217,-697,1439,2576,3301,2698,1623,568,-507,-1095,-1106,-1070,-1073,-1071,-1060,-1031,-976,-943,-944,-934,-934,-963,-986,-966,-925,-881,-859,-846,-792,-728,-662,-583,-491,-383,-269,-139,3,161,328,451,543,626,638,633,636,627,582,508,424,374,340,298
2018-05-15,16:32:43.295,240,198,204,124,12,-40,-103,-115,-62,-29,29,108,174,191,201,180,157,122,77,-357,-1350,-937,1481,2686,3438,2823,1576,507,-540,-1233,-1267,-1221,-1206,-1192,-1146,-1123,-1095,-1059,-1038,-990,-888,-811,-798,-797,-787,-816,-842,-848,-818,-768,-702,-650,-546,-429,-291,-112,46,252,445,611,758,842,878,857,816,774,706,628,565,514,461,401,370,321,272,251,225,124,43,7,-36,-13,34,84,165,198,239,293,268,192,151,130,-5,-766,-1457,-46,1923,2891,3294,2313,1128,-36,-975,-1198,-1063,-990,-946,-898,-868,-857,-860,-852,-839,-842,-849,-850,-860,-874,-890,-940,-980,-979,-919,-848,-725,-594,-478,-360
2018-05-15,16:32:44.332,-211,-73,79,227,389,528,622,695,702,673,622,570,526,446,393,354,305,257,225,215,207,210,139,32,-24,-80,-98,-58,-13,96,217,218,277,320,264,197,174,4,-861,-1322,511,2392,3357,3504,2338,1181,154,-750,-1027,-1000,-958,-944,-907,-873,-855,-843,-791,-765,-741,-741,-728,-710,-685,-705,-741,-715,-698,-677,-613,-546,-483,-376,-247,-126,-8,123,249,397,541,636,677,677,667,620,568,497,435,370,328,286,236,209,174,135,104,18,-34,-70,-116,-97,-67,-16,67,151,211,282,310,303,292,225,-273,-1224,-603,1509,2644,3290,2671,1531,499,-511,-1165,-1186,-1104,-1079,-1030,-984,-957,-946
2018-05-15,16:32:45.370,-940,-936,-927,-936,-948,-961,-987,-993,-1020,-1026,-1013,-960,-878,-798,-695,-589,-440,-302,-176,-32,98,226,344,423,468,451,435,427,399,335,305,282,186,219,185,133,117,138,139,156,130,108,151,142,164,210,248,319,348,378,432,408,327,305,304,144,-730,-1211,584,2404,3370,3562,2538,1353,156,-832,-1083,-1004,-969,-967,-945,-911,-902,-864,-857,-851,-839,-846,-864,-881,-874,-921,-952,-942,-911,-871,-792,-705,-624,-523,-384,-203,-83,42,224,375,544,638,670,691,686,619,549,525,506,502,468,435,412,383,356,331,320,262,130,46,-12,-31,32,95,172,249,338,398,388,363,325,304
2018-05-15,16:32:46.407,205,-532,-1350,25,2070,3103,3479,2453,1248,173,-819,-1211,-1164,-1125,-1111,-1100,-1081,-1043,-1030,-1014,-988,-945,-960,-969,-990,-1032,-1026,-1045,-1060,-1043,-981,-896,-804,-697,-566,-431,-285,-165,-20,159,337,478,603,722,808,837,822,766,684,601,522,488,449,403,333,273,237,176,116,78,59,61,150,221,295,348,394,446,453,433,418,383,271,-370,-1286,-298,1790,2736,3239,2493,1472,442,-581,-1098,-1084,-1066,-1059,-1028,-998,-973,-982,-965,-966,-964,-961,-969,-1013,-1021,-1030,-1058,-1067,-1020,-1016,-993,-902,-783,-616,-432,-223,-29,131,294,440,557,634,666,681,657,606,552,488,441,387,319,264,239,242,241
2018-05-15,16:32:47.444,239,232,186,58,10,-43,-49,7,47,110,175,206,223,227,176,148,106,-5,-665,-1592,-366,2156,3194,3679,2667,1259,12,-1084,-1505,-1456,-1427,-1389,-1318,-1236,-1167,-1125,-1088,-1067,-1094,-1112,-1093,-1069,-1008,-962,-923,-868,-803,-711,-611,-514,-410,-337,-229,-96,36,112,263,450,621,741,861,939,954,946,919,865,805,758,708,664,609,568,515,502,452,324,230,169,142,186,232,287,358,421,456,461,408,385,356,297,-76,-1043,-894,1119,2419,3206,2917,1862,804,-311,-1028,-1050,-995,-1016,-1020,-966,-955,-889,-809,-762,-770,-765,-765,-774,-802,-832,-862,-841,-820,-793,-734,-658,-568,-499,-401,-304,-193,-87
2018-05-15,16:33:19.895,-1276,-1233,-1196,-1141,-1069,-959,-925,-913,-910,-940,-955,-989,-1009,-1023,-1053,-1057,-1010,-996,-953,-853,-720,-557,-464,-254,-41,141,364,519,642,724,744,759,703,633,539,444,449,376,292,269,240,163,175,189,178,177,93,0,-11,-25,-24,49,64,173,251,325,405,454,492,489,469,384,-233,-1035,-79,1938,2962,3442,2629,1458,449,-561,-1021,-1009,-933,-939,-941,-886,-855,-914,-908,-871,-869,-933,-965,-964,-997,-1013,-1007,-994,-945,-908,-834,-730,-525,-294,-123,91,299,454,600,679,736,749,753,764,712,653,575,500,440,394,373,335,282,221,193,176,186,118,26,-20,-83,-118,-91,-44,43,110
2018-05-15,16:33:20.658,180,243,247,195,178,143,64,-558,-1432,-370,1753,2710,3217,2370,1115,115,-753,-1210,-1272,-1290,-1203,-1089,-1073,-1093,-1054,-1019,-1020,-1019,-1007,-1019,-1047,-1055,-1081,-1066,-1054,-1013,-929,-801,-613,-412,-216,-41,181,391,569,703,766,825,819,830,788,736,654,579,523,462,411,329,264,233,171,139,122,104,7,-89,-131,-163,-182,-160,-62,38,70,117,183,291,314,279,244,208,-110,-1103,-1018,1159,2593,3370,3039,1780,631,-391,-1114,-1197,-1102,-1059,-1053,-990,-944,-920,-904,-879,-886,-927,-957,-959,-1005,-1049,-1109,-1097,-1054,-1007,-932,-789,-631,-458,-308,-132,72,263,459,591,665,745,743,711,635,647,704,621
2018-05-15,16:33:21.695,550,523,512,410,333,310,244,231,296,341,333,252,143,97,50,76,188,284,361,413,469,503,472,404,364,343,159,-736,-1185,510,2172,3061,3112,2015,988,21,-837,-1127,-1093,-1044,-1060,-1052,-1034,-985,-972,-951,-924,-912,-911,-884,-899,-944,-948,-916,-913,-917,-871,-789,-687,-534,-357,-178,6,197,392,536,624,671,671,637,638,609,538,448,376,329,274,184,143,98,98,77,35,42,20,-74,-107,-199,-222,-201,-147,-124,9,71,120,176,98,64,86,-48,-689,-1585,-607,1916,2965,3513,2621,1343,280,-686,-1206,-1192,-1120,-1119,-1079,-1034,-1042,-1043,-993,-1001,-960,-910,-902,-898,-904,-939,-965,-959
2018-05-15,16:33:22.732,-919,-844,-763,-637,-482,-334,-150,77,266,456,628,723,779,830,855,826,774,773,724,631,558,532,459,372,327,309,286,295,273,302,286,286,281,163,113,58,-11,6,69,103,158,235,265,295,296,280,277,235,-204,-1227,-717,1730,2899,3558,2910,1666,558,-477,-1111,-1155,-1112,-1127,-1099,-1064,-1066,-1058,-1035,-997,-1013,-1029,-1035,-1044,-1057,-1064,-1104,-1107,-1062,-1006,-918,-779,-620,-451,-290,-112,94,302,444,573,667,739,738,707,708,666,607,539,463,502,420,342,325,283,286,272,244,248,247,254,186,61,19,-57,-67,-13,50,93,113,184,258,268,196,166,132,87,-424,-1341,-656,1415
2018-05-15,16:33:23.769,2525,3238,2497,1434,466,-532,-1062,-1054,-1010,-993,-977,-971,-947,-929,-932,-927,-919,-910,-926,-939,-965,-983,-987,-987,-938,-867,-763,-675,-532,-388,-228,-30,148,323,471,597,674,729,741,731,691,631,571,541,480,396,305,248,249,250,227,189,145,67,31,-37,-100,-107,-149,-9,73,74,97,195,225,230,283,208,206,256,47,-739,-1370,48,1933,2896,3179,2167,1115,183,-756,-1098,-1060,-1027,-1002,-974,-956,-937,-923,-937,-937,-924,-973,-1007,-1045,-1082,-1107,-1134,-1139,-1093,-1007,-886,-776,-635,-472,-307,-96,109,302,472,618,698,777,811,793,751,685,616,543,473,412,355,307,249,229,232,226,228
2018-05-15,16:33:24.806,219,176,179,110,46,12,-17,8,31,86,173,213,248,313,354,310,256,201,-31,-955,-1264,717,2520,3347,3280,2036,876,-183,-1055,-1249,-1180,-1146,-1104,-1130,-1060,-987,-1020,-988,-840,-820,-890,-942,-958,-980,-1012,-1015,-1007,-928,-802,-723,-605,-445,-223,3,180,354,571,739,827,911,943,922,897,828,763,701,626,554,478,383,339,288,282,282,243,224,207,145,68,30,-69,-59,7,38,116,172,215,290,282,238,251,221,101,-444,-1348,-677,1393,2421,3029,2414,1403,495,-482,-1111,-1143,-1097,-1079,-1070,-1055,-1012,-985,-966,-939,-936,-946,-949,-976,-1016,-1020,-1032,-1026,-1010,-946,-859,-732,-614,-474,-300
2018-05-15,16:33:25.844,-126,28,223,358,454,504,524,502,502,469,430,434,386,317,279,207,175,164,139,117,134,116,42,-12,-18,-59,-36,36,84,135,196,235,268,298,265,239,173,-116,-935,-1336,310,1932,2636,2530,1912,1173,275,-637,-915,-843,-840,-796,-767,-752,-726,-710,-712,-700,-700,-691,-671,-676,-709,-725,-717,-714,-733,-655,-590,-508,-393,-249,-100,73,242,372,490,542,543,562,552,524,490,435,403,359,303,251,219,200,187,139,65,-18,-68,-87,-89,-39,16,57,129,185,213,218,231,236,208,64,-511,-1347,-716,1382,2554,2739,2165,1466,562,-318,-925,-916,-861,-838,-856,-832,-765,-732,-759,-726
2018-05-15,16:33:26.881,-680,-647,-657,-654,-632,-627,-651,-650,-581,-542,-493,-379,-265,-118,30,176,316,431,519,596,626,634,626,576,536,492,423,379,257,153,92,49,100,199,152,149,204,233,253,242,214,197,170,60,-499,-1289,-833,1034,2169,2542,1961,1301,464,-417,-913,-867,-795,-764,-736,-717,-705,-674,-658,-653,-667,-710,-741,-764,-789,-809,-814,-797,-768,-741,-653,-546,-415,-280,-146,31,177,275,375,447,498,507,467,444,397,338,303,232,184,144,87,83,71,45,41,18,19,-16,-99,-153,-157,-47,95,113,117,132,156,173,127,-33,-792,-1495,-260,1762,2787,2928,2245,1393,420,-582,-1016,-913,-877,-891
2018-05-15,16:33:27.918,-855,-848,-799,-777,-761,-748,-763,-791,-839,-831,-837,-853,-868,-849,-784,-717,-631,-507,-375,-204,-22,138,305,462,570,650,664,666,669,639,611,545,460,398,355,294,210,163,116,72,57,47,56,80,82,71,82,73,65,39,28,52,69,79,56,28,-27,-146,-177,-203,-234,-192,-141,-91,-51,-12,35,78,39,6,10,-185,-1025,-1755,-186,2071,2980,3283,2330,1087,-94,-1017,-1345,-1345,-1263,-1250,-1182,-1162,-1128,-1032,-937,-949,-974,-959,-983,-1006,-1012,-1017,-1014,-968,-922,-859,-719,-593,-412,-218,20,231,405,570,698,782,844,878,861,813,777,731,664,573,504,440,374,315,275,244,217,218
2018-05-15,16:33:28.955,202,207,162,80,49,5,15,-6,-30,-17,-76,-135,-163,-191,-189,-99,-25,50,128,160,214,264,248,207,175,104,-537,-1441,-268,1930,2963,3443,2641,1478,350,-689,-1137,-1122,-1091,-1044,-1002,-980,-963,-965,-937,-932,-948,-977,-1037,-1061,-1118,-1156,-1170,-1205,-1197,-1146,-1034,-841,-657,-532,-315,-68,145,274,371,525,653,642,739,758,753,734,718,697,598,536,485,431,414,389,379,353,312,297,303,324,363,389,378,383,410,372,260,149,91,2,-30,65,94,147,181,232,305,301,264,232,216,66,-683,-1359,-1,1850,2785,3066,2230,1248,208,-793,-1176,-1155,-1116,-1084,-1014,-971,-943,-894,-857,-821
2018-05-15,16:33:29.992,-813,-864,-891,-895,-932,-974,-1003,-993,-953,-884,-807,-696,-575,-416,-208,12,222,391,518,605,665,683,699,685,630,574,518,472,401,320,263,225,173,137,101,106,115,89,78,66,-19,-72,-210,-137,-125,-168,-170,-69,58,101,125,189,225,236,216,194,46,-648,-1483,-323,1801,2800,3217,2447,1323,309,-700,-1142,-1036,-961,-926,-884,-850,-818,-772,-758,-795,-838,-867,-882,-915,-987,-992,-996,-1036,-990,-945,-866,-739,-583,-404,-217,-17,174,324,478,570,662,731,711,727,710,691,668,580,521,528,506,439,362,321,306,278,228,218,230,218,216,179,161,125,39,-23,-11,-29,-39,-38,10
2018-05-15,16:33:31.030,45,100,117,164,159,145,118,54,-579,-1426,-385,1836,2916,3392,2525,1285,213,-779,-1282,-1286,-1183,-1154,-1128,-1135,-1165,-1077,-1018,-998,-1018,-1046,-979,-932,-974,-1017,-1037,-1002,-964,-877,-767,-601,-446,-316,-146,97,338,565,792,963,1033,1073,1060,1049,1010,912,800,733,672,602,548,501,443,391,364,341,312,291,304,253,205,151,114,47,18,28,76,153,165,189,227,241,224,221,188,124,-298,-1159,-756,1192,2296,2977,2568,1576,640,-294,-998,-1082,-1056,-1095,-1087,-1056,-993,-911,-883,-884,-889,-941,-991,-1037,-1064,-1071,-1096,-1082,-1059,-1000,-909,-815,-681,-515,-264,-56,72,226,329,507,627,617,549,502
2018-05-15,16:33:32.067,432,443,319,263,218,222,161,158,122,119,129,149,169,190,171,202,169,46,-18,-61,-64,-24,8,77,128,212,289,352,363,362,343,231,-410,-1252,-227,1845,2894,3300,2473,1358,293,-715,-1172,-1145,-1123,-1093,-1052,-1046,-1034,-1000,-955,-939,-982,-987,-1012,-1085,-1140,-1209,-1199,-1167,-1180,-1160,-1086,-968,-721,-454,-215,40,265,470,633,739,773,771,801,783,680,564,540,571,537,534,458,352,263,243,212,199,205,213,247,169,37,-56,-80,-109,-72,0,54,50,108,192,213,101,175,183,55,-526,-1487,-770,1664,2876,3537,2895,1555,322,-744,-1255,-1283,-1212,-1149,-1112,-1085,-1076,-1036,-999,-906,-879
2018-05-15,16:33:33.104,-912,-913,-971,-1013,-972,-951,-930,-861,-810,-711,-599,-496,-312,-145,42,220,404,586,729,802,843,876,827,765,695,590,558,485,419,380,359,270,194,221,189,163,184,76,16,-10,-40,-32,52,158,194,235,277,270,229,195,162,138,-115,-1047,-1182,830,2190,3046,2883,1856,860,-147,-982,-1192,-1170,-1167,-1129,-1082,-1062,-1063,-1039,-1010,-1034,-1059,-1071,-1121,-1126,-1105,-1115,-1098,-1080,-1035,-928,-842,-680,-520,-285,-184,23,220,411,585,690,686,653,640,696,687,631,594,529,469,389,367,302,286,242,217,172,168,95,48,40,66,154,192,262,335,369,398,394,364,301,270,236,-20,-980,-1267
2018-05-15,16:33:34.141,789,2299,3130,2981,1925,886,-190,-1020,-1184,-1185,-1234,-1271,-1249,-1245,-1210,-1172,-1111,-1060,-1035,-1021,-1035,-1031,-1001,-945,-955,-948,-890,-828,-710,-562,-402,-244,-38,157,342,495,636,760,855,935,944,910,855,795,732,648,567,473,389,346,268,228,200,218,176,63,-19,-95,-99,-70,-6,57,88,225,256,341,311,279,256,244,-183,-1187,-987,1413,2629,3334,2876,1744,760,-255,-1002,-1081,-1010,-998,-964,-937,-888,-830,-812,-847,-814,-780,-830,-883,-896,-925,-965,-951,-955,-911,-792,-668,-556,-414,-251,-63,130,317,464,565,662,691,697,634,573,550,509,426,386,373,320,268,254,201,163,123,119,118
2018-05-15,16:33:35.178,-7,-12,-38,-53,-4,42,114,113,145,213,226,202,196,182,110,-399,-1343,-620,1662,2783,3331,2658,1456,400,-610,-1229,-1229,-1174,-1130,-1082,-1066,-1049,-1012,-978,-1014,-1033,-1055,-1044,-1072,-1076,-1068,-1088,-1065,-1009,-912,-803,-704,-574,-410,-226,-46,157,449,584,672,782,870,862,842,804,747,708,648,575,485,381,296,245,232,250,258,176,110,29,4,71,105,128,183,246,257,304,277,234,214,166,-51,-934,-1337,425,2106,2944,3052,2183,1160,17,-968,-1201,-1129,-1104,-1078,-1045,-1039,-1001,-958,-948,-977,-999,-997,-989,-1000,-1040,-1063,-1089,-1080,-1011,-916,-799,-672,-486,-262,-39,180,399,607,766,880,898
2018-05-15,16:33:36.216,900,878,826,755,691,610,536,472,422,351,293,244,204,74,-5,-20,-60,-35,37,97,141,204,255,269,273,244,151,119,-124,-849,-1459,132,2265,3226,3472,2530,1345,154,-833,-1119,-1069,-1047,-1022,-996,-993,-987,-1001,-917,-831,-806,-766,-753,-731,-740,-770,-800,-796,-769,-754,-626,-501,-349,-169,10,203,415,594,713,782,845,856,862,812,722,607,473,347,221,171,114,102,97,67,-29,-84,-99,-57,88,229,309,361,415,450,480,458,374,318,257,2,-971,-1301,893,2735,3622,3560,2317,1056,-139,-977,-1132,-1095,-1073,-1053,-1021,-1012,-1002,-996,-986,-978,-986,-1007,-1052,-1085,-1153,-1234,-1263,-1277,-1257
2018-05-15,16:33:37.253,-1207,-1142,-1058,-902,-668,-513,-268,5,249,385,484,596,674,777,852,854,809,733,636,568,453,358,268,202,133,58,35,40,127,244,334,412,469,536,576,582,548,486,435,297,-473,-1154,377,2409,3360,3622,2543,1291,59,-951,-1234,-1187,-1207,-1184,-1168,-1179,-1206,-1240,-1293,-1253,-1231,-1205,-1196,-1196,-1251,-1254,-1153,-1055,-951,-843,-758,-640,-453,-262,-76,115,299,474,601,669,699,706,721,707,696,660,588,507,440,366,293,226,171,175,123,25,-26,-76,-77,-39,11,58,149,212,248,242,161,142,190,65,-713,-1506,-81,2202,3248,3592,2488,1104,-49,-1044,-1370,-1312,-1183,-1099,-1054,-1032,-975,-957
2018-05-15,16:33:38.290,-920,-936,-941,-983,-1022,-1019,-1077,-1053,-1000,-965,-914,-863,-800,-655,-513,-351,-152,-2,172,362,500,613,671,664,703,657,575,556,469,386,314,249,204,174,165,135,12,-76,-112,-41,15,71,124,205,296,322,362,379,376,353,281,-84,-1066,-965,1124,2466,3270,2844,1663,666,-330,-1046,-1057,-976,-962,-979,-952,-881,-883,-834,-849,-860,-847,-855,-893,-921,-972,-975,-964,-928,-882,-773,-652,-531,-367,-228,-78,66,283,444,559,650,667,703,741,671,594,523,487,418,345,361,365,353,283,175,109,66,42,83,112,124,137,174,209,247,261,271,296,271,-106,-982,-652,1354,2447,3116,2604,1589
2018-05-15,16:33:39.327,666,-270,-998,-1079,-1039,-1053,-1033,-986,-977,-951,-925,-942,-953,-983,-1059,-1135,-1194,-1264,-1277,-1238,-1194,-1105,-1007,-877,-752,-605,-391,-138,126,358,509,624,707,713,705,673,600,529,450,375,324,300,294,295,292,323,277,189,156,23,-23,125,154,130,245,311,317,320,355,408,398,203,-432,-1316,-278,2017,3105,3604,2717,1424,278,-746,-1292,-1302,-1202,-1132,-1104,-1042,-999,-1002,-973,-902,-902,-977,-992,-974,-893,-848,-871,-874,-823,-741,-623,-499,-353,-172,30,187,364,488,672,802,851,872,878,849,787,731,654,534,463,408,332,289,220,192,133,43,-14,-72,-73,-51,0,70,79,257,348,340
2018-05-15,16:33:40.365,336,353,313,170,-478,-1305,-347,1734,2789,3242,2411,1265,255,-690,-1066,-1016,-987,-986,-935,-901,-886,-906,-889,-875,-902,-932,-956,-962,-979,-1006,-1013,-987,-924,-855,-783,-639,-506,-352,-162,12,215,396,542,663,728,774,756,717,704,698,600,479,409,351,285,257,234,170,65,20,12,14,31,65,122,201,282,371,455,450,435,378,275,106,-627,-1277,205,2159,3131,3285,2321,1362,323,-718,-1077,-1046,-1016,-973,-949,-922,-905,-852,-828,-852,-897,-925,-950,-973,-962,-942,-943,-896,-784,-795,-775,-641,-510,-355,-170,0,258,455,507,584,663,637,616,605,543,509,433,355,299,250,200,148,73,-11
2018-05-15,16:33:41.402,-117,-138,-170,-161,-50,-4,1,106,184,206,245,203,160,193,109,-413,-1315,-620,1692,2826,3375,2542,1350,374,-595,-1140,-1197,-1221,-1148,-1143,-1102,-1061,-1020,-1033,-1063,-1050,-1040,-1103,-1131,-1144,-1108,-1058,-1021,-991,-903,-781,-610,-438,-272,-52,110,291,493,654,779,801,830,836,798,745,675,612,586,484,355,309,290,232,183,121,3,-106,-145,-57,4,26,146,189,190,209,228,226,210,189,65,-736,-1399,60,1921,2878,3215,2306,1141,8,-932,-1194,-1116,-1102,-1089,-1072,-1047,-1022,-963,-947,-996,-993,-974,-1062,-1053,-1036,-1032,-1030,-974,-886,-797,-659,-524,-424,-235,-66,114,313,477,608,711,765,754,764
2018-05-15,16:33:42.439,759,715,616,563,513,437,390,291,240,255,214,88,24,-5,39,79,102,161,249,327,359,337,320,314,306,251,-278,-1227,-440,1601,2649,3228,2498,1435,473,-512,-970,-938,-905,-891,-881,-870,-865,-856,-846,-826,-852,-901,-929,-956,-998,-997,-1012,-978,-946,-879,-783,-675,-544,-390,-251,-67,66,220,451,578,577,592,616,618,575,614,643,558,490,406,348,295,239,151,46,-7,-51,-24,46,87,173,258,307,356,354,315,288,252,127,-575,-1375,-148,1916,2841,3217,2297,1257,264,-727,-1175,-1117,-1051,-1040,-998,-1016,-962,-947,-962,-920,-897,-916,-939,-1002,-998,-1003,-1084,-977,-829,-787,-659,-494,-312
2018-05-15,16:33:43.476,-128,13,160,313,437,580,676,724,686,667,642,597,573,536,462,399,335,261,259,192,117,8,-54,-132,-127,-51,-15,36,111,130,160,207,154,126,150,18,-769,-1472,-38,1999,2972,3306,2577,1469,300,-743,-1278,-1267,-1176,-1129,-1051,-981,-951,-944,-943,-946,-955,-970,-980,-1007,-1048,-1072,-1066,-1027,-962,-857,-740,-614,-460,-259,-73,103,294,458,590,700,741,745,739,714,657,575,511,430,352,350,260,247,256,206,69,0,-5,54,63,147,198,223,424,503,476,456,414,375,233,-641,-1203,576,2438,3366,3459,2329,1240,125,-800,-1057,-990,-896,-835,-813,-793,-759,-747,-745,-749,-807,-859,-871
2018-05-15,16:33:44.513,-905,-920,-943,-971,-935,-886,-807,-706,-594,-482,-332,-184,-7,199,363,505,634,675,659,648,629,588,536,461,411,349,268,213,183,97,-32,-94,-133,-110,-67,-19,43,114,157,228,255,196,185,237,118,-551,-1339,-142,1946,2915,3315,2474,1400,321,-705,-1133,-1112,-1057,-1030,-1022,-1011,-965,-945,-933,-957,-982,-1009,-989,-1031,-1003,-1027,-1072,-1064,-1009,-932,-867,-750,-579,-388,-145,80,238,402,538,636,660,664,677,654,613,544,461,415,389,320,275,279,256,141,72,2,1,86,133,157,236,296,313,373,354,287,244,188,-205,-1186,-883,1301,2666,3354,2925,1783,622,-532,-1176,-1230,-1229,-1233,-1220
2018-05-15,16:33:45.551,-1181,-1164,-1104,-1052,-1021,-1016,-995,-936,-904,-908,-935,-935,-928,-900,-819,-704,-590,-473,-311,-138,22,184,367,552,687,767,809,801,784,744,683,607,543,484,420,374,333,274,163,59,17,45,83,148,187,271,336,385,380,333,302,242,147,-108,-1121,-1119,1186,2725,3521,3155,1909,826,-197,-885,-986,-946,-926,-904,-897,-879,-820,-794,-814,-841,-901,-901,-829,-838,-868,-823,-807,-795,-747,-681,-623,-471,-311,-219,-143,-5,142,288,415,482,547,535,503,502,456,411,374,309,240,164,44,-26,-166,-211,-197,-123,-30,34,120,208,274,316,334,291,246,217,90,-668,-1333,191,2153,3017,3254,2293
2018-05-15,16:33:46.588,1190,106,-816,-1061,-977,-955,-955,-928,-898,-897,-885,-882,-883,-902,-941,-994,-1044,-1053,-1050,-1044,-1094,-1087,-896,-730,-660,-523,-398,-207,-52,18,198,421,491,559,617,601,588,549,497,489,469,436,371,322,268,219,130,50,-18,-42,29,97,178,257,330,429,477,463,440,414,247,-623,-1169,610,2507,3397,3435,2335,1142,-18,-937,-1150,-1073,-1041,-1063,-1025,-983,-948,-947,-974,-980,-983,-1022,-1063,-1080,-1075,-1053,-1001,-950,-878,-790,-648,-482,-333,-180,-24,103,233,403,550,641,697,707,679,614,561,573,583,566,519,468,404,353,313,214,106,59,22,49,109,167,217,271,312,363,352,328,267
2018-05-15,16:33:47.625,231,-94,-1146,-1089,1205,2601,3361,3056,1990,880,-285,-1072,-1159,-1095,-1052,-1069,-1000,-880,-785,-782,-780,-761,-750,-756,-778,-762,-773,-781,-831,-849,-784,-652,-502,-365,-240,-124,-11,94,206,335,435,501,483,481,477,442,367,314,265,182,124,68,51,-6,-80,-136,-202,-224,-220,-199,-157,-96,12,83,117,136,141,107,74,-204,-1098,-1023,1202,2664,3414,3122,1969,834,-348,-1134,-1253,-1230,-1223,-1216,-1164,-1058,-969,-903,-816,-781,-762,-772,-801,-832,-891,-917,-915,-877,-819,-699,-586,-466,-338,-218,-85,37,184,299,391,467,497,506,443,338,268,261,215,184,171,171,220,224,153,28,56,73,136,203
2018-05-15,16:33:48.662,249,317,405,461,508,502,447,468,416,269,-454,-1208,141,2237,3275,3710,2827,1668,497,-509,-837,-805,-779,-786,-767,-748,-755,-741,-744,-751,-747,-764,-772,-754,-786,-826,-821,-748,-723,-658,-593,-525,-440,-321,-213,-109,23,164,308,424,560,675,708,683,627,565,506,438,352,278,228,180,87,-34,-59,-76,-51,40,87,141,200,247,285,290,290,253,215,121,-542,-1409,-293,1788,2793,3192,2450,1450,450,-592,-1126,-1158,-1137,-1103,-1065,-1005,-969,-962,-919,-921,-923,-916,-913,-911,-927,-942,-956,-923,-871,-780,-663,-548,-482,-401,-318,-230,-71,76,169,279,346,370,393,390,397,407,417,432,404,356
2018-05-15,16:33:49.700,311,253,244,144,54,-6,-62,-14,19,55,160,235,266,292,282,255,215,115,-392,-1422,-1007,1267,2481,3181,2820,1792,594,-619,-1197,-1159,-1042,-975,-939,-906,-893,-892,-889,-893,-914,-923,-948,-1005,-1059,-1064,-1036,-942,-818,-664,-511,-361,-248,-128,0,109,178,296,402,482,557,604,598,582,572,541,462,333,180,60,76,139,86,69,7,-72,-122,-46,-3,33,100,164,274,458,527,464,410,395,211,-721,-959,1046,2733,3552,3433,2193,1045,-92,-938,-1037,-975,-927,-891,-831,-808,-752,-697,-668,-635,-608,-621,-645,-670,-689,-717,-721,-697,-619,-534,-475,-366,-257,-155,-73,25,115,214,300,373,428
2018-05-15,16:33:50.737,448,420,369,293,208,147,130,119,97,79,11,-44,-14,5,-9,38,109,161,241,289,364,382,314,267,245,198,-260,-1248,-777,1434,2644,3279,2801,1837,822,-238,-940,-1020,-988,-965,-933,-899,-853,-832,-862,-846,-847,-838,-904,-963,-990,-1053,-1053,-1024,-1000,-930,-814,-696,-555,-398,-318,-207,-102,21,98,180,339,451,513,502,467,457,420,354,295,200,115,95,25,-96,-158,-210,-164,-13,88,220,338,437,517,563,496,431,405,307,-442,-1269,84,2205,3193,3570,2642,1433,305,-730,-1101,-1064,-1106,-1107,-1147,-1183,-1156,-1103,-1068,-1052,-1052,-1037,-1036,-1034,-1052,-1034,-973,-874,-715,-574,-452,-338,-224,-115
2018-05-15,16:33:51.774,-17,69,171,284,393,467,501,542,568,568,590,560,489,423,369,321,276,258,231,147,84,8,-15,47,118,189,300,379,436,460,461,426,403,323,-205,-1212,-489,1835,3044,3655,2949,1626,426,-638,-1151,-1151,-1149,-1073,-964,-853,-794,-762,-772,-764,-742,-729,-701,-727,-745,-695,-682,-675,-589,-491,-396,-266,-172,-77,0,68,141,240,362,424,452,476,474,421,384,337,292,202,163,142,75,-13,-75,-111,-147,-92,-29,55,151,216,252,285,272,247,252,245,142,-528,-1411,-332,1709,2764,3205,2460,1455,407,-623,-1079,-1033,-999,-1016,-1010,-974,-924,-882,-846,-817,-804,-821,-850,-876,-903,-924,-924
2018-05-15,16:33:52.811,-898,-817,-730,-602,-488,-367,-250,-141,-76,-2,106,175,261,293,284,224,249,216,158,88,32,-1,-42,-74,-43,-155,-143,-145,-148,-2,126,242,366,412,457,506,493,450,421,329,-392,-1166,124,2225,3255,3697,2815,1648,407,-711,-1054,-951,-938,-948,-922,-896,-858,-831,-860,-875,-872,-889,-938,-952,-956,-943,-900,-878,-786,-670,-580,-481,-377,-287,-189,-78,10,141,310,427,474,516,586,608,600,539,484,428,369,297,256,237,149,80,18,-14,36,110,202,323,404,452,481,472,414,383,345,17,-988,-954,1226,2708,3537,3203,1978,868,-226,-983,-1087,-1034,-989,-969,-957,-959,-927,-919,-939,-960
2018-05-15,16:33:53.848,-970,-957,-970,-943,-914,-905,-872,-803,-712,-554,-382,-229,-85,12,65,143,266,371,461,530,528,555,605,553,492,407,353,319,258,199,99,0,-24,-58,-31,30,69,120,164,220,275,289,282,289,254,110,-561,-1361,-268,1753,2734,3149,2429,1487,413,-695,-1155,-1134,-1086,-1076,-1026,-986,-964,-899,-835,-791,-763,-784,-827,-870,-883,-894,-884,-855,-772,-698,-605,-488,-338,-179,-85,17,138,274,392,443,470,492,486,455,383,317,262,192,152,100,43,9,-73,-149,-262,-290,-231,-187,-135,-3,98,140,197,187,137,126,23,-733,-1522,-184,2296,3438,3828,2796,1451,233,-829,-1139,-1071,-995,-979,-949
2018-05-15,16:33:54.886,-944,-938,-959,-900,-914,-910,-902,-865,-807,-767,-750,-724,-646,-550,-469,-377,-275,-180,-93,-24,47,173,304,394,499,551,588,529,476,445,394,319,213,116,75,33,21,-67,-143,-140,-71,55,138,205,287,388,481,583,560,515,481,414,17,-1054,-621,1658,2910,3602,3100,1903,759,-389,-1011,-996,-909,-875,-857,-855,-804,-791,-801,-822,-819,-844,-894,-909,-906,-889,-866,-806,-743,-663,-598,-463,-351,-279,-181,-140,-99,-67,143,326,378,349,400,314,200,224,189,76,63,136,171,136,75,63,44,37,87,114,219,308,312,336,381,379,351,344,288,-378,-1111,106,2133,3106,3409,2593,1578,512
2018-05-15,16:33:55.923,-569,-974,-947,-921,-911,-926,-903,-879,-883,-858,-866,-874,-911,-934,-953,-1004,-996,-935,-865,-820,-747,-642,-511,-389,-306,-222,-114,21,174,299,394,444,441,416,395,352,288,202,116,58,7,-34,-44,-65,-64,-51,-8,76,130,174,247,307,314,347,333,287,271,215,-337,-1326,-494,1924,3170,3700,2915,1575,319,-826,-1407,-1472,-1433,-1425,-1353,-1313,-1229,-1091,-1021,-983,-913,-854,-860,-880,-888,-878,-843,-733,-641,-560,-426,-260,-127,-40,38,143,212,278,388,503,584,645,685,699,700,656,570,522,470,439,397,357,279,165,104,67,69,134,170,245,320,355,421,445,404,381,314,108,-803,-1399
2018-05-15,16:33:56.960,450,2141,3009,3114,2176,1112,-30,-933,-1093,-945,-850,-766,-701,-696,-718,-727,-715,-746,-748,-749,-780,-816,-831,-833,-803,-731,-600,-459,-346,-270,-178,-86,-53,-16,66,166,258,349,400,399,374,334,289,231,193,154,102,48,-12,-115,-138,-155,-141,-77,-10,49,125,203,257,301,285,270,221,123,-587,-1403,-296,1878,2951,3358,2583,1547,500,-546,-1015,-1017,-1006,-977,-963,-930,-846,-755,-729,-725,-718,-698,-700,-708,-716,-709,-715,-678,-609,-515,-409,-315,-222,-135,-93,-21,86,212,280,314,364,422,442,399,328,261,193,75,-16,-51,-105,-149,-188,-219,-265,-253,-105,45,165,293,361,396,424,404
2018-05-15,16:33:57.997,357,311,239,-432,-1340,-63,2208,3238,3658,2763,1503,259,-776,-1137,-1103,-1062,-1075,-1065,-1044,-1017,-996,-999,-1024,-1032,-1036,-1022,-1008,-1026,-1021,-1003,-1016,-948,-876,-778,-678,-415,-220,-128,-25,134,266,383,499,574,615,643,573,500,471,457,458,411,370,348,266,110,49,29,56,114,180,287,377,461,556,655,673,645,588,478,-90,-1040,-239,1910,3019,3545,2735,1659,622,-464,-990,-971,-918,-882,-821,-806,-812,-781,-793,-802,-804,-882,-896,-842,-879,-858,-762,-706,-639,-512,-412,-329,-230,-127,-25,44,95,170,262,334,376,400,394,375,346,279,211,125,76,39,5,-41,-100,-149,-137,-48,-33,6
2018-05-15,16:33:59.034,88,189,224,260,240,211,179,112,-429,-1329,-501,1782,2908,3362,2624,1495,409,-667,-1230,-1207,-1168,-1160,-1128,-1113,-1084,-1060,-1005,-999,-1020,-1050,-987,-935,-912,-910,-884,-805,-713,-608,-456,-333,-255,-169,-125,-41,70,186,332,446,542,608,611,597,551,491,381,365,318,265,207,104,5,-58,-81,-60,28,90,155,235,280,336,332,303,277,220,-158,-1263,-1297,940,2354,3149,2983,1941,676,-580,-1157,-1082,-949,-880,-873,-835,-827,-821,-816,-826,-832,-861,-877,-926,-1013,-966,-888,-814,-713,-563,-405,-286,-193,-93,7,81,173,291,404,504,558,579,558,525,474,439,405,303,266,273,187,64,32,20
2018-05-15,16:34:00.072,3,60,105,136,228,308,371,387,365,322,274,231,-225,-1149,-415,1791,2931,3519,2856,1749,701,-387,-1003,-1023,-928,-902,-868,-801,-736,-678,-666,-675,-690,-709,-710,-728,-727,-727,-720,-663,-592,-494,-379,-279,-203,-129,-67,10,90,164,253,336,375,389,378,381,374,342,281,205,114,28,-70,-106,-139,-162,-107,-18,30,96,152,188,248,265,230,235,205,-80,-1063,-1172,973,2426,3144,2901,1978,971,-140,-941,-1048,-982,-982,-965,-925,-921,-900,-891,-904,-909,-901,-929,-932,-937,-933,-930,-907,-862,-757,-630,-529,-402,-289,-179,-80,27,113,217,283,365,370,322,297,285,303,310,297,222,163,82
2018-05-15,16:34:01.109,57,2,-48,-18,90,130,169,229,277,315,352,412,407,376,221,-601,-1247,316,2376,3331,3509,2459,1253,49,-892,-1161,-1102,-1079,-1048,-994,-970,-931,-909,-927,-925,-956,-1030,-1046,-1061,-1135,-1191,-1115,-1018,-904,-763,-637,-497,-368,-194,22,208,345,476,604,665,695,663,612,550,471,372,278,170,93,89,98,56,51,54,50,104,181,228,314,387,415,460,461,431,386,330,43,-958,-855,1452,2921,3641,3249,1905,719,-377,-1056,-1100,-1040,-1068,-1072,-1073,-1008,-918,-885,-851,-848,-853,-849,-809,-793,-771,-738,-654,-559,-466,-355,-201,-106,-74,-41,12,81,211,385,500,573,621,663,640,544,506,446
2018-05-15,16:34:02.146,331,252,199,57,-40,-68,-115,-94,8,64,136,220,257,326,343,331,304,267,23,-821,-1300,351,2021,2853,2873,2126,1211,99,-820,-927,-837,-830,-824,-822,-809,-804,-788,-786,-804,-822,-849,-899,-937,-913,-861,-784,-684,-573,-434,-327,-240,-177,-143,-84,-15,63,144,240,294,315,334,346,286,213,164,97,10,-36,-134,-292,-296,-360,-411,-362,-266,-210,-97,-28,39,76,38,122,115,-5,-746,-1326,286,2434,3422,3642,2557,1322,165,-786,-1045,-981,-964,-966,-934,-902,-810,-741,-687,-672,-645,-642,-673,-701,-724,-728,-692,-636,-580,-484,-357,-248,-167,-76,55,157,249,335,447,518,496,468,441,371
2018-05-15,16:34:03.183,255,165,85,2,-72,-107,-152,-255,-325,-311,-196,-15,122,226,338,430,500,543,511,439,387,250,-499,-1314,285,2621,3626,3965,2803,1441,215,-785,-1087,-1010,-984,-1016,-995,-947,-914,-882,-882,-857,-881,-906,-958,-932,-932,-942,-938,-885,-793,-642,-495,-385,-330,-207,-115,-4,206,435,563,594,594,589,592,558,485,414,375,313,269,199,82,-6,-26,-16,-5,83,167,282,392,535,596,582,545,477,395,110,-822,-1054,844,2370,3133,2984,2048,1080,-3,-919,-1069,-978,-945,-937,-909,-850,-834,-861,-805,-816,-864,-882,-889,-878,-897,-876,-785,-729,-672,-516,-359,-262,-162,-95,-45,30,132,245,319,357
2018-05-15,16:34:04.220,374,361,339,306,301,290,235,199,144,56,-43,-116,-170,-218,-166,-61,-39,25,141,204,263,298,265,227,184,-331,-1419,-861,1704,2970,3611,2830,1502,311,-778,-1399,-1425,-1335,-1295,-1221,-1160,-1143,-1148,-1107,-1034,-973,-937,-945,-978,-1010,-999,-968,-894,-810,-673,-524,-385,-242,-74,66,207,368,527,668,756,809,808,764,693,622,567,457,363,293,265,211,101,13,-45,-92,-23,88,123,210,291,356,399,413,364,334,313,30,-1004,-1050,1146,2738,3552,3310,2101,898,-322,-1010,-1055,-967,-981,-980,-950,-953,-939,-945,-964,-986,-977,-981,-943,-906,-869,-819,-755,-684,-618,-510,-368,-249,-164,-79,11,134
2018-05-15,16:34:05.258,252,382,482,546,556,532,484,440,342,336,301,206,101,-18,-81,-186,-231,-265,-261,-176,-71,8,87,167,167,206,275,332,358,248,-589,-1134,630,2461,3315,3387,2308,1184,43,-876,-1066,-961,-873,-815,-758,-679,-631,-605,-601,-608,-621,-652,-682,-732,-745,-707,-712,-650,-570,-444,-309,-210,-106,-42,31,114,217,354,443,476,512,467,347,255,201,151,65,58,26,-34,-113,-197,-168,-100,-52,71,145,231,349,395,424,419,378,338,280,76,-771,-1285,485,2416,3318,3446,2362,1235,71,-883,-1126,-1090,-1088,-1092,-1062,-1000,-934,-911,-929,-936,-961,-999,-1016,-1096,-1103,-1041,-979,-935,-846,-723,-583,-494
2018-05-15,16:34:06.295,-458,-365,-176,-9,77,257,445,510,500,473,450,457,418,326,293,255,197,171,163,76,-21,-52,-100,-43,62,114,192,301,375,469,511,503,492,463,217,-802,-1081,1011,2782,3580,3394,2191,971,-237,-1042,-1159,-1088,-1043,-988,-1004,-1019,-984,-989,-1018,-1006,-1031,-1045,-1054,-1097,-1104,-1087,-1092,-992,-771,-544,-370,-210,-62,40,129,219,338,463,533,540,517,492,462,463,467,467,433,397,364,331,290,203,130,70,1,1,85,165,262,332,347,407,361,331,321,262,-71,-1015,-1117,1267,2813,3610,3195,1804,515,-577,-1183,-1199,-1069,-1040,-1078,-1061,-1006,-975,-940,-934,-959,-964,-979,-959,-940,-962,-940
2018-05-15,16:34:07.332,-912,-794,-665,-490,-346,-182,-31,92,228,360,476,574,678,680,684,665,601,513,448,384,313,273,217,137,42,32,-37,-48,12,84,116,236,302,332,351,333,306,265,179,-329,-1217,-512,1508,2562,3121,2597,1640,600,-462,-1010,-998,-965,-978,-977,-978,-1008,-1041,-1017,-988,-951,-902,-892,-884,-862,-873,-861,-826,-766,-645,-536,-422,-310,-222,-137,-30,79,222,274,318,383,405,355,332,267,204,132,111,56,-12,-79,-180,-264,-257,-269,-220,-90,7,88,172,218,289,326,330,321,321,-6,-1054,-741,1732,3122,3762,3229,1956,752,-399,-1015,-1005,-935,-950,-910,-838,-803,-777,-775,-789,-812,-829,-870
2018-05-15,16:34:08.369,-889,-903,-947,-899,-841,-748,-634,-518,-426,-289,-165,-69,17,111,242,344,426,444,459,412,331,278,222,144,145,129,92,34,30,17,-22,9,-24,0,73,129,175,247,294,329,323,259,221,213,38,-876,-1079,1191,2972,3766,3547,2100,795,-343,-1070,-1195,-1110,-1038,-1006,-982,-935,-908,-928,-937,-945,-957,-1057,-1030,-977,-1018,-989,-963,-915,-823,-694,-490,-332,-210,-73,105,214,336,438,523,627,685,641,635,586,533,470,390,354,331,329,271,103,79,73,69,172,272,361,486,581,614,612,615,533,470,378,-217,-1078,-137,1905,2944,3363,2615,1585,586,-406,-902,-892,-852,-838,-807,-819,-845
2018-05-15,16:34:16.808,230,131,35,3,-39,-80,-12,120,167,226,259,350,410,359,293,270,42,-942,-1178,994,2759,3695,3425,2032,861,-199,-971,-1051,-994,-947,-915,-832,-779,-816,-819,-748,-697,-676,-681,-688,-699,-662,-654,-645,-560,-429,-324,-204,-102,-26,18,53,116,218,271,344,358,322,265,243,259,215,109,-14,-98,-168,-186,-123,-13,85,184,241,273,365,392,368,338,222,-472,-1340,-183,2104,3138,3480,2554,1370,239,-756,-1115,-1053,-1044,-1077,-1022,-963,-942,-941,-933,-928,-961,-1005,-1031,-1021,-1038,-1032,-962,-859,-739,-623,-474,-343,-225,-135,-84,-7,90,181,246,308,334,298,268,202,129,51,14,-88,-131,-171
2018-05-15,16:34:17.845,-189,-136,-22,-18,84,237,285,354,376,413,417,202,-690,-1111,963,3066,3888,3766,2375,1052,-105,-955,-1130,-1050,-994,-1005,-983,-934,-912,-909,-889,-889,-910,-945,-981,-998,-958,-899,-846,-760,-648,-481,-351,-251,-139,-41,46,150,295,446,515,595,599,526,426,332,283,254,196,121,94,78,64,89,212,283,363,435,466,509,530,478,433,343,-398,-1324,156,2517,3568,3863,2719,1413,243,-726,-1058,-1001,-984,-995,-973,-939,-947,-966,-973,-945,-969,-962,-965,-1004,-990,-957,-890,-747,-595,-488,-345,-185,-109,-55,20,130,209,334,431,441,419,405,361,284,200,89,2,-52,-118,-171,-103,125,227,323
2018-05-15,16:34:18.882,426,479,564,548,466,454,361,-267,-1211,-271,1951,3034,3423,2615,1552,553,-466,-959,-1038,-964,-874,-847,-797,-820,-822,-825,-799,-772,-815,-815,-772,-768,-834,-770,-642,-525,-460,-344,-201,-129,-218,-297,-268,-185,-78,48,141,163,174,169,93,28,39,-50,-153,-179,-219,-231,-99,25,43,56,197,313,242,328,397,256,151,-817,-531,1929,3370,3978,3104,1701,688,-332,-941,-1042,-1162,-1264,-1364,-1363,-1298,-1215,-1148,-1148,-1156,-1065,-1001,-984,-924,-828,-619,-430,-352,-249,-82,3,68,106,154,78,343,481,487,665,679,711,662,634,534,371,305,218,146,-18,-72,31,91,195,296,304,181,-139,-147,35
2018-05-15,16:34:19.920,-22,-517,-1618,-1045,1432,2679,3315,2632,1429,407,-613,-1174,-1189,-1145,-1098,-964,-999,-1045,-796,-831,-606,-459,-451,-664,-676,-246,-241,-368,-188,-35,-67,-37,49,100,169,274,317,377,395,289,373,407,340,252,176,69,-57,-166,-180,-162,-236,43,82,138,276,352,386,383,355,315,279,9,-908,-914,1032,2604,3126,2684,1927,1188,169,-778,-997,-871,-770,-746,-664,-875,-1364,-1372,-1222,-1182,-1205,-1288,-1368,-1373,-1278,-1119,-957,-824,-715,-572,-385,-259,-54,79,100,187,341,766,736,852,776,848,913,690,758,703,498,383,232,322,367,185,313,441,484,512,156,-133,-217,-332,-984,-1978,-944,1209,2290,2888
2018-05-15,16:34:20.957,2377,1595,541,-463,-757,-704,-599,-593,-625,-638,-637,-587,-413,-439,-501,-508,-494,-461,-416,-477,-443,-300,-189,-243,-369,-317,-186,-105,-82,-133,-573,-602,-174,189,244,182,103,29,-1,-65,-168,-171,-199,-230,-182,-19,77,171,201,149,332,375,255,487,341,-569,-976,1127,3082,3890,3617,2426,1318,359,-654,-936,-806,-824,-814,-833,-979,-1042,-1002,-1029,-1147,-1261,-1236,-1205,-1040,-945,-825,-647,-553,-460,-344,-263,-117,-29,-22,20,97,147,100,156,358,477,410,341,462,431,275,127,32,-6,75,144,170,204,284,366,371,74,-117,31,63,-803,-1461,162,2129,3079,3157,2126,983,-188,-1157,-1294,-1238,-1162
2018-05-15,16:34:21.994,-1109,-1128,-1100,-822,-801,-970,-1264,-727,-236,-461,-599,-320,-211,-322,-253,31,-22,-96,116,124,19,118,189,94,76,200,249,192,130,-5,-24,5,-89,-172,-187,-208,-195,58,160,238,355,387,493,481,479,701,530,-130,-1012,-42,2436,3146,3646,2843,1784,708,-480,-1086,-1114,-1146,-1173,-1222,-1662,-1900,-1629,-1346,-1278,-1284,-1289,-1291,-1223,-1161,-1058,-981,-894,-715,-513,-387,-256,-115,-27,-35,333,465,565,817,1031,1093,1118,853,808,817,559,400,328,110,127,220,159,206,337,306,196,163,193,214,194,-236,-1319,-1235,913,2304,3038,2791,1900,915,-258,-964,-962,-928,-891,-852,-807,-713,-626,-616,-479,-484
2018-05-15,16:34:23.031,-651,-639,-492,-516,-515,-583,-530,-567,-533,-448,-335,-358,-562,-406,-45,144,238,264,283,194,160,142,93,-54,-223,-330,-339,-335,-512,-322,-152,-181,-134,62,220,576,1050,1017,675,50,-943,-84,2022,3393,3822,3009,1691,581,-352,-904,-983,-1066,-1098,-1041,-959,-914,-1044,-1120,-1062,-974,-882,-860,-852,-804,-813,-698,-572,-478,-454,-247,-65,43,34,176,393,353,541,989,829,610,789,668,458,330,170,59,-66,-198,-247,-176,-438,-564,-357,-144,25,17,-82,-110,-203,-882,-1819,-418,2291,3517,3970,2860,1367,-52,-874,-1120,-1159,-1184,-848,-649,-477,-388,-351,-494,-375,-314,-411,-589,-719,-805,-959,-916,-787,-613
2018-05-15,16:34:24.068,-649,-595,-371,-175,-81,17,118,288,464,467,502,441,409,431,247,251,246,87,-6,35,-12,114,270,407,496,670,899,809,748,628,493,-286,-1131,-5,1991,2944,3375,2639,1261,0,-835,-1018,-950,-941,-919,-962,-1011,-1017,-1039,-1065,-1013,-1032,-1089,-1088,-1218,-1125,-877,-953,-824,-599,-173,278,416,317,449,571,348,400,497,395,390,445,410,228,-54,-303,-537,-578,-652,-563,-516,-522,-366,-198,27,127,152,206,165,58,-777,-1363,156,1816,3050,3462,2418,1346,495,-487,-712,-710,-879,-717,-666,-752,-775,-887,-990,-993,-1051,-1189,-1596,-1975,-1752,-1428,-1260,-1140,-1073,-961,-852,-651,-482,-228,-104,-22,117,225
2018-05-15,16:34:25.106,382,396,388,405,238,29,524,845,465,520,694,782,656,783,819,676,822,845,707,651,450,-715,-1543,288,2174,3068,3063,1928,880,-192,-1044,-1104,-996,-978,-931,-876,-838,-795,-805,-791,-633,-604,-632,-457,-562,-501,-296,-197,-58,65,167,140,278,356,159,72,106,132,215,203,-71,-145,108,169,108,-8,-128,-278,-320,-282,-92,56,45,94,206,227,215,214,146,-678,-1890,480,2994,4082,4319,2968,1781,761,-302,-665,-787,-750,-661,-600,-577,-674,-806,-848,-951,-979,-1005,-969,-1030,-1135,-1038,-913,-738,-540,-422,-315,-209,-187,-163,-52,19,195,427,440,383,512,523,501,519,415,204,51,6,-112
2018-05-15,16:34:26.143,-117,40,153,164,248,371,170,-250,-348,-559,-1484,-1067,1418,2809,3463,2868,1560,337,-726,-1344,-1271,-1119,-1173,-1091,-1113,-1109,-673,-528,-574,-276,-203,-359,-487,-549,-450,-281,-299,-244,-216,-141,-43,-32,-138,-307,-400,-301,-190,-174,-135,-133,-127,-32,56,-26,-109,-92,-90,-21,202,281,416,524,611,673,686,650,756,694,-308,-497,1346,3019,3742,3546,2666,1625,376,-585,-775,-792,-815,-1097,-1569,-1678,-1374,-1124,-1044,-1163,-1186,-1259,-1290,-1228,-1178,-1051,-907,-804,-633,-465,-296,-110,33,-86,123,381,1043,956,888,1096,1073,852,711,474,472,417,201,239,348,295,157,63,66,102,151,161,70,-419,-1501,-1573
2018-05-15,16:34:27.180,778,2232,3012,2794,1981,934,-230,-894,-822,-828,-863,-879,-767,-592,-539,-525,-491,-502,-448,-335,-389,-449,-378,-476,-538,-590,-482,-362,-328,-315,-506,-603,-301,59,232,234,224,100,-35,-120,-352,-470,-435,-517,-517,-288,-286,-296,182,197,44,573,708,950,925,118,-761,652,2961,3894,3868,2685,1685,612,-527,-930,-1041,-1232,-1435,-1666,-1618,-1510,-1446,-1402,-1340,-1281,-1085,-979,-862,-802,-774,-693,-556,-458,-307,-238,-188,-45,74,108,295,547,689,840,803,762,832,614,318,255,73,-106,-111,-54,-121,-52,1,-258,-401,-87,157,209,17,-883,-1582,289,2481,3416,3536,2336,1032,-187,-973,-1134,-1159,-904,-869,-912
2018-05-15,16:34:28.217,-920,-694,-357,-208,-331,-331,-460,-337,-310,-431,-356,-381,-324,-263,-229,-141,-172,-262,-243,-127,-64,-22,-23,-21,-21,43,49,29,-39,-200,-260,-172,-20,33,103,178,215,382,436,337,270,342,-203,-888,454,2235,3055,3142,2386,1487,479,-318,-628,-584,-544,-569,-874,-1371,-1360,-925,-758,-832,-958,-1095,-1229,-1238,-1233,-1149,-1032,-885,-758,-653,-565,-418,-253,-216,74,15,206,821,1056,1097,1078,786,724,636,328,171,314,326,250,244,279,174,107,-35,-276,-313,-456,-1312,-1903,37,1877,2829,3063,2160,1106,-17,-884,-974,-917,-872,-853,-832,-763,-681,-681,-555,-422,-479,-504,-468,-382,-418,-340,-379,-415,-318
2018-05-15,16:34:29.254,-233,-122,-116,-165,-195,-249,-583,-649,-261,12,30,31,-68,-187,-343,-407,-397,-346,-152,-46,32,200,316,255,370,461,404,727,-215,-928,1050,3355,4171,4017,2990,1649,749,-123,-724,-572,-463,-542,-597,-774,-896,-982,-1122,-1150,-1087,-1052,-1164,-1134,-934,-758,-612,-513,-490,-423,-349,-268,-233,-213,-147,-67,69,165,194,174,298,331,153,113,224,161,127,129,206,332,323,289,318,334,328,45,-944,-1767,-456,1970,3176,3543,2567,1228,9,-990,-1400,-1344,-1343,-1331,-1268,-1259,-1226,-1136,-994,-1074,-1143,-1040,-866,-599,-663,-478,-293,-178,190,291,134,249,416,431,340,428,451,233,37,-101,-233,-379,-597,-784
2018-05-15,16:34:30.292,-932,-902,-621,-375,-160,16,169,345,481,554,578,535,201,-668,-406,1755,3199,4005,3503,2224,1319,171,-251,-149,-277,-248,-339,-412,-426,-468,-519,-636,-721,-803,-1045,-1427,-1498,-1166,-912,-775,-667,-590,-508,-416,-318,-112,52,237,370,422,457,429,440,387,315,201,193,288,175,497,562,840,870,1011,1110,953,933,839,308,-728,-291,2070,3250,3585,2722,1511,417,-680,-1260,-1273,-1249,-1231,-1054,-889,-831,-810,-818,-826,-770,-763,-768,-771,-802,-873,-687,-425,-357,-224,-74,35,38,237,228,252,291,364,271,217,204,127,14,-108,-475,-949,-964,-589,-192,41,39,24,-79,-171,-186,-390,-1359,-1705,654,2576
2018-05-15,16:34:31.329,3553,3321,1868,439,-382,-822,-1058,-1061,-707,-322,-319,-511,-548,-466,-505,-607,-478,-517,-671,-825,-748,-674,-849,-1274,-1248,-1161,-1102,-1102,-1103,-1012,-882,-753,-504,-327,-135,-95,-108,-166,-211,-175,-147,29,151,264,375,477,589,790,939,937,763,313,-733,-57,1881,3056,3702,3334,2102,876,-204,-744,-794,-1046,-1476,-1611,-1295,-997,-901,-938,-1128,-1287,-1379,-1312,-1279,-1222,-1138,-1035,-943,-803,-582,-331,-178,144,216,223,583,1010,1293,1241,992,846,903,818,636,467,510,638,648,630,613,638,459,208,88,-48,-496,-1514,-1264,736,1993,2779,2614,1791,759,-358,-928,-950,-855,-750,-704,-652,-629,-612,-492,-385,-427,-299
2018-05-15,16:34:32.366,-223,-275,-147,-188,-266,-105,210,385,307,365,474,305,296,426,494,321,137,245,396,343,245,63,-199,-266,-194,-99,-72,9,54,151,226,223,148,-455,-1384,-412,2363,3800,3952,3076,1962,455,-116,-305,-546,-659,-437,-540,-659,-566,-644,-771,-854,-1037,-1297,-1509,-1550,-1571,-1513,-1408,-1456,-1445,-1249,-916,-615,-508,-388,-216,0,43,166,241,271,253,255,172,156,-44,-61,254,372,378,599,647,517,449,521,548,294,-756,-1212,694,2420,2928,2404,1143,363,-501,-1280,-1460,-1305,-1335,-1343,-1287,-1156,-1152,-1104,-1001,-1009,-1014,-948,-921,-1019,-902,-689,-770,-311,211,677,599,592,620,765,703,764,805,690,517
2018-05-15,16:34:33.403,550,431,264,53,-222,-201,-289,-296,-190,-173,-136,-103,-92,-24,30,-300,-1172,-991,974,2294,3048,2734,1920,956,-235,-845,-864,-840,-765,-649,-710,-383,-516,-568,-387,-389,-426,-540,-572,-564,-647,-702,-632,-706,-910,-919,-534,-124,52,114,93,81,-17,-24,-11,-46,-165,-276,-279,-259,-71,30,-41,11,179,602,866,867,912,787,-321,-1065,535,3271,4131,3985,2518,1531,503,-560,-936,-1088,-1259,-1447,-1553,-1526,-1544,-1573,-1691,-1677,-1569,-1502,-1450,-1352,-1328,-1153,-1010,-861,-688,-505,-367,-293,-39,99,114,281,677,779,764,881,605,395,388,537,381,312,448,429,439,388,449,481,227,-209,-358,-828,-1479,228
2018-05-15,16:34:34.440,2571,3505,3680,2448,1091,-144,-964,-1100,-1022,-937,-892,-833,-804,-767,-689,-778,-766,-587,-558,-422,-281,-241,26,94,370,150,-75,330,371,296,437,504,463,284,202,98,-108,-269,-368,-584,-828,-786,-561,-423,-265,-238,-187,-5,42,60,51,-208,-1073,-1277,742,2124,2939,2994,2277,1392,394,-169,-150,-210,-375,-485,-437,-406,-411,-422,-523,-615,-667,-942,-1301,-1234,-844,-667,-617,-625,-576,-518,-481,-396,-299,-180,-24,80,104,228,253,150,67,-147,-152,-136,35,251,369,766,895,835,937,1045,1112,828,-145,-864,511,2723,3688,3665,2356,817,-539,-1581,-1979,-2111,-2189,-2124,-1940,-1735,-1525,-1427,-1371,-1242,-1173,-1117
2018-05-15,16:34:35.478,-1080,-1018,-861,-724,-562,-367,-287,-60,296,403,522,766,906,779,754,786,845,654,498,332,88,-71,-192,-339,-465,-85,386,549,733,800,692,619,295,-820,-988,1416,3313,4184,3807,2439,1022,-151,-791,-817,-514,-282,-522,-553,-642,-434,-259,-347,-522,-303,-443,-526,-552,-565,-499,-386,-612,-910,-910,-854,-850,-747,-632,-642,-591,-472,-290,-52,-181,-282,-270,-299,-210,27,86,63,238,543,631,651,756,770,469,-125,-416,1240,2834,3646,3423,2639,1842,765,-208,-408,-349,-437,-577,-966,-1497,-1513,-1086,-932,-1003,-1121,-1229,-1301,-1241,-1123,-981,-884,-766,-609,-450,-272,-90,159,331,371,564,698,1031,1219,817,659
2018-05-15,16:34:36.515,610,526,694,359,414,630,562,601,635,579,216,-130,-570,-1601,-2335,-852,1106,2019,2396,1669,674,-377,-1205,-1402,-1219,-1098,-1063,-1037,-986,-930,-878,-870,-837,-708,-702,-525,-581,-544,-329,-137,-28,57,-38,-126,48,151,170,239,231,268,167,-345,-841,-641,-270,-235,-280,-146,-53,-6,98,159,300,371,372,388,377,-111,-1138,-487,2244,3572,3988,3337,2103,661,-437,-787,-581,-637,-655,-196,-14,-448,-361,13,-195,-463,-908,-1589,-1876,-1981,-2030,-1921,-1648,-1371,-1226,-1139,-958,-666,-483,-204,-46,70,114,4,-71,-168,-178,-150,-73,107,240,532,737,905,1086,978,188,-586,681,2532,3565,3563,2830,1778,370,-577
2018-05-15,16:34:37.552,-801,-899,-1461,-1924,-1672,-1331,-1175,-1134,-1133,-1141,-1177,-1211,-1214,-1135,-1041,-892,-748,-596,-426,-285,-187,125,379,388,663,865,829,998,1063,1040,1211,806,731,597,498,457,492,587,537,262,-21,-178,-410,-571,-588,-728,-1166,-2191,-1799,614,2241,3192,2762,1874,884,-187,-778,-809,-692,-602,-481,-399,-376,-402,-347,-90,-106,-24,-167,-270,-257,167,215,3,-113,-118,-9,136,187,-125,-686,-681,-103,360,465,396,194,-54,-236,-299,-272,-139,-59,51,109,229,391,411,340,302,-301,-1220,-487,2758,3813,3808,3141,2277,999,28,-414,-470,-396,-385,-372,-335,-363,-602,-801,-900,-1146,-1274,-1295,-1337,-1389,-1474,-1414,-1097
2018-05-15,16:34:38.589,-795,-700,-638,-560,-445,-274,-187,-115,-34,89,98,-36,-54,-33,-84,56,138,345,521,672,647,666,636,639,574,438,-131,-1209,-427,1688,2223,2468,2131,1181,1,-1113,-1634,-1672,-1645,-1595,-1475,-1363,-1317,-1292,-1240,-1156,-1175,-879,-801,-975,-684,-739,-412,-79,315,339,341,559,810,1010,898,906,984,1028,1047,832,505,90,-367,-540,-466,-406,-380,-293,-197,-53,107,132,204,140,-566,-1420,-14,1957,3009,3324,2440,1408,376,-617,-920,-612,-383,-279,-358,-320,-173,-137,-174,-348,-452,-517,-363,-499,-532,-615,-693,-956,-1322,-1116,-464,34,314,500,620,557,460,454,384,222,85,-81,-203,-178,-74,-96,-123,-62
2018-05-15,16:34:39.627,64,908,766,987,1165,628,-504,-707,1215,2976,3701,3521,2499,1321,300,-469,-744,-922,-988,-1169,-1363,-1501,-1622,-1763,-2014,-2058,-1995,-1863,-1651,-1499,-1371,-1265,-1045,-901,-719,-622,-474,-271,-165,232,591,609,725,826,869,718,545,427,290,243,321,326,382,471,484,538,441,26,-403,-807,-1540,-735,1769,3103,3705,3007,1587,265,-859,-1273,-1148,-1055,-1016,-928,-796,-773,-519,-560,-599,-518,-712,-439,-381,-152,94,153,85,162,456,474,416,466,706,791,797,624,462,280,28,-194,-404,-544,-581,-376,-229,-116,-53,-26,90,210,149,129,28,-617,-1404,-433,1622,2721,3296,2781,1847,969,57,-415,-589,-680,-572,-582
2018-05-15,16:34:40.664,-571,-586,-667,-715,-792,-869,-1032,-1469,-1700,-1331,-898,-681,-564,-490,-397,-344,-342,-260,-157,-76,8,73,92,-19,-148,-319,-362,-496,-268,146,466,303,626,574,843,868,508,412,182,-726,-774,1307,2898,3474,2918,1745,600,-574,-1478,-1706,-1752,-1897,-1984,-1913,-1786,-1684,-1660,-1556,-1563,-1487,-1497,-1449,-1207,-1121,-967,-813,-717,-536,-323,135,423,497,525,623,607,643,648,553,377,205,-104,-369,-438,-784,-1193,-1177,-601,-75,139,107,162,44,-886,-1546,324,2651,3725,3799,2538,1196,-45,-880,-892,-634,-586,-502,-219,-333,-228,-271,-97,-193,-206,-356,-355,-189,-208,-176,-128,-92,7,-134,-402,-418,-495,-456,-439,-481
2018-05-15,16:34:41.701,-412,-340,-318,-262,-196,-138,-268,-149,72,215,326,383,507,633,633,627,655,428,-339,49,2110,3218,3695,3282,2495,1422,446,-131,-53,-147,-345,-495,-500,-480,-595,-1014,-1370,-1076,-704,-582,-599,-557,-610,-642,-600,-530,-466,-478,-460,-379,-182,-24,83,-7,-61,119,45,258,319,160,363,577,495,414,439,652,890,800,875,777,268,-777,-499,1619,2721,3066,2341,1257,-4,-1223,-1790,-1741,-1599,-1418,-1324,-1061,-920,-950,-1014,-1101,-1075,-1112,-1074,-1010,-1033,-879,-693,-443,-237,-118,63,343,450,444,425,511,590,525,293,113,41,-125,-421,-801,-1250,-1094,-602,-335,-178,-52,-7,-59,-144,-802,-1701,-228,2462,3704
2018-05-15,16:34:42.738,4128,2882,1334,157,-777,-935,-561,-430,-467,-442,-464,-248,-154,-59,-151,-403,-235,-250,-478,-480,-371,-418,-647,-787,-802,-836,-779,-742,-615,-494,-344,-217,-145,15,-72,-258,-409,-408,-128,5,81,242,255,606,826,885,855,759,108,-569,984,2925,3690,3822,3184,2323,1034,-64,-324,-316,-361,-515,-918,-1357,-1335,-1057,-854,-867,-982,-1067,-1121,-1135,-1033,-927,-891,-804,-616,-449,-354,-223,-102,22,153,160,434,474,368,263,222,212,225,143,376,1070,1126,918,959,990,918,802,67,-1532,-1564,599,1846,2619,2312,1343,51,-1256,-1790,-1616,-1452,-1352,-1274,-1279,-1275,-1254,-1244,-1249,-1187,-1047,-972,-958,-823,-625,-400,-107
2018-05-15,16:34:43.775,-48,210,317,472,662,575,512,770,799,474,78,-5,-94,-337,-703,-748,-552,-357,-263,-324,-251,-141,-137,-159,-54,-739,-1534,236,2609,3915,4276,2813,1273,135,-476,-557,-198,-56,-219,-452,-278,-128,-163,-194,-200,-407,-508,-450,-564,-570,-616,-861,-1007,-1077,-1211,-1262,-1173,-922,-631,-383,-187,-69,-40,-58,-125,-268,-366,-259,-123,-66,64,313,508,559,525,671,601,311,-527,-196,1926,3382,3836,3040,2271,1568,489,-219,-210,-166,-268,-334,-536,-997,-1379,-1252,-1006,-885,-907,-988,-1104,-1140,-1151,-1084,-965,-804,-692,-549,-341,-150,-3,201,338,305,192,287,281,101,245,466,539,606,791,836,817,851,870,897
2018-05-15,16:34:44.813,945,571,-602,-653,1569,2970,3537,3012,1956,691,-649,-1406,-1433,-1301,-1175,-1143,-1165,-1170,-1178,-1198,-1199,-1270,-1238,-1266,-1111,-1167,-1197,-671,-463,-265,-137,56,218,329,440,490,484,398,417,324,129,-152,-543,-848,-1159,-1076,-608,-331,-230,-103,-51,-18,20,-495,-1571,-792,1919,3414,4119,3216,1835,611,-286,-566,-684,-793,-607,-154,-82,-490,-522,-345,-154,-243,-239,55,-255,-271,-328,-206,-72,-242,-453,-403,-446,-484,-417,-317,-268,-277,-317,-248,-143,-49,-21,237,336,279,359,402,403,492,519,543,399,-123,-987,-282,1881,2951,3264,2991,2147,1093,131,-343,-412,-375,-445,-559,-567,-587,-703,-1182,-1532,-1360,-1066,-984
2018-05-15,16:34:45.850,-1038,-1084,-1153,-1137,-1064,-1024,-888,-788,-692,-515,-277,-141,-31,86,8,-97,-23,-19,-261,195,493,387,431,1023,685,725,1084,1011,720,-229,-771,1222,2836,3359,3149,2115,913,-336,-1314,-1573,-1608,-1703,-1578,-1357,-1228,-1232,-1218,-1276,-1318,-1346,-1387,-1382,-1262,-1175,-1032,-851,-675,-457,-250,19,160,280,773,1692,1951,639,-859,-1065,-392,-27,-35,-52,-191,-399,-655,-450,-24,216,313,319,-227,-1302,-511,1956,3351,4012,3111,1582,286,-735,-980,-898,-849,-814,-646,-959,-745,-340,-383,-684,-379,-360,-114,-401,-535,-257,-5,-582,-717,-217,132,57,-29,57,146,108,-48,-219,-380,-513,-540,-424,-140,40,91,182,124,164
2018-05-15,16:34:46.887,259,247,281,263,-339,-1026,202,2289,3421,3596,2860,2197,1205,375,-55,-213,-251,-150,-82,-291,-221,-218,-310,-516,-985,-1327,-1143,-805,-581,-543,-522,-487,-523,-434,-389,-326,-251,-116,26,134,200,74,-48,-162,-243,-80,-30,280,505,487,523,591,897,688,698,882,-529,-1115,1369,3152,3659,2869,1339,62,-1139,-1687,-1702,-1737,-1952,-2133,-2032,-1870,-1640,-1475,-1397,-1412,-1289,-1282,-1272,-1222,-1159,-1013,-819,-504,-328,-328,-29,197,191,349,576,567,445,96,174,27,73,217,185,132,75,-61,-133,-309,-674,-667,-593,-1510,-956,1727,3090,3841,3139,1693,384,-694,-1140,-1056,-975,-946,-918,-779,-767,-733,-581,-302,-369,-703
2018-05-15,16:34:47.924,-691,-631,-420,-338,-359,-248,281,233,163,208,440,599,393,153,48,-133,-338,-410,-453,-418,-168,-48,140,361,359,304,354,307,228,11,-802,-1245,402,2073,3014,3068,2270,1469,424,-382,-565,-405,-308,-111,-178,-383,-368,-450,-490,-551,-731,-756,-811,-1199,-1304,-910,-535,-344,-250,-153,-122,-116,-93,5,110,106,69,111,68,33,90,56,142,360,344,447,644,575,506,659,48,-983,-154,2307,3715,4118,3374,2314,1297,191,-622,-1234,-1302,-1309,-1390,-1308,-1314,-1366,-1509,-1591,-1639,-1516,-1249,-968,-900,-821,-636,-603,-551,-349,-289,-223,-110,379,636,491,402,273,119,406,388,184,706,712,495,579,670,693
2018-05-15,16:34:48.961,735,637,387,-514,-2059,-1242,1151,2685,3326,2358,1005,-366,-1353,-1595,-1514,-1501,-1274,-1167,-1110,-887,-696,-670,-646,-736,-580,-550,-313,-324,-162,0,126,561,793,1121,1087,938,1176,1292,1089,982,852,453,-106,-297,-313,-244,-102,-28,10,116,211,194,165,50,-778,-1565,-121,1606,2626,2823,2222,1373,220,-634,-575,-379,-408,-425,-138,-41,-275,-335,-334,-309,-325,-312,-334,-409,-508,-609,-588,-439,-457,-800,-614,-76,378,589,631,563,323,143,-92,-291,-231,-183,-195,-151,-75,86,188,203,149,60,-728,-1253,562,2621,3828,3790,2854,1813,791,-302,-549,-467,-495,-571,-499,-476,-776,-1045,-1142,-1216,-1495,-1718,-1784,-1730
2018-05-15,16:34:49.999,-1776,-1643,-1375,-1212,-1056,-962,-799,-696,-603,-481,-333,-175,-143,-119,-135,-155,-152,-91,-62,182,440,423,305,584,871,807,354,-781,-554,1613,2880,3505,2701,1069,-221,-962,-1195,-1188,-1125,-1059,-1047,-1056,-1024,-1000,-1000,-1103,-1145,-1123,-1119,-1090,-980,-931,-763,-639,-461,-252,248,820,762,834,1056,1132,1135,874,613,678,568,554,666,718,657,420,215,-12,-153,-311,-696,-1728,-1953,37,1737,2769,2838,1908,677,-475,-1083,-1072,-979,-872,-797,-720,-628,-661,-795,-795,-532,-394,-481,-370,-185,-281,-319,-74,56,200,39,-21,37,78,90,-101,-345,-628,-701,-464,-235,-77,-2,198,393,486,554,712,662,602,635,-68
2018-05-15,16:34:51.036,-1151,376,2950,4154,4373,3345,2005,903,-81,-494,-418,-431,-258,-322,-462,-471,-518,-709,-840,-921,-1100,-1476,-1758,-1763,-1718,-1688,-1623,-1384,-1125,-868,-538,-197,-53,44,22,-75,-68,-72,-195,-26,180,272,401,473,634,698,528,506,398,-66,-362,579,2582,3726,3890,3011,1840,621,-528,-1119,-1455,-1893,-2191,-1943,-1451,-1210,-1215,-1295,-1306,-1294,-1310,-1338,-1200,-1106,-895,-787,-620,-329,-170,-135,273,389,580,737,945,965,953,927,795,774,815,1039,998,921,1005,1095,1104,835,132,-950,-1685,-159,1439,2366,2416,1582,694,-244,-1065,-1148,-1096,-1039,-1028,-1050,-1101,-1138,-1169,-1156,-1119,-1044,-1061,-952,-687,-645,-637,-754,-78,234
2018-05-15,16:34:52.073,-175,-28,117,242,304,67,80,-40,-282,-443,-505,-680,-874,-569,-174,30,142,189,156,59,-555,-1544,-682,1676,3048,3514,2555,1239,132,-767,-1006,-867,-933,-803,-567,-347,-485,-545,-416,-233,-483,-673,-688,-628,-717,-715,-623,-489,-598,-856,-850,-902,-897,-889,-943,-1031,-1070,-942,-781,-461,-183,-41,134,288,434,604,671,688,677,323,-676,-203,1916,3410,3999,3391,2387,1233,48,-216,-218,-305,-38,-252,-316,-293,-529,-721,-882,-1125,-1511,-2062,-2143,-1581,-1140,-961,-855,-629,-495,-412,-156,124,259,413,464,456,464,324,256,520,837,827,1085,990,1139,1578,1517,1395,1310,573,-316,1290,3257,4194,4209,3333,2131,744
2018-05-15,16:34:53.110,-476,-1116,-1418,-1517,-1564,-1620,-1630,-1570,-1470,-1346,-1172,-1108,-980,-880,-905,-840,-552,-483,-400,-272,-235,-49,285,348,378,424,660,377,289,135,346,595,525,580,409,391,443,353,7,-500,-1478,-1739,331,2287,3263,3163,1917,649,-507,-1150,-1188,-1145,-1095,-1049,-948,-918,-892,-788,-780,-898,-1005,-751,-755,-538,-541,-653,-38,373,509,598,709,638,702,842,754,644,410,-212,-709,-945,-1228,-1343,-1448,-1481,-1307,-1051,-777,-413,-204,-690,-1219,-2,1883,3167,3826,3081,1952,846,-121,-332,-226,-60,113,108,62,237,-122,4,270,157,-8,76,-108,-264,-286,-260,-374,-697,-963,-1030,-594,120,466,541,534,335,149,131
2018-05-15,16:34:54.148,299,381,320,375,497,600,741,855,772,395,-358,-866,1219,3219,4175,4233,3143,1841,535,114,63,-225,-422,-314,-297,-323,-442,-907,-1213,-1314,-1501,-1637,-1759,-1741,-1749,-1716,-1438,-1160,-904,-656,-607,-628,-469,-255,-312,-332,-352,-333,-368,-118,1,-57,-2,377,296,622,688,512,249,-405,-643,986,2506,3274,3055,2157,1009,-426,-1588,-2109,-2269,-1924,-1633,-1597,-1597,-1573,-1617,-1675,-1707,-1646,-1672,-1663,-1587,-1464,-1264,-1010,-814,-594,-427,-326,-218,139,523,699,1105,896,624,584,808,774,716,651,772,932,857,533,148,-395,-1634,-1611,384,1708,2501,2134,1134,188,-760,-1057,-933,-904,-874,-832,-727,-740,-781,-835,-859,-784
2018-05-15,16:34:55.185,-783,-710,-556,-560,-358,5,54,165,417,478,464,552,619,520,386,301,74,-235,-462,-671,-345,239,436,475,633,657,506,423,-140,-1193,-258,2167,3505,3930,3107,1865,632,-394,-710,-828,-589,-360,-397,-343,-148,-144,-49,-413,-270,-173,-406,-498,-408,-267,-103,-69,-181,-251,-367,-443,-375,-300,-260,-418,-384,-188,-12,-88,-375,-468,-486,-417,-222,-93,-10,-46,-661,-1525,-571,1775,3286,3607,2889,2069,931,-59,-127,-42,-152,-416,-435,-436,-643,-1049,-1502,-2001,-2192,-1856,-1557,-1547,-1514,-1452,-1336,-1213,-1011,-795,-571,-187,66,298,487,591,656,611,525,549,528,746,762,738,1014,1282,1189,1229,1068,257,-663,610
2018-05-15,16:34:56.222,3821,5158,4337,2888,1910,391,-1186,-1589,-1739,-2100,-2176,-2107,-2029,-1962,-1751,-1522,-1354,-1152,-1136,-1091,-1085,-1039,-866,-729,-641,-332,-155,-56,110,338,434,424,740,902,770,869,961,974,954,1010,1001,1044,987,913,842,294,-925,-972,1099,2802,3809,3287,2022,671,-635,-1143,-1087,-995,-969,-1014,-1049,-1157,-1199,-1175,-1223,-1362,-1066,-872,-1060,-1305,-927,-457,-165,164,612,618,534,766,767,697,720,650,605,664,848,787,500,212,17,-10,-131,-310,-454,-790,-1615,-1177,775,2218,2799,2305,1272,-5,-1221,-1437,-1333,-1303,-1212,-1367,-1444,-1122,-742,-703,-973,-699,-446,-515,-714,-318,-226,-326,-342,-270,-212,-147,-89,-129,-432,-689
2018-05-15,16:34:57.259,-981,-1017,-725,-708,-590,-511,-444,-296,-62,70,206,286,400,220,-664,-933,1512,3793,4744,4364,2614,1036,275,-193,-210,-262,180,56,-256,-106,-156,-129,-106,-387,-445,-419,-584,-871,-1032,-1208,-1288,-1198,-1214,-1050,-822,-537,-198,26,83,124,-67,-285,-187,-201,-222,-146,-75,96,169,201,184,283,-313,-959,470,2196,3210,3412,2606,1860,1129,432,-29,-49,-46,-110,-171,-282,-666,-961,-710,-487,-445,-427,-495,-586,-628,-689,-610,-465,-354,-311,-195,-33,73,152,216,127,24,134,70,81,440,370,771,695,1298,1304,1106,828,49,-339,1501,3271,4128,4041,2854,1364,-53,-1119,-1365,-1468,-1644,-1822,-1881,-1752,-1598,-1509
2018-05-15,16:34:58.296,-1324,-1294,-1422,-1480,-1429,-1459,-1485,-1382,-1219,-1164,-1054,-807,-673,-338,3,303,355,248,431,402,332,232,350,457,558,491,493,274,-108,-525,-1784,-2556,-369,1856,3036,2956,1592,400,-817,-1443,-1372,-1100,-987,-910,-818,-711,-759,-741,-676,-684,-780,-858,-809,-778,-297,-46,-12,239,454,505,743,964,947,805,716,674,580,323,-61,-376,-596,-672,-684,-592,-446,-417,-317,-344,-1053,-1182,466,1843,2785,2654,1899,925,-269,-862,-868,-811,-828,-800,-732,-729,-827,-585,-584,-968,-662,-190,-645,80,159,72,45,31,-47,-81,-170,-438,-806,-729,-325,-130,-124,-8,3,-196,-211,-186,-166,-54,2,103,115,-418,-1270,62
2018-05-15,16:34:59.334,2676,3880,4015,2833,1515,331,-176,-146,-300,-113,61,41,-246,-236,-112,-336,-415,-311,-488,-824,-1116,-1239,-1526,-1679,-1609,-1525,-1419,-1167,-950,-514,-227,-141,-63,-140,-203,48,140,72,117,217,327,432,532,440,181,-403,-399,1280,3086,4047,3650,2379,1438,567,-132,-308,-318,-369,-563,-833,-1368,-2061,-2577,-2248,-1702,-1501,-1503,-1464,-1328,-1263,-1141,-892,-563,-341,-64,283,552,791,868,748,608,624,613,833,1399,1192,910,1109,1669,1631,1408,1465,1201,263,-186,1729,3583,4458,4126,2955,1547,-18,-1110,-1307,-1478,-1566,-1492,-1356,-1197,-973,-850,-841,-920,-960,-1033,-1170,-1231,-1231,-1238,-1153,-1079,-907,-763,-748,-599,-455,-76,160
2018-05-15,16:35:00.371,44,158,253,351,300,389,514,706,720,630,649,616,-20,-1104,-496,1591,3118,3720,2920,1624,282,-861,-1099,-1060,-948,-902,-1011,-1060,-1064,-1108,-1145,-1270,-1277,-1367,-1353,-1171,-973,-729,-442,-570,-61,232,693,821,585,510,929,842,501,441,582,530,324,123,-300,-660,-671,-759,-838,-960,-1686,-1775,251,2030,2989,3027,1964,705,-541,-1060,-1103,-1070,-1068,-1010,-873,-919,-978,-779,-702,-669,-542,-444,-221,-215,-305,-233,-124,33,153,136,237,288,238,3,-379,-736,-605,-184,101,94,133,242,269,305,359,429,361,121,-817,-732,1636,3407,4258,3486,2080,856,-218,-752,-349,-1,-250,-209,-54,-46,-233,-385,-409,-274
2018-05-15,16:35:01.408,-404,-496,-493,-560,-824,-922,-940,-936,-822,-691,-562,-433,-371,-181,-117,-249,-291,-258,-322,-405,-465,-429,-334,-240,-193,-227,-338,-999,-1573,-119,1749,2927,3202,2626,1783,742,-169,-382,-201,-145,-225,-220,-251,-420,-622,-881,-1366,-1749,-1618,-1323,-1145,-1218,-1220,-1250,-1141,-773,-460,-218,10,195,231,320,350,312,413,448,476,648,522,816,1114,1194,1479,1499,964,49,33,2377,4227,4861,3963,2391,1160,183,-404,-777,-1223,-1942,-2495,-2701,-2857,-2849,-2715,-2358,-2060,-1719,-1464,-1287,-1359,-1239,-1117,-980,-869,-734,-544,-296,70,220,227,201,371,555,776,1120,1061,1076,1232,1254,1084,1104,1178,1084,647,-326,-170,1913,3125,3669
2018-05-15,16:35:02.445,2832,1844,908,-172,-642,-769,-888,-1053,-1123,-1003,-1015,-1039,-1175,-1271,-1234,-1229,-1245,-1098,-999,-854,-478,-422,-461,126,589,500,1037,920,1100,940,866,1009,1149,986,1048,1193,1264,1302,1358,1158,815,286,-682,-1050,627,2088,2948,2880,2043,856,-347,-1070,-1188,-1270,-1279,-1301,-1295,-1229,-1137,-1127,-1326,-1422,-1313,-1103,-958,-620,-487,-321,-227,-242,15,286,347,340,359,297,197,-85,-491,-839,-989,-875,-367,-130,-138,-98,13,-55,-117,-511,-1470,-970,1576,3226,3951,3040,1514,305,-655,-989,-1196,-1098,-983,-1056,-742,-796,-609,-701,-1092,-1270,-730,-852,-1135,-1140,-1053,-949,-737,-769,-1087,-1272,-1361,-1529,-1562,-1560,-1666,-1624,-1326,-939
2018-05-15,16:35:03.482,-488,-195,75,176,291,373,489,460,361,-15,-873,-304,1707,3226,3648,2705,1929,936,48,-349,-585,-486,-552,-415,-194,-505,-838,-946,-983,-1170,-1521,-1759,-1932,-1872,-1290,-796,-617,-468,-312,-166,-31,223,307,186,122,106,129,221,243,267,448,660,672,750,851,790,759,-121,-231,1905,3349,4269,4162,3002,1809,833,6,-179,-214,-378,-625,-1005,-1430,-1789,-1894,-1906,-1980,-1931,-1792,-1593,-1297,-980,-804,-641,-493,-445,-339,-173,-72,79,92,-61,31,59,-27,277,590,609,795,886,847,983,1053,1197,792,-277,-438,1445,3017,3670,2807,990,-667,-1752,-1882,-1575,-1460,-1444,-1473,-1521,-1449,-1344,-1273,-1170,-1052,-920,-823,-814
2018-05-15,16:35:04.520,-761,-316,-76,47,-24,425,908,1196,1110,1380,1489,1336,866,981,1220,1121,1029,995,980,1044,1044,700,22,-622,-1210,-2248,-2363,-140,1607,2923,2876,1871,997,85,-370,-365,-301,-330,-498,-670,-715,-713,-753,-806,-846,-817,-881,-764,-539,-200,23,60,135,128,61,363,601,521,349,309,164,-224,-581,-1061,-1142,-476,92,334,379,295,167,95,-226,-1080,-486,2040,3558,4159,3323,2043,813,-224,-627,-616,-493,-247,-256,-376,-613,-478,-208,-263,-388,-292,-241,-456,-703,-566,-258,-104,-19,-70,-411,-630,-804,-872,-1047,-1195,-1320,-1266,-932,-545,-135,48,203,379,365,306,277,44,-866,-939,1025,2528,3252,2817,1935,1126
2018-05-15,16:35:05.557,444,-56,-93,-153,-486,-72,95,-91,-157,-479,-662,-775,-1072,-1694,-2404,-2881,-2948,-2353,-1521,-1125,-969,-812,-604,-477,-273,-86,30,157,242,418,602,728,911,865,855,1313,1577,1359,1199,859,34,543,3248,4584,4768,3841,2750,1519,336,-182,-104,-159,-375,-1066,-1552,-1728,-1912,-2005,-2064,-2012,-1839,-1558,-1151,-797,-551,-534,-463,-529,-525,-387,-326,-334,-233,-289,-189,-31,-190,175,507,676,855,930,953,1008,921,1019,1054,608,-255,18,2105,3390,3634,2603,1019,-145,-740,-818,-740,-787,-908,-1069,-1105,-1027,-999,-928,-955,-1040,-1027,-1026,-982,-913,-859,-920,-470,-318,-411,22,622,872,766,569,633,700,560,537,553,717
2018-05-15,16:35:06.594,616,758,908,954,830,325,-329,-1579,-2043,-308,1215,1988,1720,1024,12,-1014,-1395,-1171,-1151,-1186,-1093,-1045,-954,-873,-1101,-1068,-1175,-1142,-800,-827,-733,-767,-602,-398,-294,-282,-386,-487,-364,-16,188,244,197,-95,-1101,-1998,-2171,-1569,-811,-394,-165,50,142,185,-55,-1041,-479,2435,4312,5198,4270,2683,1305,215,-203,-208,-301,-383,-96,-122,-64,-242,-48,-242,-479,-214,-83,-205,-342,-266,74,228,260,244,210,321,87,-266,-301,-252,-250,-244,-38,163,219,519,655,708,779,733,621,375,-188,-1190,-502,1780,3044,3534,2838,1906,783,-259,-816,-884,-886,-932,-902,-890,-781,-746,-817,-921,-1354,-2237,-2776,-2420,-1714,-1215
2018-05-15,16:35:07.631,-896,-661,-426,-367,-242,-108,168,302,382,272,124,89,115,191,266,188,-59,316,897,1040,755,568,-259,-798,793,2773,3887,3482,2360,1237,54,-1195,-1933,-1998,-2050,-2133,-2257,-2311,-2319,-2364,-2375,-2120,-1889,-1732,-1503,-1306,-1024,-849,-615,-522,-354,-246,18,352,532,633,498,381,391,301,238,213,119,124,-7,66,369,540,582,522,-135,-1352,-875,667,1778,2903,2140,926,-246,-1123,-1258,-1212,-1121,-908,-664,-558,-482,-462,-501,-637,-713,-743,-808,-780,-455,-180,4,4,286,415,650,1111,1090,789,892,851,858,784,810,837,628,450,356,339,311,218,199,190,-405,-1235,-104,1983,3127,3521,2726,1507,407,-585
