2018-05-16,16:28:28.570,20,15,4,-3,7,11,25,21,15,30,38,33,36,41,42,47,40,45,45,31,42,44,29,41,35,18,7,18,7,-9,-16,0,23,11,28,56,70,76,62,58,68,57,49,18,-307,-762,41,2258,2792,1972,663,-85,-307,-518,-652,-636,-566,-539,-533,-481,-444,-425,-414,-383,-353,-320,-304,-289,-261,-234,-204,-176,-139,-110,-88,-27,35,88,145,163,194,206,177,116,81,34,15,10,4,9,3,6,-2,-8,-3,9,6,10,6,20,42,41,31,43,72,79,78,85,80,75,65,76,74,69,61,46,55,66,70,71,55,50,47,35,22,24,23,11
2018-05-16,16:28:29.395,35,63,78,76,67,61,72,50,37,11,-252,-736,-160,1925,2832,2155,870,-33,-316,-538,-677,-663,-621,-596,-559,-523,-496,-467,-445,-420,-378,-347,-324,-297,-269,-253,-229,-206,-185,-156,-116,-75,-14,41,75,116,149,142,122,76,54,30,-2,-12,-10,-10,-12,-1,3,-10,-10,-2,-1,-7,-11,-5,-2,-1,-3,1,19,42,49,66,80,62,97,113,91,86,115,118,119,112,94,84,92,118,114,88,51,45,56,73,77,76,69,72,80,80,65,70,76,82,93,2,-478,-618,864,2575,2306,1335,284,-131,-318,-507,-563,-515,-478,-466,-445,-424,-399,-384,-355,-319,-304,-303
2018-05-16,16:28:30.432,-304,-286,-241,-225,-219,-178,-139,-114,-79,-37,19,72,115,149,173,167,143,92,57,29,16,35,17,-3,0,23,11,2,-5,-13,-4,-11,-24,-11,-4,-7,-24,-14,6,3,-7,-4,-9,-17,-15,-19,-10,-10,-14,-24,-33,-43,-48,-68,-74,-74,-63,-84,-66,-38,-21,-22,-41,-40,-50,-60,-61,-86,-346,-869,-289,1900,2695,1954,726,-105,-341,-529,-688,-689,-665,-634,-592,-536,-496,-483,-469,-450,-418,-384,-364,-345,-310,-286,-271,-254,-219,-180,-128,-78,-7,59,97,156,194,176,161,113,55,30,0,-33,-40,-18,-11,-9,-10,-22,-30,-31,-46,-37,-35,-30,-25,-17,0,12
2018-05-16,16:28:31.469,17,28,32,39,37,25,38,40,39,45,50,36,32,33,28,33,20,2,-3,-2,14,19,15,33,58,75,59,47,54,53,51,37,-44,-470,-748,464,2442,2603,1725,458,-162,-363,-568,-660,-630,-583,-567,-539,-511,-471,-435,-404,-384,-357,-331,-296,-280,-272,-250,-221,-187,-167,-147,-107,-51,1,58,95,134,166,165,133,91,67,28,-2,10,15,37,34,25,22,27,11,5,14,9,5,18,36,36,22,26,66,91,85,84,82,95,113,105,77,86,99,82,92,86,58,65,73,65,61,66,61,72,72,61,83,90,76,56,48,41,35,29,36,-102,-649
2018-05-16,16:28:32.506,-598,1291,2717,2160,1113,137,-224,-368,-532,-585,-550,-509,-497,-487,-449,-395,-376,-376,-379,-352,-314,-302,-273,-276,-262,-226,-206,-194,-145,-92,-48,4,53,94,134,151,131,97,57,22,6,-19,-37,-43,-42,-42,-55,-55,-58,-60,-68,-76,-75,-82,-88,-69,-54,-52,-49,-47,-51,-47,-52,-49,-47,-32,-34,-35,-37,-30,-38,-44,-50,-68,-78,-84,-83,-88,-77,-70,-52,-18,-18,-7,-31,-55,-54,-57,-58,-92,-427,-871,35,2245,2782,1980,672,-123,-399,-613,-733,-747,-713,-672,-636,-585,-521,-483,-459,-414,-384,-374,-355,-317,-297,-274,-258,-229,-181,-125,-61,-24,-18,34,96,143,161,149
2018-05-16,16:28:33.544,145,80,19,-6,-19,-44,-58,-59,-37,-33,-46,-51,-46,-47,-56,-50,-49,-53,-51,-35,-27,-17,0,4,14,8,30,41,53,71,63,78,80,74,59,54,60,67,71,66,49,22,1,0,13,40,38,64,81,77,89,73,65,65,55,50,-19,-458,-739,504,2536,2691,1763,470,-174,-370,-557,-657,-640,-613,-593,-567,-513,-455,-440,-413,-393,-372,-351,-345,-339,-302,-275,-256,-212,-176,-153,-100,-50,-2,46,87,142,176,179,150,105,69,38,-3,-38,-29,-6,-7,0,-9,-4,5,3,-10,-10,17,36,46,39,18,39,82,108,96,85,111,126,130,110,84,99,123
2018-05-16,16:28:34.581,100,115,109,110,108,95,87,87,64,38,38,60,78,70,59,93,112,108,87,81,45,50,67,14,-242,-783,-274,1909,2694,1957,767,-42,-268,-454,-602,-636,-621,-584,-553,-506,-451,-415,-391,-400,-362,-317,-321,-316,-287,-269,-215,-188,-203,-199,-137,-98,-42,-3,54,112,149,148,125,116,67,5,-18,-6,0,0,-20,-13,-6,-18,-11,-21,-45,-45,-49,-16,-17,-31,-6,0,10,23,6,-1,-4,2,8,18,12,-8,0,0,-7,-16,-15,-26,-25,-37,-51,-54,-43,-76,-84,-37,-28,-13,-1,-28,-45,-39,-52,-120,-454,-921,-106,2083,2694,1929,641,-167,-388,-579,-732,-736
2018-05-16,16:28:35.618,-699,-668,-636,-588,-536,-484,-447,-405,-404,-431,-391,-360,-322,-298,-285,-254,-215,-164,-111,-78,-30,34,80,125,187,196,122,68,52,32,14,3,6,9,5,10,15,14,29,23,-18,0,-13,-26,-40,-40,-32,-20,5,27,24,14,13,0,20,49,86,53,31,43,48,36,37,36,30,18,0,-16,-30,-9,-3,-5,18,43,53,52,42,38,33,34,29,-190,-746,-358,1685,2787,2262,998,-14,-326,-508,-642,-637,-656,-647,-569,-519,-525,-488,-452,-427,-416,-402,-371,-333,-304,-288,-257,-230,-192,-155,-120,-79,-25,26,70,122,165,172,160,130,108,96,84,63,45,48,26
2018-05-16,16:28:36.655,21,9,11,20,26,14,6,17,34,23,7,14,5,6,30,29,27,58,93,76,19,5,38,50,67,58,33,37,43,43,42,22,-13,25,46,51,36,76,90,36,11,21,20,31,19,-179,-687,-392,1583,2707,2048,914,11,-227,-382,-562,-595,-555,-483,-462,-448,-385,-407,-435,-414,-360,-324,-279,-279,-273,-255,-236,-207,-198,-178,-144,-126,-74,-11,37,89,132,141,110,92,70,36,3,-15,-18,-20,-17,-35,-49,-44,-60,-71,-74,-81,-76,-65,-82,-82,-73,-58,-60,-57,-64,-65,-59,-69,-74,-72,-55,-53,-60,-60,-62,-57,-42,-53,-71,-54,-9,6,-30,-51,-50
2018-05-16,16:28:37.692,-30,-29,-37,-247,-823,-483,1642,2831,2333,1078,21,-317,-513,-692,-722,-681,-654,-631,-591,-545,-511,-476,-442,-424,-402,-381,-377,-350,-314,-293,-269,-256,-203,-152,-123,-62,-1,55,114,156,163,156,132,99,70,50,36,21,16,24,10,8,8,-2,-20,-19,-16,-34,-26,-19,-38,-36,-21,-12,3,23,44,50,58,52,48,54,46,34,35,21,-7,-11,-16,6,16,6,44,66,84,74,61,48,41,30,16,-50,-455,-801,372,2455,2694,1822,453,-190,-364,-564,-657,-621,-582,-540,-501,-470,-436,-409,-394,-380,-369,-341,-313,-289,-263,-250,-234,-223,-197,-154,-94,-70,-41,2,59,113
2018-05-16,16:28:38.730,149,132,94,70,40,23,-2,-15,-6,-1,0,11,8,4,-9,-26,-28,-10,0,4,17,25,36,43,69,80,95,116,106,122,125,119,118,115,107,93,83,66,33,27,66,67,86,130,143,122,92,106,113,111,104,38,-297,-747,60,2157,2529,1781,599,-73,-251,-435,-582,-579,-550,-523,-495,-462,-445,-423,-396,-362,-350,-331,-315,-295,-293,-267,-240,-224,-199,-177,-121,-72,-14,24,82,130,142,150,147,121,75,31,0,-2,9,-10,-32,-18,-16,-22,-19,0,-23,-50,-54,-57,-42,-29,-15,-14,-10,-8,5,2,12,12,16,16,0,9,-13,-27,-26,-28,-29,-30
2018-05-16,16:28:39.767,-16,0,2,-23,-50,-42,-43,-26,-39,-122,-552,-875,364,2385,2399,1503,343,-210,-383,-583,-708,-677,-662,-642,-601,-575,-546,-511,-486,-457,-454,-430,-401,-379,-348,-325,-296,-263,-240,-214,-154,-90,-39,14,75,147,189,167,143,102,69,40,13,5,2,-10,0,-2,-10,-7,-10,-27,-38,-28,-22,-20,-20,-9,-12,5,8,25,30,34,24,29,38,50,34,44,33,32,16,18,7,-5,4,19,18,31,46,89,95,69,57,56,49,43,34,-144,-733,-512,1578,2983,2521,1207,63,-301,-488,-668,-706,-663,-619,-583,-541,-518,-491,-457,-437,-418,-402,-369,-343,-306,-310,-291,-267,-232
2018-05-16,16:28:40.804,-193,-152,-100,-48,1,46,95,124,143,127,87,66,36,10,-27,-22,-2,-15,-18,-45,-37,-16,-29,-38,-46,-33,-25,-26,-23,-23,-10,-21,-7,22,30,41,45,47,54,56,39,31,43,52,46,47,31,14,-2,14,28,28,40,51,32,25,23,34,36,36,34,-126,-644,-491,1363,2859,2503,1345,203,-205,-424,-598,-626,-602,-557,-514,-484,-452,-396,-363,-322,-321,-296,-257,-222,-240,-243,-225,-206,-180,-137,-103,-45,15,47,95,128,158,182,185,153,125,112,117,83,56,63,76,95,95,70,60,61,60,69,46,21,26,23,51,63,35,19,37,50,67,41,30
2018-05-16,16:28:41.841,41,74,109,96,29,20,29,49,31,30,26,12,24,32,32,24,20,7,-7,-7,-23,-114,-576,-861,532,2587,2424,1512,259,-246,-444,-650,-750,-716,-684,-664,-642,-608,-570,-544,-515,-495,-488,-474,-448,-420,-391,-373,-383,-351,-310,-270,-210,-164,-109,-53,1,64,94,96,76,49,9,-23,-35,-41,-47,-39,-34,-29,-36,-32,-43,-47,-47,-40,-40,-32,-40,-42,-30,-17,-11,-1,4,14,12,14,12,23,34,34,30,33,22,-2,-15,-26,-38,-31,-7,-1,1,16,52,70,51,35,23,22,15,10,-140,-686,-616,1254,2946,2763,1563,199,-321,-542,-736,-769,-728,-686,-627,-570
2018-05-16,16:28:42.878,-538,-521,-472,-443,-413,-387,-364,-338,-343,-331,-288,-256,-222,-181,-140,-91,-45,-11,42,85,117,133,116,90,67,35,27,22,21,8,0,5,6,-15,-19,-8,-24,-41,-46,-46,-37,-21,0,16,9,13,28,39,48,43,53,60,67,68,70,55,59,58,51,37,35,26,21,10,1,-7,-4,11,-27,8,22,31,29,8,10,19,17,3,-129,-658,-632,1184,2842,2616,1448,189,-284,-495,-688,-716,-664,-623,-591,-558,-546,-506,-467,-443,-432,-402,-356,-329,-318,-299,-272,-234,-202,-152,-115,-87,-49,20,82,123,154,177,164,118,78,44,38,35,14,20,19,19,16,33
2018-05-16,16:28:43.916,35,-8,-13,18,39,15,-25,0,37,30,32,49,44,51,48,51,49,52,57,63,52,26,41,80,91,88,88,75,77,68,43,30,28,21,51,45,57,53,79,113,70,33,40,54,53,-37,-467,-778,476,2490,2352,1489,339,-158,-319,-521,-634,-611,-585,-554,-530,-494,-453,-436,-424,-406,-385,-349,-338,-333,-312,-286,-269,-226,-192,-180,-148,-92,-57,-8,61,118,147,142,118,64,6,-38,-57,-66,-74,-92,-96,-106,-106,-95,-104,-112,-109,-102,-100,-97,-88,-69,-65,-54,-41,-17,-9,-14,-11,-8,-7,-19,-30,-16,-23,-20,-18,-24,-24,-23,-11,-12,-24,-40,-48,-65
2018-05-16,16:28:44.953,-37,-24,-21,10,24,15,4,5,15,2,13,-5,-244,-766,-351,1776,2965,2377,1036,-10,-361,-589,-742,-725,-674,-658,-615,-582,-545,-505,-475,-453,-424,-410,-386,-355,-336,-314,-298,-260,-230,-188,-151,-101,-41,6,47,87,128,138,110,95,54,38,24,26,25,35,38,26,27,40,40,24,10,4,0,-10,-9,3,15,17,31,47,47,66,71,56,75,69,62,49,52,59,73,65,61,49,34,47,62,64,62,49,42,32,22,17,17,16,38,49,50,60,27,20,22,22,12,-45,-445,-792,334,2410,2711,1812,507,-175,-414,-612,-704,-669,-620,-584,-537,-498,-470,-456
2018-05-16,16:28:45.990,-445,-432,-402,-361,-330,-317,-289,-264,-230,-210,-175,-146,-109,-51,-7,27,74,124,160,161,152,116,75,40,48,57,36,45,50,81,70,50,43,47,39,15,2,7,29,54,61,64,65,66,95,106,84,49,79,119,99,69,72,85,100,89,67,73,62,57,67,49,38,18,0,-12,5,19,-4,3,38,49,44,17,21,23,13,-3,-112,-608,-724,861,2616,2239,1235,192,-213,-391,-579,-659,-632,-606,-582,-550,-515,-475,-450,-433,-424,-404,-395,-371,-350,-331,-309,-289,-277,-263,-222,-173,-135,-89,-37,16,72,104,96,76,36,-9,-37,-61,-94,-90,-92,-100,-82,-72
2018-05-16,16:28:47.027,-75,-71,-85,-96,-91,-86,-72,-55,-43,-47,-47,-47,-31,-24,-21,-15,-11,-13,-15,-2,28,9,8,23,19,13,13,18,3,-9,-23,-28,-20,-20,1,22,35,66,88,85,46,36,36,22,21,-17,-393,-837,215,2541,2944,2040,576,-167,-403,-623,-731,-703,-656,-628,-583,-549,-498,-472,-466,-437,-419,-412,-389,-363,-343,-322,-297,-290,-249,-199,-160,-114,-62,1,62,103,127,134,119,97,60,21,12,5,3,11,2,-5,1,-2,-11,-2,-12,-15,-10,-15,-12,-10,22,52,55,51,47,73,70,46,43,66,60,50,45,48,52,41,29,21,23,10,-4,5,1,-13
2018-05-16,16:28:48.064,-13,7,3,-14,6,38,56,42,40,47,38,26,27,-71,-528,-663,856,2753,2656,1579,298,-207,-422,-628,-686,-660,-628,-580,-533,-503,-457,-417,-394,-377,-364,-347,-330,-307,-287,-250,-229,-211,-171,-111,-77,-27,10,66,115,152,182,190,162,130,113,111,89,79,72,65,68,75,84,61,57,63,61,54,37,34,48,50,62,63,31,62,69,70,76,75,83,63,57,66,39,37,65,70,61,43,23,31,6,-18,-14,18,20,23,73,103,87,36,30,30,19,22,21,-164,-691,-464,1463,2632,2008,929,44,-241,-427,-612,-640,-616,-585,-563,-539,-518,-506,-507,-492,-458
2018-05-16,16:28:49.102,-456,-456,-436,-419,-399,-371,-346,-304,-282,-238,-177,-118,-53,-3,47,89,99,74,36,-1,-45,-78,-99,-105,-103,-98,-94,-96,-91,-95,-108,-89,-82,-74,-55,-52,-72,-64,-50,-44,-40,-35,-23,-22,-10,-6,-5,-1,-10,8,12,15,13,6,4,15,25,5,4,-5,14,23,22,25,51,78,73,62,48,49,38,35,8,-229,-777,-326,1913,3021,2404,1010,-11,-344,-559,-704,-683,-651,-635,-594,-567,-534,-502,-464,-423,-409,-407,-391,-365,-333,-306,-274,-244,-214,-164,-141,-92,-27,22,65,99,123,135,105,83,55,19,9,3,7,15,15,15,18,19,11,11,-1,-8,-5
2018-05-16,16:28:50.139,3,7,6,7,7,25,29,25,38,49,36,31,31,32,46,60,46,45,53,45,54,31,19,32,27,14,-9,-25,-20,2,4,10,39,56,47,23,26,24,25,20,1,-225,-738,-302,1798,2940,2349,1017,-2,-327,-543,-686,-675,-628,-604,-558,-516,-474,-445,-422,-394,-355,-342,-326,-324,-314,-270,-235,-215,-171,-132,-92,-44,2,35,89,141,170,168,148,111,94,82,58,56,52,56,60,52,50,54,43,38,15,2,20,49,36,9,19,56,68,65,72,68,58,38,52,83,82,59,50,26,61,81,53,50,83,72,57,39,9,-10,-10,-8,8,10,33
2018-05-16,16:28:51.176,54,66,60,25,26,21,23,5,-210,-733,-372,1622,2604,1944,829,-25,-298,-485,-658,-678,-641,-621,-590,-566,-549,-521,-482,-446,-445,-431,-400,-370,-349,-331,-315,-289,-254,-238,-205,-164,-100,-51,3,39,76,76,41,12,-23,-60,-86,-100,-96,-99,-106,-105,-99,-93,-88,-92,-84,-84,-83,-67,-47,-52,-65,-54,-35,-26,-24,-24,-11,8,6,-6,-16,-7,0,-6,-10,0,-1,5,4,2,13,27,23,16,0,-6,-23,-18,6,-5,12,35,53,40,8,-1,4,14,13,-18,-395,-812,273,2486,2873,1987,566,-180,-414,-623,-716,-696,-660,-615,-582,-555,-527,-482,-451,-423,-403,-384
2018-05-16,16:28:52.213,-354,-326,-309,-273,-247,-224,-180,-133,-95,-43,-2,50,103,118,142,149,120,80,43,16,6,8,11,15,25,18,28,17,3,7,11,-3,-19,-21,-13,-1,17,26,11,14,32,51,44,43,47,42,42,58,74,56,41,40,36,38,38,49,49,32,34,32,17,19,11,-11,6,39,49,54,43,60,93,118,93,68,66,61,61,37,-224,-777,-264,1905,2855,2197,935,5,-287,-492,-641,-631,-599,-558,-521,-493,-471,-439,-421,-379,-353,-327,-311,-296,-268,-243,-237,-212,-164,-142,-114,-75,-35,19,62,108,153,175,158,101,66,50,41,31,9,8,43,66,40,47
2018-05-16,16:28:53.250,30,12,1,17,13,1,-4,0,13,9,0,10,34,59,58,37,54,67,65,64,34,30,29,22,15,15,18,4,6,-1,-14,-36,-63,-70,-71,-53,-49,-44,-21,-3,0,-13,-16,-6,-25,-48,-62,-211,-754,-673,1244,2705,2100,1000,15,-303,-487,-689,-730,-692,-667,-633,-589,-545,-518,-491,-474,-452,-433,-410,-381,-366,-358,-342,-329,-296,-263,-226,-167,-102,-51,9,79,118,135,111,90,48,-2,-31,-41,-34,-31,-30,-10,-2,-11,-24,-34,-41,-34,-27,-20,-19,-26,-19,-14,17,21,24,24,25,31,32,54,58,53,50,54,48,54,37,23,35,33,41,46,22
2018-05-16,16:28:54.288,12,29,32,5,-17,-12,-2,21,9,-4,22,32,28,31,15,12,18,14,12,-65,-537,-743,770,2851,2777,1698,295,-288,-498,-690,-728,-682,-647,-620,-580,-534,-505,-479,-447,-433,-388,-375,-371,-333,-306,-288,-257,-222,-192,-161,-93,-40,8,57,83,109,135,141,120,102,72,51,35,21,37,47,42,30,15,6,-4,-9,-18,-15,-16,-16,-9,-6,-15,2,-6,0,12,17,21,26,29,45,46,54,58,49,43,42,49,37,48,52,55,54,51,38,27,35,46,46,36,33,25,43,58,43,46,67,64,55,73,59,20,37,45,-153,-670,-408,1564,2888,2290,1064
2018-05-16,16:28:55.325,25,-285,-446,-621,-660,-606,-547,-521,-506,-467,-432,-401,-366,-356,-347,-352,-333,-298,-277,-252,-212,-172,-142,-117,-89,-69,-42,22,77,102,133,119,89,53,51,62,43,23,24,55,70,42,10,15,23,3,-7,12,27,43,49,37,20,27,28,46,56,48,45,47,45,26,20,29,19,15,28,34,14,13,23,-4,-29,-35,-43,-50,-61,-44,-31,-45,-36,-16,-3,-16,-20,-30,-60,-71,-69,-122,-524,-862,295,2349,2410,1520,336,-250,-444,-645,-746,-713,-687,-650,-596,-564,-526,-490,-481,-480,-467,-438,-415,-396,-378,-360,-320,-280,-245,-210,-158,-96,-35,7,69,131,164,158
2018-05-16,16:28:56.362,127,77,45,14,-8,-21,-32,-34,-44,-50,-51,-41,-45,-47,-35,-28,-34,-25,-26,-23,-3,5,1,17,32,38,46,32,37,42,40,38,45,39,39,49,52,58,54,49,48,54,55,53,50,18,7,18,35,32,33,47,71,68,56,32,33,1,-7,-4,-121,-610,-688,966,2828,2678,1536,227,-300,-518,-705,-752,-708,-666,-617,-559,-534,-513,-475,-454,-441,-418,-380,-340,-314,-287,-271,-253,-216,-193,-162,-109,-58,-18,29,74,106,123,122,85,60,37,28,6,-17,-29,-3,12,2,0,-7,-18,-30,-38,-33,-19,-6,0,-3,-6,-2,-2,-1,13,26,34,28,31
2018-05-16,16:28:57.399,33,47,53,73,71,62,58,63,74,85,87,86,87,76,87,66,35,28,44,63,47,46,67,104,103,100,105,96,76,64,-37,-520,-574,1071,2728,2422,1340,204,-191,-378,-590,-637,-607,-580,-549,-486,-454,-422,-387,-381,-373,-358,-348,-323,-286,-280,-262,-243,-225,-192,-157,-117,-40,6,29,80,116,126,124,118,99,65,52,31,23,26,29,44,37,30,8,4,11,0,-5,-3,-2,8,14,-5,0,5,1,2,8,1,5,3,-3,0,9,-4,-22,-30,-19,-29,-42,-46,-68,-77,-89,-97,-74,-78,-70,-64,-48,-41,-55,-54,-28,-24,-43,-87,-401,-900,-106,2183
2018-05-16,16:28:58.436,2590,1763,507,-184,-398,-584,-707,-712,-670,-633,-608,-567,-519,-475,-452,-451,-417,-397,-384,-369,-351,-323,-292,-285,-260,-224,-157,-95,-54,-1,61,106,140,147,123,78,34,9,-7,-16,-1,6,0,0,10,14,6,6,-1,-1,-20,-25,-23,-27,-19,-13,-10,-7,0,17,25,36,36,45,29,42,51,42,41,42,40,35,37,40,46,49,26,10,7,21,32,16,26,63,96,83,48,40,39,24,23,-5,-279,-762,-141,2043,2962,2261,865,-96,-383,-602,-736,-720,-672,-634,-601,-560,-515,-487,-456,-422,-384,-358,-329,-318,-306,-291,-263,-240,-207,-171,-124,-73,-15,31,64,102
2018-05-16,16:28:59.473,116,126,102,86,51,24,0,-21,-19,-1,9,4,-7,-21,-24,-29,-36,-40,-40,-35,-36,-39,-19,-9,7,27,17,20,43,54,55,67,64,62,68,60,53,42,37,40,45,64,56,45,55,55,48,40,13,7,22,47,28,24,55,92,93,62,58,80,75,64,43,-142,-649,-448,1427,2769,2257,1116,72,-266,-421,-611,-644,-601,-568,-524,-495,-469,-441,-419,-405,-391,-359,-342,-309,-287,-280,-253,-221,-199,-186,-157,-101,-54,-2,47,90,94,116,128,114,103,63,36,13,18,20,17,17,26,19,10,11,25,4,3,5,-7,-22,5,4,1,15,17,15,-10
2018-05-16,16:29:00.511,-9,-1,-12,-17,-9,-2,-10,-27,-28,-28,-14,-20,-28,-30,-33,-38,-43,-45,-35,-34,-30,-29,-37,-13,-6,-15,-9,-15,-31,-32,-46,-197,-728,-666,1152,2686,2285,1170,98,-277,-476,-674,-724,-706,-665,-637,-597,-549,-516,-491,-478,-452,-434,-410,-380,-348,-329,-307,-285,-264,-207,-145,-121,-70,-11,53,104,143,158,145,107,70,39,2,-4,3,6,-1,6,4,-10,-15,-24,-19,-22,-21,-18,-10,-4,0,7,15,31,33,34,32,27,39,43,29,21,46,45,35,45,46,48,40,32,45,57,48,43,39,32,28,23,-2,-13,-16,-9,-2,-1,23,37,52,40,24
2018-05-16,16:29:01.548,26,24,18,21,-49,-517,-740,720,2757,2780,1706,349,-241,-457,-664,-729,-692,-653,-624,-582,-545,-509,-479,-457,-430,-410,-383,-363,-338,-322,-296,-274,-258,-220,-192,-146,-86,-23,37,87,124,132,129,108,77,69,37,9,7,2,13,19,31,47,42,7,-7,-1,-3,-17,-4,10,4,-22,11,34,38,50,77,89,88,92,94,75,74,81,89,90,90,79,83,76,55,59,68,52,60,45,50,61,54,10,8,33,27,18,16,26,48,67,67,42,40,48,54,33,-17,-336,-759,89,2202,2618,1808,603,-100,-329,-545,-656,-628,-605,-588,-547,-499,-449,-429,-426,-397,-347
2018-05-16,16:29:02.585,-295,-310,-323,-290,-287,-265,-233,-206,-172,-117,-67,-29,-11,30,81,117,138,121,84,42,33,14,-3,-25,-22,-17,-16,-10,0,-8,-16,-30,-32,-35,-43,-37,-33,-29,-42,-39,-39,-33,-50,-46,-32,-15,-12,-22,-27,-13,-13,-23,-25,-20,-15,-14,-25,-22,-10,-33,-54,-70,-80,-72,-52,-69,-56,-21,-5,-31,-51,-38,-26,-34,-37,-45,-255,-835,-418,1816,2915,2281,944,-48,-364,-558,-717,-719,-675,-641,-620,-589,-553,-514,-479,-465,-427,-403,-380,-350,-324,-298,-273,-252,-238,-217,-171,-121,-52,-2,50,109,148,138,111,74,56,41,11,-10,-15,-2,14,21,16,20,21,11
2018-05-16,16:29:03.622,-2,-9,-28,-31,-24,-19,-6,0,-11,-7,6,10,29,40,36,51,50,48,69,64,50,72,59,45,45,46,45,39,48,54,44,35,25,0,-3,4,11,2,15,21,22,19,-3,-10,0,4,-1,-10,-253,-795,-219,2055,3002,2267,848,-85,-369,-585,-725,-713,-688,-646,-598,-560,-536,-496,-465,-432,-386,-358,-356,-351,-325,-295,-269,-239,-201,-173,-178,-167,-114,-53,0,66,108,100,91,69,48,27,10,3,-2,14,32,29,14,13,19,33,38,27,17,17,7,3,23,45,57,64,52,53,91,91,80,76,92,120,126,112,120,120,108,82,89,83,90,80
2018-05-16,16:29:04.659,50,68,60,62,38,25,23,36,56,25,33,71,88,75,48,58,13,0,32,-62,-560,-691,845,2694,2347,1320,183,-216,-395,-586,-654,-609,-570,-559,-511,-475,-449,-434,-420,-398,-371,-350,-350,-320,-295,-271,-245,-245,-201,-133,-105,-63,0,47,80,101,114,110,85,54,20,5,-7,-32,-48,-31,-6,-14,-39,-46,-25,-35,-56,-55,-53,-58,-63,-63,-52,-61,-33,-26,-33,-14,-13,-12,3,7,-1,0,2,-8,-19,-34,-28,-27,-36,-25,-31,-40,-62,-91,-97,-66,-49,-68,-38,-19,-33,-57,-57,-46,-38,-35,-37,-154,-642,-684,985,2737,2421,1315,146,-292,-489,-681,-726,-683
2018-05-16,16:29:05.697,-641,-608,-579,-548,-517,-483,-462,-437,-410,-392,-366,-346,-329,-302,-273,-245,-222,-171,-123,-81,-24,53,109,140,143,117,77,54,38,23,-4,-3,21,16,7,12,21,23,13,16,12,6,7,8,0,2,7,9,9,27,46,48,54,75,64,67,65,70,78,65,56,57,75,71,55,48,46,47,53,52,43,22,0,-9,0,18,9,10,35,50,53,33,30,34,32,23,-16,-331,-797,-27,2149,2828,1995,664,-116,-368,-557,-675,-658,-607,-587,-549,-502,-475,-447,-425,-398,-372,-348,-337,-309,-280,-260,-239,-215,-191,-170,-126,-98,-64,-21,37,91,127,129,104,62,48
2018-05-16,16:29:06.734,28,0,-4,-9,-8,-3,-1,-6,-6,18,28,20,13,3,9,13,17,9,8,36,21,26,52,49,57,74,59,50,62,48,73,79,66,49,34,63,74,71,68,59,44,44,27,0,-8,-4,2,12,0,27,55,76,65,41,50,59,58,33,-106,-599,-572,1112,2623,2209,1190,158,-201,-368,-565,-614,-561,-527,-480,-442,-419,-398,-391,-383,-353,-325,-307,-312,-297,-261,-246,-248,-225,-194,-168,-128,-62,-5,43,85,96,103,105,88,59,25,6,-14,-16,-15,-15,-14,-16,-11,-11,-11,-15,-27,-44,-31,-38,-53,-58,-59,-43,-39,-52,-60,-46,-26,-42,-41,-33,-28
2018-05-16,16:29:07.771,-38,-50,-44,-35,-35,-35,-18,-25,-42,-38,-61,-66,-39,-33,-47,-13,18,13,-6,-23,-20,-20,-16,-26,-66,-418,-896,89,2377,2703,1824,523,-163,-394,-597,-721,-711,-664,-620,-563,-523,-503,-486,-475,-423,-388,-378,-370,-339,-308,-281,-250,-233,-211,-167,-125,-87,-29,40,92,121,145,145,120,73,47,32,17,18,15,18,21,25,18,23,35,32,24,6,10,-1,-4,5,-6,-13,5,15,27,29,23,6,26,36,29,32,31,43,52,48,31,33,36,30,20,18,15,13,-2,0,-3,-12,0,11,16,25,44,38,14,10,21,3,-4,-1,-98,-591,-710,946,2907
2018-05-16,16:29:08.808,2630,1436,177,-274,-482,-688,-723,-674,-637,-597,-556,-511,-482,-464,-429,-387,-363,-348,-325,-305,-271,-236,-223,-204,-176,-130,-85,-49,-9,51,101,122,140,126,104,86,50,18,6,1,3,4,17,21,32,32,9,11,0,7,14,8,-2,6,20,27,25,21,30,32,40,63,66,58,56,75,72,65,83,101,99,89,75,77,73,66,72,62,42,16,18,0,20,35,47,73,65,49,45,34,39,63,53,8,-286,-736,26,2161,2636,1842,644,-60,-291,-508,-678,-628,-546,-528,-531,-516,-468,-429,-405,-358,-323,-312,-336,-306,-288,-297,-258,-229,-194,-145,-118,-91,-20,31
2018-05-16,16:29:09.845,74,108,124,123,104,54,18,-10,-29,-37,-27,-15,-22,-35,-42,-58,-74,-77,-64,-72,-88,-95,-81,-87,-101,-102,-79,-55,-47,-41,-40,-47,-47,-39,-45,-43,-40,-31,-9,-42,-68,-64,-84,-75,-52,-64,-81,-90,-92,-83,-55,-58,-45,-38,-36,-21,-15,0,-7,-11,-24,-108,-559,-766,658,2633,2616,1603,324,-229,-457,-657,-715,-674,-621,-583,-555,-520,-483,-453,-433,-386,-357,-345,-317,-319,-309,-279,-238,-213,-180,-136,-84,-25,34,80,103,120,142,132,89,54,24,19,15,11,11,22,27,27,38,42,32,25,12,5,-1,6,15,4,-3,-5,0,9,11,20,36,38
2018-05-16,16:29:10.883,41,40,52,50,53,43,48,53,49,63,44,29,19,16,14,-7,-1,-14,-28,-29,-5,-18,-14,8,24,24,30,35,27,4,-1,-16,-253,-759,-265,1801,2775,2152,891,-32,-313,-513,-669,-672,-644,-618,-584,-571,-556,-520,-468,-429,-410,-380,-359,-334,-307,-277,-236,-212,-202,-171,-126,-50,3,32,89,154,194,187,164,129,97,66,31,12,27,32,26,30,33,27,33,32,26,35,48,36,38,39,35,33,39,24,38,56,68,78,65,58,52,69,72,62,52,54,53,60,42,23,32,40,40,40,36,22,13,-8,-15,7,38,25,16,39,62,45,21,38
2018-05-16,16:29:11.920,55,49,25,-152,-690,-465,1451,2610,1999,932,34,-271,-455,-624,-641,-594,-568,-545,-497,-457,-435,-421,-405,-400,-387,-350,-322,-306,-287,-271,-249,-225,-184,-148,-108,-60,-4,38,60,94,98,73,50,6,-41,-74,-80,-88,-95,-91,-72,-81,-90,-89,-73,-68,-79,-90,-101,-82,-73,-70,-60,-48,-51,-44,-35,-30,-30,-8,-1,-11,-17,-15,-29,-37,-46,-44,-45,-21,0,1,3,-3,-10,-10,-16,-38,-42,-32,-8,-18,-24,3,52,56,32,21,27,13,18,42,-121,-692,-489,1537,2966,2481,1207,90,-287,-511,-672,-679,-661,-623,-585,-548,-509,-482,-446,-407,-379,-371,-363,-327,-307,-295
2018-05-16,16:29:12.957,-258,-240,-212,-180,-136,-86,-35,19,81,123,154,164,136,85,58,43,4,-26,-18,0,12,36,46,27,27,24,1,-6,-3,-3,-18,-4,18,10,22,25,17,19,28,19,20,23,40,61,60,56,84,86,74,62,53,50,44,46,36,23,27,23,10,-2,-6,-5,-32,-36,-34,-22,5,5,-1,8,34,20,6,18,13,10,-10,-9,-160,-721,-558,1391,2843,2388,1164,67,-311,-522,-693,-707,-668,-630,-581,-549,-514,-489,-480,-445,-382,-354,-327,-294,-283,-259,-225,-212,-181,-158,-126,-68,-16,7,43,115,168,177,161,139,119,96,67,68,59,83,91,82,100,97
2018-05-16,16:29:13.994,82,85,63,52,60,28,29,31,4,-7,18,20,-10,31,51,48,50,56,65,61,55,53,57,36,37,64,65,52,34,53,89,70,30,39,34,4,-5,0,4,0,-11,17,74,61,15,10,-5,-9,-3,4,-72,-584,-723,891,2675,2238,1216,158,-237,-417,-611,-673,-639,-613,-597,-574,-553,-531,-499,-463,-445,-437,-412,-376,-348,-338,-312,-294,-270,-244,-215,-166,-120,-75,-24,25,62,93,88,39,-3,-35,-63,-93,-91,-86,-82,-85,-71,-64,-40,-41,-50,-56,-75,-56,-60,-59,-57,-61,-36,-23,-49,-43,-37,-27,-18,-12,-15,-11,8,16,20,23,17,14,7,-2
2018-05-16,16:29:15.031,6,12,10,-2,-16,-12,-19,-24,-39,-52,-57,-62,-46,-24,-8,10,45,60,40,41,0,-11,2,-9,-210,-770,-391,1829,3016,2382,1006,-11,-334,-555,-706,-718,-691,-645,-597,-559,-512,-477,-450,-419,-386,-370,-346,-337,-311,-295,-273,-253,-222,-165,-111,-51,-2,30,77,113,137,150,129,95,70,49,27,20,32,32,42,30,25,31,26,9,-2,-10,-13,-11,-20,-22,-20,-10,-1,9,18,28,32,48,48,52,57,48,41,56,59,60,62,59,55,48,56,51,41,32,35,29,22,0,-9,-17,-17,-13,2,-6,-20,0,26,35,35,19,3,3,4,-13,-46,-373
2018-05-16,16:29:16.069,-853,84,2361,2838,2002,600,-155,-392,-600,-706,-673,-633,-608,-576,-533,-496,-459,-441,-420,-374,-357,-361,-326,-289,-274,-247,-196,-152,-144,-127,-45,2,31,69,111,134,129,123,124,113,90,62,54,75,66,47,68,75,59,27,45,44,51,59,34,35,21,38,82,53,43,51,60,60,67,78,74,81,69,64,64,59,30,21,17,40,42,24,30,20,15,-11,-1,-13,-41,-36,-15,-6,-17,2,28,31,20,-1,-10,-4,-10,-20,-185,-737,-572,1416,2821,2080,930,2,-295,-476,-645,-686,-661,-631,-594,-557,-538,-516,-495,-485,-463,-441,-419,-390,-360,-353,-340,-338,-307,-275
2018-05-16,16:29:17.106,-220,-163,-120,-63,-4,42,77,92,68,46,20,0,-30,-61,-55,-38,-31,-36,-32,-26,-20,-17,-34,-49,-45,-36,-33,-57,-65,-57,-39,-16,-12,4,23,16,25,40,41,24,-1,13,16,15,6,14,26,24,16,1,8,15,24,32,31,-5,-28,-30,-2,-1,2,30,53,48,23,14,17,12,0,-2,-175,-723,-480,1632,3135,2535,1145,27,-332,-564,-738,-749,-713,-677,-620,-577,-545,-511,-482,-447,-401,-369,-337,-324,-311,-276,-242,-220,-208,-174,-128,-86,-36,-2,48,100,129,135,124,99,78,41,18,18,35,46,33,37,30,16,8,-1,-8,-14,-27,-43,-48,-36
2018-05-16,16:29:18.143,-21,-12,-11,-1,9,8,14,28,31,17,30,28,40,39,49,53,48,45,47,55,69,53,35,26,25,19,30,34,28,16,5,9,4,-1,19,38,52,29,0,0,-2,-10,-25,-87,-452,-826,269,2516,2833,1834,451,-198,-427,-643,-720,-683,-637,-612,-563,-525,-504,-489,-469,-440,-392,-363,-360,-329,-275,-241,-237,-228,-191,-141,-87,-46,-13,32,94,142,164,187,172,133,86,58,52,59,86,88,68,76,66,76,78,64,44,36,33,42,39,22,43,61,51,33,38,46,64,50,30,30,62,75,54,44,51,56,43,37,32,34,42,57,44,25,22,24
2018-05-16,16:29:19.180,23,8,-1,0,0,6,16,11,32,45,30,19,23,27,29,18,7,-128,-616,-656,1001,2704,2146,1066,67,-261,-429,-614,-658,-644,-605,-575,-547,-526,-488,-461,-439,-419,-407,-387,-372,-345,-324,-311,-290,-262,-251,-203,-145,-103,-48,-10,27,54,88,91,56,7,-20,-35,-69,-90,-102,-105,-90,-96,-89,-76,-74,-73,-69,-63,-65,-55,-50,-56,-46,-54,-51,-34,-27,-32,-18,4,4,6,19,18,19,30,28,34,21,16,15,2,0,-1,-2,2,4,10,0,-7,-6,-16,-6,1,-2,27,45,43,37,6,15,24,17,5,-50,-430,-807,275,2533,2871,1870,470,-208,-428
2018-05-16,16:29:20.217,-637,-735,-690,-630,-603,-560,-527,-494,-462,-434,-404,-378,-348,-328,-302,-272,-256,-236,-209,-184,-154,-116,-66,-23,11,62,96,138,146,129,112,96,56,26,2,1,3,14,19,24,35,23,16,21,21,14,9,12,0,-8,6,28,24,20,19,35,31,35,38,54,65,61,52,45,43,31,33,23,17,19,13,8,18,21,28,4,-2,-20,-22,-33,-20,-14,-9,21,38,53,45,17,3,12,8,-17,-227,-740,-453,1570,2970,2346,1020,-10,-333,-540,-715,-713,-658,-613,-576,-551,-529,-502,-470,-445,-413,-379,-342,-329,-291,-252,-251,-247,-205,-138,-106,-92,-25,21,57,105
2018-05-16,16:29:21.255,153,185,151,114,75,52,47,48,60,62,56,47,66,67,29,27,42,36,20,35,41,40,30,35,26,32,43,28,55,68,43,45,62,79,86,67,47,38,57,51,44,55,44,37,37,36,25,2,-15,-25,-31,-15,8,21,46,54,35,16,19,17,24,-4,-37,-261,-730,-303,1725,2621,1824,695,-81,-291,-464,-614,-627,-602,-555,-534,-506,-494,-456,-406,-411,-394,-370,-347,-335,-306,-276,-253,-236,-202,-165,-127,-89,-46,1,44,83,103,101,87,28,-24,-56,-75,-77,-78,-79,-87,-98,-105,-84,-72,-63,-65,-76,-75,-79,-65,-75,-68,-68,-58,-37,-19,-25,-21
2018-05-16,16:29:22.292,-1,2,-10,-16,-6,8,12,6,7,6,14,5,1,7,3,-6,-24,-39,-47,-67,-52,-51,-31,4,26,5,-30,-12,-1,-4,-7,-15,-251,-773,-333,1782,2907,2273,937,-46,-357,-568,-697,-677,-641,-607,-545,-510,-474,-425,-397,-401,-385,-353,-330,-316,-309,-282,-247,-219,-191,-152,-110,-71,-20,34,77,116,146,144,134,105,59,32,-4,6,9,12,27,28,36,23,0,-8,-1,-15,-7,-2,3,-1,-2,6,15,21,33,27,38,55,58,42,41,61,67,54,71,65,52,48,45,39,22,17,11,10,19,13,-4,-30,-23,-18,-17,3,-21,-16,25,39,41,7
2018-05-16,16:29:23.329,4,18,12,7,-37,-417,-803,261,2425,2760,1827,489,-196,-413,-618,-726,-698,-636,-597,-567,-531,-496,-454,-429,-425,-383,-348,-312,-307,-289,-260,-233,-200,-173,-139,-106,-65,-16,46,77,118,149,159,124,89,63,44,14,20,44,67,74,72,78,96,92,58,38,40,55,61,53,40,28,34,53,53,59,75,71,76,63,70,58,66,48,45,60,66,55,46,28,16,7,24,23,32,38,35,21,5,-21,-26,-43,-38,-18,-20,5,39,26,16,16,38,8,-6,20,-171,-704,-472,1482,2655,1964,870,26,-244,-424,-610,-663,-628,-592,-563,-542,-511,-486,-467,-451,-435,-408
2018-05-16,16:29:24.366,-384,-357,-336,-326,-305,-272,-246,-224,-193,-143,-96,-51,7,51,79,85,66,31,-11,-53,-75,-77,-107,-109,-87,-78,-77,-72,-67,-94,-99,-85,-86,-88,-79,-72,-72,-66,-60,-58,-39,-22,-13,-5,10,13,3,-2,10,26,17,-1,-5,5,22,15,9,5,-17,-7,6,-15,-18,-14,-24,-27,-9,-3,-12,-23,-1,30,61,59,27,6,15,34,29,0,-322,-807,46,2323,2915,2049,670,-139,-387,-582,-691,-681,-663,-626,-579,-545,-505,-474,-446,-416,-409,-365,-332,-320,-311,-291,-263,-240,-199,-149,-101,-44,7,58,112,144,159,159,129,93,70,31,-6,2,12,11,27,43
2018-05-16,16:29:25.403,36,47,41,30,33,18,-4,-20,-34,-32,-32,-20,-1,4,12,18,21,29,31,31,24,28,52,53,37,35,19,20,22,27,40,37,27,30,24,21,1,8,-5,-11,-16,-22,-28,-33,-34,-33,-1,10,33,51,44,30,15,3,-3,-30,-361,-775,159,2351,2853,1983,632,-126,-365,-562,-656,-633,-612,-558,-515,-501,-463,-443,-449,-409,-353,-350,-312,-263,-247,-237,-217,-178,-145,-127,-99,-48,-2,47,89,129,162,144,131,96,75,60,50,38,32,32,40,40,47,49,56,55,42,0,15,39,20,8,28,46,38,33,33,59,69,44,52,43,64,57,48,65
2018-05-16,16:29:26.440,46,18,34,33,37,30,17,20,26,21,0,-22,-30,-28,-12,-13,-27,-18,13,16,-10,-25,-11,0,-26,-34,-101,-539,-793,594,2604,2388,1383,272,-213,-417,-627,-722,-686,-640,-603,-576,-541,-513,-485,-469,-451,-437,-432,-414,-385,-364,-347,-325,-290,-234,-201,-152,-78,-28,15,48,82,90,78,38,-8,-38,-55,-59,-67,-56,-43,-45,-47,-49,-53,-48,-32,-26,-19,-18,-51,-53,-43,-34,-35,-14,7,14,23,31,46,44,29,33,47,31,40,56,43,37,42,32,42,35,41,36,27,28,35,25,21,3,-19,-30,-14,18,-2,-8,6,32,33,22,25,35,34,14
2018-05-16,16:29:27.478,-6,-178,-727,-482,1632,3093,2560,1185,67,-329,-542,-706,-720,-675,-640,-603,-567,-522,-489,-464,-444,-425,-401,-378,-341,-305,-300,-290,-271,-233,-180,-132,-91,-37,11,51,90,126,124,103,87,55,40,8,-18,-2,-7,-3,16,37,15,-5,-6,-12,-2,-9,-18,-8,-14,-20,-7,-19,-11,1,6,0,-13,-5,14,17,28,29,36,29,27,40,44,42,44,50,48,38,30,24,35,46,51,46,32,26,26,7,-3,0,12,5,28,52,53,62,43,38,55,56,32,22,-208,-728,-250,1898,2927,2215,917,1,-292,-477,-632,-651,-617,-568,-539,-489,-469,-461,-431,-410,-374,-362
2018-05-16,16:29:28.515,-355,-330,-317,-282,-247,-224,-177,-147,-133,-111,-34,7,32,63,108,119,103,70,64,70,40,13,9,1,14,19,23,25,28,36,11,3,17,18,1,-1,2,-8,22,28,44,47,40,39,29,23,35,35,36,35,37,50,42,33,34,25,23,34,15,-6,0,-13,-16,-33,-39,-22,-16,-23,-4,18,17,-1,-12,-10,-15,-35,-40,-57,-317,-855,-308,1881,2691,1880,667,-124,-385,-589,-757,-762,-722,-692,-652,-617,-599,-562,-531,-489,-476,-456,-447,-426,-395,-375,-352,-319,-280,-236,-185,-133,-82,-16,46,97,135,143,124,90,46,20,-2,-21,-30,-16,5,26,19,10
2018-05-16,16:29:29.552,-2,-11,-24,-22,-9,-14,0,-2,9,18,22,31,36,38,43,40,46,50,57,53,61,54,46,51,57,53,59,51,40,42,56,65,41,14,7,0,2,-9,-8,-3,9,13,33,52,50,39,38,42,42,34,18,-253,-807,-239,2032,3014,2271,860,-58,-360,-582,-720,-709,-656,-621,-586,-570,-540,-492,-467,-446,-432,-410,-374,-340,-320,-305,-279,-242,-205,-173,-133,-90,-34,2,42,94,123,130,112,83,41,17,12,-3,3,4,8,6,16,27,-1,-6,-14,-29,-32,-14,-19,-18,-13,-9,14,24,12,14,34,29,40,46,56,56,49,56,70,66,56,67,63
2018-05-16,16:29:51.420,349,397,288,156,135,132,86,57,72,76,87,86,81,82,84,59,43,50,58,58,51,53,37,39,64,59,76,77,80,87,71,15,-40,-79,-95,-115,-118,-88,-42,-237,-273,-234,-223,-214,-205,-201,-209,-331,-845,-1091,481,2597,2260,1157,80,-335,-523,-718,-826,-805,-732,-713,-693,-679,-659,-622,-593,-583,-576,-543,-527,-497,-481,-462,-427,-414,-362,-304,-249,-194,-110,-61,-2,42,70,70,45,-17,-74,-74,-44,-32,-14,6,20,9,44,72,77,68,60,70,74,87,112,126,123,134,152,168,150,126,125,143,161,185,194,196,193,195,167,153,150,150,174,158,147,176
2018-05-16,16:29:52.095,220,199,137,119,125,155,168,129,-288,-768,82,2323,2968,2134,795,8,-244,-429,-596,-597,-561,-539,-511,-474,-427,-403,-382,-371,-345,-331,-312,-270,-246,-234,-225,-201,-182,-176,-180,-168,-128,-101,-61,-32,-13,-25,-55,-64,-102,-136,-151,-164,-184,-175,-157,-166,-162,-138,-123,-131,-122,-125,-122,-104,-80,-74,-42,-32,-32,-15,7,14,15,18,46,46,69,28,23,3,-23,-25,-23,-14,4,-15,11,61,64,33,11,0,-11,-12,-23,-196,-732,-727,1140,2936,2261,1119,193,-136,-304,-481,-569,-552,-532,-506,-471,-419,-377,-344,-329,-292,-248,-232,-206,-197,-189,-177,-153,-124,-86,-42,14,76
2018-05-16,16:29:53.132,132,202,263,321,351,330,290,227,165,143,116,111,111,114,116,112,71,50,66,83,74,86,87,82,67,8,7,2,10,44,47,16,0,-13,-12,5,11,0,-7,0,5,-2,-16,-37,-93,-220,-223,-189,-203,-220,-200,-280,-735,-1150,50,2286,2438,1510,347,-242,-461,-651,-795,-804,-772,-735,-683,-627,-599,-579,-542,-515,-494,-463,-458,-443,-408,-389,-353,-339,-286,-256,-212,-142,-72,-19,19,84,124,125,102,65,26,-22,-57,-73,-68,-43,-56,-37,19,54,42,30,38,27,36,70,62,54,27,28,35,38,72,108,133,160,202,206,185,164,145,144,170,168,156,145
2018-05-16,16:29:54.169,156,167,170,170,199,189,192,159,181,174,176,159,-51,-616,-531,1353,2977,2607,1436,270,-150,-320,-518,-632,-593,-508,-531,-525,-498,-475,-412,-405,-394,-419,-401,-317,-212,-216,-236,-201,-165,-140,-145,-121,-111,-114,-81,-31,17,48,21,-32,-89,-103,-124,-124,-109,-118,-122,-118,-109,-101,-97,-104,-116,-111,-100,-111,-126,-101,-82,-89,-87,-66,-56,-36,-49,-84,-68,-64,-64,-65,-55,-75,-85,-105,-81,-47,-50,-25,13,37,21,12,16,51,43,18,-89,-603,-880,685,2928,2518,1340,352,-101,-309,-481,-592,-566,-536,-510,-473,-423,-366,-349,-342,-305,-280,-283,-274,-225,-181,-182,-158,-102,-71
2018-05-16,16:29:55.206,-42,16,80,145,224,300,344,378,379,308,228,134,153,174,110,47,19,27,56,77,41,1,50,98,70,36,75,80,70,-3,-62,10,35,4,-8,-12,2,-22,-60,-50,-78,-122,-154,-178,-185,-217,-221,-217,-217,-214,-232,-230,-214,-210,-206,-223,-487,-1068,-644,1644,2899,2175,865,-105,-404,-571,-746,-788,-761,-708,-645,-607,-556,-559,-538,-516,-489,-451,-420,-406,-405,-382,-365,-329,-304,-274,-215,-138,-66,-5,31,88,153,171,154,96,64,55,21,1,-4,6,41,48,62,61,56,62,71,30,14,15,15,19,55,71,83,114,144,173,188,188,203,201,205,202,200,194
2018-05-16,16:29:56.244,186,200,186,178,197,204,211,243,277,272,242,221,159,167,189,177,8,-473,-601,972,2778,2575,1550,389,-82,-293,-474,-512,-526,-565,-545,-531,-542,-490,-434,-455,-456,-419,-368,-325,-355,-364,-294,-229,-283,-291,-271,-234,-205,-197,-204,-192,-157,-135,-165,-186,-224,-250,-242,-230,-195,-167,-143,-131,-135,-132,-101,-83,-55,-42,-57,-39,-30,-13,0,3,0,-8,15,62,50,9,21,20,-7,-16,-10,-10,-28,-32,-11,-12,3,41,62,43,1,3,17,-13,-23,-26,-147,-696,-748,1097,3019,2455,1242,283,-85,-240,-442,-550,-516,-496,-478,-432,-394,-350,-296,-264,-232,-216,-188,-167,-127,-88
2018-05-16,16:29:57.281,-53,-54,-6,21,62,146,218,273,331,387,433,431,393,380,367,318,176,86,28,42,89,118,63,88,60,41,34,-19,-26,-60,-81,-42,-10,-28,41,76,21,-6,-22,-42,-9,-59,-51,-23,-104,-60,-50,-121,-180,-201,-235,-282,-261,-252,-292,-313,-285,-270,-239,-230,-253,-547,-1074,-477,1820,2839,2055,726,-138,-400,-607,-762,-787,-756,-727,-691,-650,-624,-595,-563,-563,-518,-517,-529,-503,-460,-434,-424,-382,-347,-310,-261,-197,-128,-40,4,58,108,147,116,72,37,-10,-53,-51,-22,11,24,28,59,73,81,87,65,76,85,96,94,102,110,133,139,173,157,159,183,172,185
2018-05-16,16:29:58.318,196,196,215,213,193,199,204,202,197,248,297,216,184,225,259,229,123,158,195,188,183,89,-426,-735,648,2795,2732,1728,500,-25,-225,-420,-552,-594,-525,-411,-403,-398,-389,-372,-408,-374,-309,-363,-380,-332,-277,-283,-326,-350,-387,-404,-369,-364,-333,-279,-244,-195,-162,-162,-194,-202,-196,-206,-232,-236,-209,-189,-170,-139,-143,-148,-122,-117,-123,-98,-102,-103,-97,-87,-53,-53,-80,-48,-28,-40,-61,-58,-38,-68,-67,-73,-65,-42,-50,-18,19,44,64,38,41,43,38,19,6,36,56,-169,-695,-357,1766,2968,2062,916,150,-154,-355,-545,-569,-515,-465,-420,-390,-338,-279,-262,-252,-216
2018-05-16,16:29:59.355,-181,-158,-130,-98,-50,0,40,28,34,114,170,230,290,300,395,403,379,348,261,227,215,152,112,111,91,102,83,46,41,76,55,42,33,30,17,15,36,8,-9,-4,0,-3,-28,-24,-26,-35,-59,-58,-87,-105,-115,-118,-136,-156,-164,-194,-205,-220,-218,-229,-209,-197,-246,-596,-1101,-325,1943,2693,1855,535,-271,-507,-685,-853,-849,-765,-719,-682,-636,-590,-551,-523,-505,-483,-454,-440,-411,-408,-380,-353,-327,-307,-275,-214,-156,-106,-44,11,45,84,95,95,65,27,0,-33,-38,-44,-42,-24,29,48,16,37,85,81,77,53,23,20,33,48,64,71,89,135,135,140
2018-05-16,16:30:00.392,183,185,214,188,173,173,184,215,213,211,230,282,311,233,239,264,179,176,166,-111,-682,-292,1868,3081,2461,1101,58,-284,-436,-566,-626,-584,-534,-515,-476,-429,-394,-375,-402,-376,-345,-328,-314,-304,-274,-254,-215,-147,-93,-90,-27,29,66,86,109,104,91,58,0,-66,-109,-142,-169,-171,-172,-178,-195,-213,-196,-187,-196,-197,-198,-179,-160,-129,-112,-93,-99,-64,-53,-64,-48,-45,-49,-40,-41,-59,-33,-43,-54,-25,-3,-10,-26,-60,-53,-48,-42,-53,-52,-330,-904,-449,1848,2829,1874,751,49,-223,-412,-585,-632,-587,-542,-507,-475,-455,-412,-386,-375,-370,-357,-354,-338,-306,-261,-221
2018-05-16,16:30:01.430,-188,-127,-74,-23,10,69,146,198,245,260,271,243,186,128,80,56,65,69,71,54,26,22,3,33,43,14,64,76,15,-33,-24,17,42,58,72,92,102,88,56,0,30,85,26,64,89,50,81,126,122,117,101,93,103,93,68,-59,-609,-798,814,2683,2641,1592,237,-342,-539,-718,-827,-815,-789,-751,-720,-712,-692,-659,-628,-583,-562,-540,-504,-483,-446,-374,-329,-289,-226,-188,-138,-75,-11,30,77,116,144,113,62,14,-18,-49,-67,-78,-85,-74,-93,-74,-54,-58,-69,-61,-56,-63,-77,-85,-68,-47,-7,30,31,35,43,47,60,54,18,-12,-13,-5,12,34
2018-05-16,16:30:02.467,91,121,111,81,67,78,87,105,102,-10,-541,-702,893,2884,2774,1678,519,-9,-242,-432,-524,-483,-460,-501,-442,-401,-411,-331,-216,-190,-230,-255,-225,-234,-196,-139,-96,-58,-37,-14,85,161,170,146,177,207,222,225,144,90,98,75,60,47,45,23,-3,-27,-70,-92,-103,-130,-178,-174,-176,-173,-133,-104,-125,-137,-118,-89,-64,-58,-63,-79,-90,-82,-60,-42,-33,5,28,4,-7,-14,-19,-34,-54,-72,-136,-554,-918,161,2324,2401,1358,329,-187,-365,-550,-669,-658,-619,-588,-560,-519,-483,-463,-422,-404,-414,-395,-365,-315,-273,-248,-224,-187,-145,-99,-30,31,95,134,173,203,201
2018-05-16,16:30:03.504,198,163,114,77,30,8,3,-2,-9,11,27,34,35,59,65,64,74,90,93,106,115,140,147,115,90,110,130,120,96,37,50,87,98,103,93,116,133,93,90,106,81,77,41,-274,-820,-205,2004,2804,2236,927,-17,-272,-467,-653,-689,-651,-623,-591,-560,-518,-490,-461,-442,-429,-430,-431,-441,-439,-444,-440,-416,-383,-334,-315,-267,-194,-129,-112,-55,-24,-14,-25,-37,-58,-69,-78,-63,-56,-69,-45,-19,-29,-29,-20,-8,-25,-36,-33,-21,-18,-12,0,-8,-31,-22,-40,-38,-49,-68,-65,-70,-81,-50,-24,-13,6,-6,1,7,-5,10,51,79,36,-262,-823,-189,2276
2018-05-16,16:30:04.541,3081,2098,769,-42,-312,-503,-672,-682,-605,-539,-489,-452,-438,-419,-389,-378,-338,-295,-262,-240,-224,-201,-160,-124,-131,-88,-14,72,162,187,219,229,186,233,225,179,131,108,133,170,73,13,103,74,80,73,51,25,60,93,84,33,29,79,97,99,108,119,97,87,121,156,126,106,153,133,111,142,105,38,12,-5,-63,-76,-72,-78,-230,-801,-831,970,2610,2138,1086,118,-267,-437,-599,-685,-661,-645,-599,-561,-531,-490,-454,-449,-431,-383,-389,-367,-380,-342,-324,-293,-254,-237,-208,-114,-75,-32,13,62,96,118,108,55,2,-18,-29,-58,-83,-75,-51,-84,-76,-56,-25,-48
2018-05-16,16:30:05.578,-52,-46,-20,-8,8,6,15,20,18,21,27,17,5,15,29,44,69,84,114,138,136,108,99,100,87,66,58,26,-425,-752,618,2701,2528,1573,461,-70,-249,-401,-512,-536,-545,-516,-455,-499,-476,-436,-384,-329,-293,-281,-262,-233,-284,-253,-235,-206,-125,-83,-33,-15,39,85,134,189,244,204,134,88,72,27,8,-9,-40,-101,-130,-133,-149,-180,-176,-195,-208,-204,-193,-165,-145,-127,-105,-84,-74,-53,-28,-24,-26,-40,-36,-36,-34,0,-11,11,-4,-3,-2,-24,-8,-23,-39,-66,-179,-690,-917,636,2755,2651,1453,263,-261,-474,-658,-761,-733,-686,-637,-600,-568,-526,-508,-472
2018-05-16,16:30:06.616,-430,-371,-316,-300,-300,-261,-254,-233,-194,-169,-131,-61,9,68,122,193,261,302,300,252,184,130,75,37,26,43,46,36,48,62,78,67,74,20,-45,8,91,92,25,14,70,54,47,50,72,108,122,139,121,47,108,176,137,147,125,93,140,165,129,115,-79,-640,-549,1290,2791,2477,1413,303,-136,-310,-517,-618,-600,-585,-602,-591,-562,-534,-513,-492,-493,-488,-453,-409,-382,-369,-347,-306,-268,-235,-159,-103,-57,0,30,84,137,138,106,40,6,-17,-61,-104,-126,-98,-80,-94,-101,-103,-108,-119,-110,-102,-94,-85,-74,-70,-49,-34,-36,-13,-28,-38,-43,-20,25,21
2018-05-16,16:30:07.653,61,84,100,72,43,69,85,58,32,10,-244,-809,-409,1767,2814,1997,882,71,-210,-379,-559,-623,-577,-527,-500,-465,-432,-410,-388,-362,-359,-327,-295,-249,-227,-195,-150,-102,-39,-44,-64,-27,38,100,173,225,248,286,257,195,144,149,62,0,-4,-11,-14,7,5,-24,-20,-2,11,6,-4,16,17,19,45,41,38,59,58,19,-14,-44,-59,-62,-93,-105,-77,-81,-69,-83,-102,-86,-80,-74,-67,-160,-660,-936,483,2714,2744,1580,352,-183,-407,-609,-727,-703,-660,-637,-616,-595,-579,-552,-514,-479,-464,-461,-430,-421,-404,-381,-362,-311,-272,-230,-159,-80,-10,59,111,141,155,132
2018-05-16,16:30:08.690,87,63,18,-6,-19,-5,-3,-16,-6,-8,3,19,39,20,-10,-23,-15,-3,7,31,56,77,78,82,97,98,91,91,105,117,126,131,148,168,169,154,133,178,174,110,110,-7,-554,-592,1024,2825,2462,1400,301,-174,-323,-523,-595,-562,-488,-432,-396,-374,-344,-313,-296,-266,-264,-221,-207,-216,-187,-166,-134,-111,-55,-17,30,96,112,151,143,158,141,92,34,-51,-108,-160,-156,-157,-191,-193,-149,-139,-150,-152,-133,-133,-127,-128,-125,-111,-64,-54,-90,-116,-74,-56,-55,-73,-97,-83,-73,-66,-42,-25,-28,-41,-51,-69,-75,-56,-62,-349,-909,-416,1852,2798,1850,659,-116,-362
2018-05-16,16:30:09.727,-522,-698,-730,-685,-635,-608,-556,-528,-490,-468,-448,-410,-383,-371,-363,-353,-321,-275,-219,-130,-47,-21,30,103,162,211,254,258,252,216,144,88,23,1,7,21,46,55,22,22,29,15,28,35,64,76,33,29,35,49,100,157,154,112,110,130,128,156,99,99,89,76,82,115,121,91,81,93,73,49,-11,-458,-889,300,2543,2840,2041,599,-140,-368,-590,-730,-727,-716,-706,-671,-646,-625,-604,-590,-571,-571,-540,-509,-462,-414,-384,-359,-327,-281,-227,-175,-104,-31,36,99,129,150,146,82,10,-53,-89,-90,-94,-98,-88,-89,-108,-111,-110,-102,-117,-122,-117,-132,-137,-105
2018-05-16,16:30:10.764,-82,-44,-30,-25,-30,-13,-23,-4,26,23,55,86,125,141,134,129,144,136,112,102,86,13,-401,-829,283,2657,2834,1779,580,-5,-192,-376,-501,-518,-475,-451,-447,-396,-347,-334,-295,-264,-256,-253,-232,-192,-131,-121,-59,-34,-31,-52,65,83,147,233,268,312,350,347,256,169,137,100,49,27,21,59,30,5,3,14,0,3,14,-10,-7,11,0,3,41,24,22,-9,-50,-80,-106,-106,-114,-130,-116,-83,-75,-89,-102,-91,-90,-101,-87,-244,-828,-810,1214,2840,2165,1013,75,-257,-463,-652,-746,-705,-654,-619,-615,-601,-584,-563,-537,-524,-508,-476,-447,-432,-385,-389,-355,-324
2018-05-16,16:30:11.802,-270,-208,-146,-95,-31,35,91,145,146,117,83,48,-2,-21,-44,-56,-44,-36,-46,-45,-55,-47,-44,-48,-27,5,50,77,84,100,145,144,153,170,172,156,127,126,117,130,166,153,164,192,218,149,115,128,117,113,111,0,-534,-770,893,2905,2702,1611,389,-194,-391,-564,-646,-618,-573,-569,-554,-500,-457,-435,-389,-349,-359,-360,-353,-324,-295,-245,-202,-185,-159,-139,-75,13,22,26,52,81,87,46,-32,-115,-157,-189,-234,-245,-220,-214,-195,-164,-135,-153,-145,-137,-120,-81,-65,-55,-29,-8,17,21,21,-8,3,9,0,-8,-9,-15,-16,-5,-1,-8,-5,-17,-22,-14
2018-05-16,16:30:12.839,-20,-21,-28,-216,-821,-646,1463,2902,2189,1003,98,-221,-392,-569,-631,-585,-539,-546,-525,-487,-471,-458,-400,-356,-330,-268,-237,-238,-229,-198,-145,-104,-35,7,44,130,217,260,267,294,320,261,201,184,125,82,116,64,78,111,89,55,100,68,83,59,49,77,95,91,74,102,121,108,84,110,108,100,96,104,103,74,117,160,112,137,111,112,93,78,44,-117,-692,-882,717,2579,2322,1253,146,-340,-539,-730,-850,-815,-771,-751,-692,-662,-635,-589,-555,-534,-508,-486,-439,-399,-397,-387,-324,-280,-258,-204,-146,-98,-33,22,78,124,140,122,67,-28,-83,-132,-165,-167,-174,-191
2018-05-16,16:30:13.876,-185,-141,-132,-131,-110,-87,-76,-72,-84,-56,-15,20,38,52,80,97,100,92,84,95,87,85,111,128,134,164,221,203,195,185,187,180,176,114,-293,-773,132,2409,2981,2048,759,7,-241,-427,-590,-596,-534,-468,-439,-463,-452,-430,-411,-425,-419,-362,-296,-284,-247,-215,-211,-165,-126,-81,-37,-3,77,165,209,252,287,299,262,160,67,6,-34,-81,-42,-49,-36,-28,-12,-36,-86,-133,-148,-155,-193,-216,-192,-193,-207,-185,-138,-115,-101,-101,-104,-77,-57,-40,-14,-14,17,54,53,35,13,13,4,-30,-16,-97,-579,-876,434,2593,2507,1374,293,-201,-386,-602,-735,-718,-665,-627
2018-05-16,16:30:14.913,-609,-599,-577,-517,-439,-418,-413,-403,-364,-297,-226,-163,-106,-66,-34,10,66,131,173,200,220,232,238,195,127,62,16,1,3,-14,-32,5,5,-2,10,2,23,33,42,57,83,97,94,132,158,118,124,72,40,50,45,79,107,103,111,119,132,121,86,64,79,101,111,-5,-548,-709,876,2702,2629,1701,409,-151,-352,-550,-666,-667,-611,-572,-587,-544,-513,-498,-490,-450,-451,-461,-458,-463,-473,-456,-425,-394,-364,-313,-236,-170,-107,-53,-9,45,70,41,-7,-61,-101,-130,-121,-128,-126,-102,-71,-61,-57,-77,-106,-107,-95,-94,-82,-80,-71,-65,-58,-41,-30,-38,-28,-54
2018-05-16,16:30:15.950,-59,-62,-48,-35,-28,-21,9,35,38,47,21,13,32,34,32,-129,-638,-591,1258,3008,2479,1220,185,-170,-355,-549,-617,-590,-535,-471,-421,-364,-324,-297,-279,-272,-256,-252,-240,-217,-195,-171,-153,-130,-72,-11,52,70,119,183,250,286,326,303,254,165,73,35,21,0,6,34,59,61,75,49,88,86,19,5,40,80,106,87,86,110,106,116,102,104,104,129,153,148,125,115,104,84,37,-11,-40,-68,-76,-126,-455,-1000,-455,1737,2569,1775,678,-108,-353,-502,-670,-707,-656,-615,-573,-574,-519,-503,-508,-471,-431,-395,-379,-382,-315,-292,-291,-271,-238,-196,-164,-109,-44,-2
2018-05-16,16:30:16.988,56,118,154,151,97,22,-47,-108,-163,-186,-204,-235,-244,-227,-210,-168,-148,-121,-64,-48,-40,-41,-30,-19,-13,-8,-6,3,29,56,71,109,134,152,153,167,160,156,159,167,155,143,146,12,-526,-579,1208,3038,2589,1448,345,-115,-263,-452,-527,-524,-504,-521,-557,-469,-352,-344,-302,-269,-298,-296,-247,-199,-202,-277,-239,-103,-13,3,26,79,112,176,242,251,224,188,83,27,76,61,-5,-93,-168,-205,-229,-270,-282,-286,-313,-303,-317,-312,-285,-255,-226,-214,-192,-167,-144,-146,-120,-108,-67,-4,3,56,101,98,18,22,51,30,21,5,-36,-418,-898,15,2403,2997,1943,535
2018-05-16,16:30:18.025,-188,-408,-585,-746,-739,-700,-660,-617,-583,-573,-547,-515,-483,-467,-443,-387,-324,-289,-252,-211,-194,-150,-74,-14,71,132,157,202,246,273,271,220,166,115,90,87,40,45,69,95,106,88,82,80,70,103,156,206,192,61,13,62,101,105,96,97,89,133,125,170,208,222,186,195,218,211,158,151,42,-550,-745,879,2807,2867,1916,488,-107,-355,-498,-594,-595,-544,-540,-476,-454,-445,-480,-530,-581,-605,-596,-637,-631,-551,-550,-553,-486,-441,-361,-290,-223,-142,-70,-13,0,2,1,-55,-99,-124,-128,-146,-133,-122,-130,-132,-124,-118,-149,-152,-142,-151,-133,-146,-125,-106,-93,-108
2018-05-16,16:30:19.062,-122,-116,-88,-47,-42,-12,38,44,30,11,-9,-20,-29,-16,-73,-386,-771,92,2347,2860,1804,602,-13,-193,-395,-535,-496,-460,-435,-376,-313,-270,-237,-220,-196,-160,-150,-125,-95,-64,-17,-22,-26,11,68,103,163,222,215,250,315,283,224,147,39,4,50,35,37,18,0,4,27,20,17,13,7,107,148,154,104,74,56,27,-17,83,105,2,-71,131,163,120,87,78,25,26,-16,-252,-814,-681,1149,2487,1968,868,-98,-435,-581,-739,-781,-714,-671,-626,-592,-558,-517,-500,-473,-447,-416,-382,-339,-302,-261,-244,-250,-215,-125,-44,-2,54,88,106,148,145,157,85,-4,-52
2018-05-16,16:30:20.099,-104,-144,-145,-188,-172,-143,-104,-99,-104,-104,-68,-36,-41,-50,-51,-70,-48,0,41,61,80,111,172,176,157,139,127,109,92,70,61,-188,-742,-353,1846,3007,2343,1135,174,-147,-315,-487,-537,-529,-512,-435,-377,-401,-409,-379,-341,-370,-281,-282,-241,-224,-142,-176,-97,-104,-137,65,193,225,266,338,353,378,408,330,173,80,42,-83,-14,74,3,-39,-20,-5,-7,-34,-47,-61,-125,-164,-173,-224,-245,-266,-277,-319,-312,-255,-245,-222,-182,-178,-217,-214,-176,-163,-140,-144,-353,-967,-664,1582,3101,2633,1210,14,-383,-581,-761,-806,-753,-720,-705,-653,-646,-612,-593,-585,-560,-524,-528,-509
2018-05-16,16:30:21.136,-464,-427,-415,-397,-342,-266,-192,-117,-31,21,62,111,158,163,129,68,39,20,3,13,23,23,27,30,13,-17,-21,-23,-22,2,16,37,59,97,124,115,131,147,143,140,159,210,247,256,252,210,186,179,181,226,37,-489,-583,1174,2896,2640,1601,376,-139,-347,-470,-554,-521,-461,-429,-379,-369,-355,-334,-349,-319,-292,-314,-303,-262,-214,-208,-197,-180,-121,-58,-18,16,69,154,175,157,122,31,-87,-166,-223,-276,-301,-318,-315,-304,-272,-231,-193,-164,-143,-128,-101,-51,-37,-41,-11,31,30,23,18,17,25,55,65,58,66,60,36,27,18,7,2,-17,-129,-597,-897
2018-05-16,16:30:22.174,593,2659,2431,1369,272,-176,-345,-519,-606,-594,-555,-529,-520,-494,-469,-426,-388,-358,-333,-304,-270,-213,-168,-157,-123,-71,-43,-5,44,123,178,212,252,281,280,232,157,56,-3,-9,0,-18,-17,0,0,23,31,-6,28,-22,-48,10,76,53,63,103,99,109,95,94,134,136,153,189,159,155,131,162,153,148,122,-75,-694,-492,1539,2761,2222,1134,149,-162,-327,-504,-598,-589,-576,-563,-573,-560,-567,-593,-591,-580,-555,-529,-499,-477,-435,-394,-348,-289,-232,-171,-108,-33,32,83,123,158,146,101,33,-56,-121,-162,-188,-184,-169,-173,-161,-145,-156,-155,-151,-162,-167,-148,-146,-141
2018-05-16,16:30:23.211,-136,-130,-136,-145,-145,-124,-100,-104,-72,-17,16,10,8,21,15,25,41,-183,-763,-444,1785,3163,2434,1061,45,-273,-474,-676,-710,-641,-583,-544,-510,-458,-460,-423,-395,-365,-329,-293,-238,-215,-159,-101,-39,-25,-57,-32,106,240,235,182,223,307,268,244,177,147,133,-2,-67,-40,-27,-10,-36,-34,-15,-15,-3,23,29,54,74,84,93,61,86,38,35,12,53,114,93,82,61,43,-8,-41,-53,-70,-107,-170,-528,-978,-162,2044,2584,1649,439,-208,-385,-557,-698,-679,-619,-591,-543,-497,-453,-418,-375,-356,-363,-331,-311,-300,-280,-226,-174,-151,-84,-48,-11,54,111,149,185,242
2018-05-16,16:30:24.248,245,225,164,71,17,-33,-49,-76,-85,-68,-44,-41,-27,14,12,22,37,39,30,11,19,27,21,22,32,16,4,66,106,139,140,150,143,134,149,111,92,70,-158,-674,-278,1897,2979,2151,945,97,-199,-367,-475,-488,-433,-419,-413,-452,-436,-367,-319,-311,-235,-286,-319,-260,-229,-196,-152,-142,-72,-36,-11,66,133,210,271,313,313,329,271,150,44,-8,-75,-134,-181,-205,-232,-251,-290,-307,-329,-321,-307,-311,-301,-291,-269,-236,-207,-203,-182,-164,-164,-123,-101,-90,-55,-15,-14,-34,-25,0,-12,-14,-172,-754,-720,1227,2979,2465,1168,67,-326,-510,-706,-791,-748,-709,-679,-649
2018-05-16,16:30:25.285,-622,-591,-553,-512,-479,-448,-438,-407,-357,-320,-275,-209,-150,-94,-47,29,84,153,223,260,297,306,271,174,74,19,-15,-36,-17,-17,-1,14,8,12,38,47,51,45,25,37,84,71,45,72,77,15,13,50,33,77,124,131,73,140,97,118,129,124,113,-153,-792,-399,1777,2791,2335,1384,404,-60,-263,-470,-561,-573,-570,-543,-538,-520,-476,-473,-496,-490,-459,-467,-456,-447,-447,-424,-423,-389,-335,-288,-237,-167,-118,-35,23,59,63,58,15,-50,-92,-118,-102,-94,-92,-94,-84,-83,-100,-92,-65,-48,-49,-37,-37,-44,-36,-28,-5,-14,-33,-30,-13,8,10,54,64,45
2018-05-16,16:30:26.322,49,49,53,53,63,38,-180,-753,-469,1696,3089,2322,1060,155,-140,-337,-558,-606,-563,-562,-545,-499,-427,-370,-326,-304,-253,-225,-230,-220,-178,-160,-116,-89,-70,-10,76,149,215,287,332,374,413,365,329,197,123,105,53,42,16,45,73,30,67,98,74,94,113,117,127,116,91,36,-36,-42,-28,118,221,184,120,62,67,56,9,4,-26,-50,-69,-142,-639,-1118,73,2253,2362,1396,198,-404,-605,-784,-907,-896,-831,-775,-727,-680,-642,-596,-538,-519,-481,-448,-420,-402,-363,-341,-300,-242,-178,-147,-107,-21,65,106,132,197,213,181,101,-23,-113,-185,-235,-249,-244,-255,-251,-252
2018-05-16,16:30:27.360,-224,-216,-189,-141,-114,-68,-45,-53,-54,-20,-6,-31,-68,-77,-69,-44,-3,24,84,146,186,203,169,167,186,188,184,-64,-721,-255,2071,3214,2462,1095,151,-136,-285,-534,-578,-539,-498,-453,-397,-399,-352,-282,-258,-291,-272,-284,-139,-119,-177,-101,-78,-20,47,69,89,141,214,328,355,318,309,207,72,26,-3,-96,-99,-39,-69,-136,-139,-160,-202,-239,-250,-271,-261,-264,-250,-222,-203,-193,-180,-152,-126,-121,-104,-82,-58,-9,42,61,63,49,56,64,72,67,-162,-767,-467,1701,2914,2202,975,46,-248,-425,-596,-657,-636,-609,-569,-545,-523,-487,-465,-422,-392,-398,-391,-311,-277,-275
2018-05-16,16:30:28.397,-232,-156,-103,-55,1,68,134,207,255,271,276,242,194,103,35,-20,-27,-20,-47,-43,-30,-40,-40,-39,-32,20,21,7,28,26,33,84,173,189,123,101,189,194,205,249,222,236,255,227,240,206,169,121,-328,-737,435,2673,2766,1964,634,-5,-250,-431,-526,-696,-648,-553,-545,-562,-551,-489,-501,-438,-417,-429,-424,-428,-458,-436,-433,-377,-363,-331,-249,-189,-109,-25,46,90,113,88,15,-78,-150,-178,-215,-214,-191,-195,-185,-159,-151,-151,-132,-115,-87,-82,-57,-48,-36,-48,-41,-47,-71,-84,-54,-40,-37,-30,-15,-1,6,-25,-29,-30,-25,-38,-236,-823,-767,1341,3267,2728
2018-05-16,16:30:29.434,1278,147,-234,-455,-646,-687,-669,-627,-580,-563,-547,-511,-455,-398,-355,-311,-284,-251,-213,-183,-160,-126,-41,-6,-3,37,114,214,298,320,328,296,246,164,51,15,0,-2,-18,-21,-20,3,-3,-40,-19,0,-3,14,-23,23,43,26,0,26,99,40,94,103,91,120,127,103,71,61,89,94,45,-16,-232,-794,-607,1379,2698,2180,992,-63,-399,-580,-732,-754,-699,-654,-624,-593,-551,-520,-496,-441,-404,-392,-357,-321,-298,-280,-214,-147,-111,-62,-27,25,76,139,207,221,224,173,116,34,-47,-108,-151,-180,-192,-177,-157,-151,-153,-161,-161,-146,-120,-101,-93,-60,-29,-29,0,16
2018-05-16,16:30:30.471,26,30,58,30,42,80,79,71,60,69,85,116,129,0,-518,-679,961,2934,2622,1532,413,-49,-232,-422,-521,-501,-507,-539,-466,-356,-336,-411,-371,-303,-268,-238,-212,-143,-118,-128,-78,0,48,83,136,193,248,345,381,462,516,422,245,87,-49,-104,-165,-221,-277,-216,-140,-159,-202,-158,-116,-111,-127,-169,-193,-188,-212,-238,-247,-246,-260,-226,-217,-190,-166,-148,-112,-134,-127,-91,-77,-67,-127,-562,-956,273,2590,2881,1862,571,-97,-316,-498,-647,-626,-589,-557,-531,-515,-509,-486,-482,-494,-468,-456,-438,-417,-403,-371,-334,-290,-237,-183,-119,-42,24,86,145,194,238,220,160,80,2
2018-05-16,16:30:31.508,-48,-83,-102,-98,-80,-98,-101,-110,-87,-52,-28,-10,14,67,70,69,88,84,96,95,76,74,168,187,98,116,213,159,32,50,109,69,80,-124,-695,-330,1765,3022,2543,1283,204,-85,-244,-501,-523,-441,-478,-500,-484,-532,-521,-469,-400,-423,-452,-413,-336,-317,-307,-253,-176,-137,-126,-57,2,41,92,124,89,100,93,22,-64,-150,-213,-218,-243,-239,-214,-206,-185,-171,-152,-149,-130,-90,-69,-49,-31,-17,6,15,12,44,40,60,75,24,54,66,56,40,-3,-6,-3,-24,-74,-365,-895,-235,2063,2797,1863,687,-33,-276,-467,-626,-638,-581,-575,-576,-494,-434,-394,-376,-347,-314
2018-05-16,16:30:32.545,-287,-290,-252,-235,-233,-216,-136,-77,-51,55,157,220,305,364,393,383,353,259,137,46,0,-14,-28,-57,-84,-143,-114,-53,-32,-83,-83,-55,30,125,99,21,-87,-81,-58,-54,10,32,49,60,56,80,78,95,78,55,55,-64,-607,-772,1014,2838,2622,1552,343,-164,-407,-601,-682,-695,-630,-557,-542,-539,-525,-533,-532,-524,-510,-496,-471,-450,-423,-383,-360,-311,-240,-161,-58,17,80,133,194,237,229,170,88,19,-62,-111,-121,-142,-147,-157,-159,-170,-178,-152,-164,-161,-149,-141,-152,-155,-145,-156,-153,-127,-132,-112,-69,-50,-15,17,26,4,-4,11,21,32,-21,-452,-861,350
2018-05-16,16:30:33.583,2850,3073,1932,563,-80,-293,-496,-642,-626,-566,-516,-462,-401,-355,-343,-342,-319,-281,-254,-240,-224,-204,-169,-131,-73,-28,59,106,150,160,186,260,282,308,282,191,131,121,-41,-118,-150,-110,-60,-55,-52,-23,-14,-11,-27,-1,17,21,78,83,64,91,87,74,104,111,147,169,187,189,155,137,115,77,65,-79,-569,-900,439,2490,2405,1537,302,-262,-417,-630,-755,-699,-644,-617,-586,-558,-530,-509,-509,-470,-423,-401,-356,-322,-319,-296,-235,-165,-110,-79,13,41,126,195,254,238,222,161,25,-86,-136,-190,-229,-245,-242,-246,-241,-224,-216,-193,-214,-206,-177,-145,-132,-99,-55,-44
2018-05-16,16:30:34.620,-44,-35,-4,27,34,73,93,76,68,71,86,93,101,48,-372,-743,466,2639,2749,1793,601,-4,-199,-381,-531,-521,-469,-448,-438,-402,-359,-435,-421,-363,-344,-294,-225,-162,-151,-193,-150,-79,-70,-8,86,175,246,339,413,430,418,366,275,172,66,36,-6,-61,-65,-69,-90,-119,-123,-87,-76,-48,-15,-24,-22,-11,3,-36,-80,-99,-109,-115,-110,-151,-167,-122,-116,-126,-138,-145,-152,-145,-159,-419,-967,-519,1689,2890,2233,955,-9,-339,-534,-709,-730,-680,-648,-585,-582,-548,-525,-513,-488,-444,-419,-422,-392,-377,-346,-299,-263,-233,-183,-116,-61,3,77,138,161,183,175,94,-4,-84
2018-05-16,16:30:35.657,-127,-158,-139,-113,-117,-103,-79,-76,-66,-51,-56,-54,-44,-11,14,40,72,68,61,72,90,101,100,89,122,152,176,194,185,207,231,197,105,-305,-733,308,2452,2773,1908,764,85,-174,-342,-484,-497,-448,-416,-384,-358,-359,-330,-295,-264,-231,-211,-181,-148,-138,-143,-142,-112,-11,71,95,169,251,310,364,367,364,292,188,87,19,-42,-136,-153,-176,-221,-249,-262,-277,-255,-242,-257,-263,-233,-206,-198,-175,-145,-125,-118,-115,-72,-63,-32,-17,-2,-9,-16,-12,-24,-47,-88,-405,-975,-296,2044,2743,1846,647,-90,-333,-520,-692,-778,-802,-763,-716,-674,-651,-608,-571,-546,-510,-503,-468
2018-05-16,16:30:36.694,-419,-375,-319,-279,-203,-119,-54,17,90,170,235,284,342,346,277,166,51,-61,-109,-105,-116,-108,-77,-64,-75,-43,-14,-10,7,46,47,49,66,95,123,119,43,15,34,51,87,146,180,189,157,110,129,135,120,132,40,-519,-803,708,2775,2854,1876,509,-123,-300,-492,-614,-588,-546,-508,-490,-477,-454,-438,-393,-354,-397,-363,-422,-365,-295,-273,-257,-229,-209,-178,-129,-76,-18,27,58,81,84,28,-45,-109,-172,-178,-188,-209,-206,-189,-178,-181,-174,-172,-135,-86,-89,-74,-71,-58,-39,-12,-27,-26,-14,-1,-11,23,60,58,49,7,23,22,1,-13,-188,-747,-689,1319,3010
2018-05-16,16:30:37.731,2365,1161,182,-169,-371,-539,-582,-550,-515,-479,-463,-416,-368,-351,-348,-350,-327,-283,-256,-239,-218,-185,-136,-87,0,81,155,217,279,336,362,375,309,202,97,4,-19,-19,-29,-36,-35,-37,-24,-57,-58,-58,-33,26,56,75,33,27,84,43,79,132,143,156,184,218,249,255,241,220,179,178,94,-409,-793,544,2630,2668,1867,573,-81,-302,-474,-648,-653,-626,-692,-701,-696,-702,-718,-713,-680,-649,-601,-568,-550,-497,-454,-403,-337,-255,-197,-105,1,77,136,210,229,203,129,41,-65,-136,-162,-177,-189,-194,-200,-201,-198,-186,-191,-184,-180,-178,-166,-167,-168,-135,-142,-135,-114,-92
2018-05-16,16:30:51.433,154,137,68,-8,-70,-119,-185,-206,-174,-156,-150,-139,-113,-84,-101,-118,-121,-114,-106,-73,-47,-29,27,63,143,181,139,123,181,181,205,239,207,196,180,116,-177,-679,-290,1844,3031,2303,1029,98,-120,-283,-550,-581,-552,-516,-500,-677,-451,-313,-181,-90,-115,-146,-207,-187,-100,-36,-94,-113,-78,-43,13,39,52,52,43,48,-3,-95,-169,-236,-276,-281,-288,-237,-178,-178,-160,-137,-127,-135,-128,-112,-88,-58,-74,-72,-43,-1,29,69,79,79,99,66,52,41,59,12,-15,-88,-509,-1001,142,2583,2885,1747,511,-63,-245,-442,-576,-588,-581,-558,-526,-522,-533,-506,-446,-405,-352,-290
2018-05-16,16:30:52.918,-223,-181,-158,-117,-57,7,97,227,308,267,300,368,347,316,237,164,161,-1,-96,-2,-4,6,57,-5,-20,-32,-26,-12,-69,-33,70,63,90,167,156,157,156,108,50,52,47,5,-75,-141,-209,-277,-304,-476,-1100,-993,1132,2675,2121,992,-37,-383,-532,-731,-808,-773,-703,-655,-634,-591,-562,-536,-462,-422,-419,-389,-359,-343,-310,-270,-242,-182,-145,-113,-26,39,96,124,150,130,62,-16,-90,-150,-138,-122,-118,-70,-41,-78,-102,-97,-111,-113,-103,-102,-68,-30,0,40,48,49,88,146,144,158,185,159,88,90,163,132,95,86,-405,-712,785,2754,2621,1529,383,-71,-229,-447
2018-05-16,16:30:53.955,-541,-432,-440,-476,-397,-322,-383,-286,-164,-213,-190,-176,-151,-99,-60,-82,-100,-93,-59,-13,-5,12,37,67,80,37,-47,-125,-181,-237,-237,-185,-138,-153,-133,-104,-119,-148,-168,-122,-135,-138,-124,-129,-102,-88,-51,-22,-54,-49,-5,21,19,3,-10,-11,14,-22,-156,-713,-876,886,2952,2632,1407,315,-139,-333,-517,-649,-626,-586,-561,-527,-555,-516,-406,-324,-267,-242,-175,-102,-97,-99,-44,38,116,198,241,210,278,327,412,497,420,228,142,85,11,-14,-96,-61,28,65,4,2,18,11,42,78,93,65,50,43,-21,8,166,197,181,160,76,30,-7,-70,-125,-158,-226,-564
2018-05-16,16:30:54.992,-1203,-421,1975,2565,1785,507,-270,-498,-701,-884,-882,-825,-759,-722,-685,-629,-621,-590,-558,-542,-550,-492,-423,-402,-422,-340,-274,-230,-205,-146,-36,25,99,134,131,67,-1,-101,-144,-148,-117,-87,-100,-120,-95,-70,-53,-52,-82,-89,-69,-53,-2,73,138,158,167,190,197,193,222,231,229,198,166,135,131,142,34,-648,-752,1051,2875,2729,1691,506,-40,-234,-379,-461,-487,-471,-501,-481,-249,-197,-87,8,-95,-93,-62,-80,-109,-177,-187,-188,-189,-123,-78,-41,7,25,27,56,-11,-91,-134,-216,-248,-230,-198,-221,-204,-171,-155,-165,-167,-155,-158,-131,-128,-150,-119,-93,-78,-81,-75,-48
2018-05-16,16:30:56.029,-31,-19,7,-23,-26,-49,-46,-5,-117,-668,-950,669,2956,2859,1613,416,-142,-358,-533,-673,-675,-677,-650,-624,-592,-517,-440,-374,-326,-294,-253,-218,-172,-126,-34,91,77,84,121,246,378,342,341,402,349,338,311,170,-45,-103,-16,42,-13,0,24,15,3,-37,-105,-56,35,79,23,34,140,188,167,62,-36,7,-29,-76,-144,-197,-218,-262,-352,-830,-1286,48,2373,2478,1493,278,-303,-530,-737,-815,-762,-721,-652,-591,-555,-530,-503,-456,-428,-388,-376,-366,-362,-305,-250,-226,-203,-128,-44,13,78,105,148,216,209,86,-11,-34,-68,-73,-95,-109,-88,-79,-96,-96,-90,-99,-91,-37
2018-05-16,16:30:57.067,-6,22,63,64,93,203,233,157,132,68,95,198,320,173,-22,1,22,-9,-352,-815,177,2399,2860,2088,832,80,-209,-389,-532,-443,-309,-297,-301,-277,-260,-272,-238,-168,-154,-74,-68,-95,-149,-212,-237,-209,-212,-178,-104,-71,-54,-11,2,-7,-90,-196,-233,-278,-284,-280,-256,-229,-228,-188,-169,-182,-227,-172,-132,-117,-145,-110,-79,-85,-56,-3,35,33,34,-4,29,26,-1,-17,17,-6,-419,-958,-42,2417,3006,1970,700,7,-212,-414,-582,-620,-618,-607,-584,-561,-510,-459,-382,-331,-323,-292,-239,-212,-189,-114,3,11,15,88,99,250,288,287,356,329,274,203,91,40,12,-14
2018-05-16,16:30:58.104,-52,-130,-159,-121,129,291,233,144,82,58,70,1,-21,83,117,163,125,62,18,0,-61,-122,-166,-200,-249,-356,-712,-1278,-404,2049,2651,1789,503,-230,-473,-644,-787,-785,-721,-642,-606,-587,-542,-522,-494,-481,-431,-384,-358,-343,-277,-269,-252,-209,-175,-80,-17,16,126,234,254,226,157,77,-2,-62,-66,-80,-129,-111,-104,-117,-156,-166,-167,-143,-99,-74,-33,32,77,52,46,113,177,55,84,207,81,65,123,221,241,125,-65,-359,-823,-58,2314,3025,2261,994,177,-53,-273,-442,-437,-373,-331,-298,-252,-299,-292,-242,-198,-114,-78,-154,-202,-212,-190,-151,-119,-121,-98,-55,-36,-17
2018-05-16,16:30:59.141,36,65,7,-56,-105,-182,-223,-238,-203,-197,-199,-192,-171,-192,-201,-157,-158,-179,-174,-157,-151,-149,-117,-54,-51,-87,-44,-30,3,1,-47,-33,16,9,-110,-604,-954,442,2811,2888,1686,435,-143,-329,-524,-661,-649,-637,-612,-581,-567,-505,-478,-421,-367,-310,-312,-281,-186,-112,-73,-28,103,171,174,249,343,404,418,332,230,222,225,71,6,106,-25,-129,-41,79,-13,-44,-34,-65,-141,-113,-78,-92,28,193,155,119,147,119,121,58,52,45,49,-20,-78,-132,-203,-496,-1172,-694,1568,2571,1974,727,-188,-490,-679,-848,-848,-804,-766,-702,-674,-629,-606,-566,-499,-466,-460,-380,-348,-339
2018-05-16,16:31:00.178,-297,-236,-183,-102,-53,-25,54,133,180,215,231,172,78,-2,-54,-111,-104,-86,-88,-83,-82,-97,-82,-65,-50,-76,-58,-36,-30,7,69,95,88,153,241,282,196,234,254,183,139,186,195,238,27,-582,-740,935,2914,2750,1587,362,-60,-148,-306,-487,-493,-460,-395,-320,-336,-304,-201,-158,-202,-224,-139,-156,-147,-148,-181,-98,-34,-54,14,34,34,53,36,1,-28,-126,-235,-288,-321,-404,-402,-308,-276,-272,-247,-228,-212,-170,-175,-165,-111,-93,-122,-114,-122,-61,-22,12,23,49,64,33,12,-7,-4,13,-73,-502,-991,104,2559,2954,1836,555,-53,-235,-441,-613,-615,-565,-541,-541
2018-05-16,16:31:01.215,-523,-501,-472,-438,-382,-355,-343,-234,-86,-18,-11,-82,-86,43,189,264,193,302,424,311,62,26,-7,-42,-82,-35,12,-140,-175,-91,-108,-114,-86,-68,-26,64,45,31,1,45,10,59,181,125,93,61,73,26,3,-41,-104,-170,-220,-277,-587,-1192,-602,1716,2694,2050,774,-120,-407,-608,-756,-779,-735,-670,-612,-583,-563,-508,-455,-442,-416,-395,-356,-307,-317,-275,-229,-170,-107,-60,-15,47,103,172,257,218,151,76,6,-79,-104,-99,-84,-88,-88,-81,-93,-120,-146,-109,-73,-39,-2,33,74,103,137,152,196,294,249,127,220,283,270,296,327,210,127,108,-160,-710,-111,2299
2018-05-16,16:31:02.253,3153,2331,988,123,-69,-138,-363,-446,-409,-375,-358,-333,-312,-272,-239,-213,-274,-276,-206,-149,-130,-153,-195,-161,-121,-90,-73,-19,0,55,85,40,-40,-140,-202,-238,-270,-272,-272,-245,-224,-219,-226,-223,-233,-226,-213,-189,-185,-180,-172,-191,-158,-169,-153,-146,-133,-96,-105,-127,-111,-134,-134,-95,-98,-323,-921,-597,1718,3189,2463,1103,91,-241,-434,-634,-699,-669,-636,-582,-542,-474,-423,-364,-302,-277,-228,-186,-214,-261,-180,-85,-98,3,195,236,131,120,177,273,309,272,195,137,9,-109,-274,-167,-5,2,35,5,17,39,10,-19,-78,-93,61,135,91,134,48,-47,-53,-73,-111,-101
2018-05-16,16:31:03.290,-174,-228,-281,-267,-252,-269,-263,-444,-1023,-843,1237,2749,2277,1065,36,-311,-472,-637,-674,-645,-611,-544,-519,-500,-466,-450,-397,-418,-422,-390,-396,-380,-302,-255,-233,-164,-74,-2,68,143,237,258,242,209,141,68,22,-22,-55,-44,-34,-49,-69,-62,-64,-41,15,66,103,110,127,182,191,187,229,235,219,102,162,273,337,225,214,309,318,205,261,124,-610,-479,1603,3014,2511,1378,361,-12,-240,-475,-486,-357,-314,-308,-356,-335,-396,-389,-263,-239,-354,-362,-288,-275,-300,-320,-296,-239,-205,-147,-90,-35,21,66,64,10,-85,-159,-186,-230,-261,-269,-260,-240,-239,-232,-230,-230,-222,-191
2018-05-16,16:31:04.327,-205,-209,-205,-195,-192,-222,-220,-178,-180,-202,-164,-123,-141,-152,-81,-72,-89,-79,-183,-691,-949,656,2951,2874,1717,388,-181,-412,-626,-707,-665,-612,-551,-476,-432,-415,-344,-318,-277,-227,-165,-107,-172,-266,-247,-107,-56,-25,-30,23,164,347,380,322,314,223,39,-42,-35,11,16,-17,17,34,51,26,-20,47,89,100,83,99,95,47,49,38,14,83,94,45,20,-42,-100,-167,-194,-181,-200,-225,-321,-781,-1003,484,2480,2442,1468,307,-222,-424,-621,-686,-629,-608,-602,-542,-495,-494,-440,-409,-393,-374,-350,-308,-281,-272,-220,-151,-103,-66,-4,84,142,162,205,200,161,108,14,-39
2018-05-16,16:31:05.364,-70,-97,-103,-106,-124,-117,-124,-138,-111,-54,-33,-22,0,36,85,80,84,136,164,169,275,238,290,355,329,141,-77,22,134,157,-89,-661,-197,2013,2985,2246,1124,324,-29,-273,-401,-395,-382,-332,-279,-231,-239,-264,-276,-232,-175,-251,-231,-207,-230,-248,-244,-220,-181,-146,-108,-86,-67,-53,-63,-86,-146,-219,-288,-328,-321,-299,-299,-283,-257,-239,-225,-230,-234,-204,-178,-194,-166,-156,-150,-155,-166,-127,-91,-78,-80,-63,-70,-80,-81,-82,-100,-95,-106,-445,-1035,-332,2263,3209,2251,778,-66,-340,-549,-720,-745,-709,-652,-605,-544,-488,-407,-350,-328,-298,-218,-149,-143,-160,-93,-20,-61,-9
2018-05-16,16:31:06.401,36,172,265,334,279,198,230,167,59,85,46,-23,32,46,66,62,34,15,-45,22,126,123,110,81,75,143,115,106,192,146,103,107,123,82,10,-70,-125,-160,-185,-219,-428,-939,-760,1080,2372,1984,946,-31,-356,-517,-667,-674,-613,-615,-585,-533,-494,-484,-467,-437,-394,-366,-329,-270,-248,-271,-192,-92,-54,0,99,160,174,234,258,202,127,67,15,-41,-31,1,-4,-15,-25,-54,-65,-87,-69,-56,-67,16,85,84,127,160,157,169,157,206,237,211,154,182,223,131,-5,96,109,-386,-751,602,2746,2629,1654,612,119,-13,-218,-392,-418,-385,-399,-341,-291,-476,-410,-142
2018-05-16,16:31:07.439,-246,-362,-194,-87,-172,-280,-265,-237,-225,-221,-262,-237,-182,-168,-160,-172,-200,-284,-359,-406,-434,-402,-385,-378,-357,-336,-312,-312,-308,-260,-215,-216,-201,-159,-142,-152,-183,-132,-73,-81,-79,-30,-21,-35,-46,-47,-57,-7,-15,-405,-989,-85,2579,3259,2192,746,-67,-327,-520,-715,-731,-691,-650,-593,-521,-445,-368,-295,-244,-201,-151,-186,-147,-52,-47,-95,-25,90,192,184,220,262,400,371,241,137,90,22,3,-59,-116,21,51,-26,10,30,48,92,112,125,152,118,80,101,240,267,346,326,226,140,104,58,-39,-134,-225,-251,-331,-578,-1115,-768,1268,2420,1914,819,-120,-407,-564,-738
2018-05-16,16:31:08.476,-751,-719,-662,-623,-569,-508,-476,-466,-466,-377,-341,-341,-307,-255,-230,-179,-126,-59,6,98,156,181,236,259,147,89,12,-82,-106,-90,-125,-97,-65,-86,-76,-70,-68,-73,-105,-156,-154,-148,-120,-57,0,59,117,182,225,236,195,125,149,169,161,270,365,-55,-792,-261,2115,2960,2161,1000,214,0,-243,-455,-500,-438,-426,-452,-549,-480,-400,-330,-291,-305,-252,-251,-276,-225,-215,-165,-136,-75,21,52,109,178,233,207,101,-40,-187,-256,-328,-396,-405,-385,-341,-322,-260,-230,-222,-190,-147,-100,-62,-52,-48,-52,-41,-17,27,57,68,61,105,114,78,85,32,9,-11,-132,-643,-921
2018-05-16,16:31:09.513,818,2948,2699,1514,285,-248,-453,-632,-710,-645,-598,-594,-578,-578,-551,-505,-483,-482,-455,-386,-300,-233,-151,-56,-34,74,135,211,257,283,333,420,461,357,56,-104,-185,-115,-68,-17,-80,-93,-61,-87,-95,-133,-89,-91,-113,-30,-16,-2,57,5,65,164,168,275,214,242,356,400,396,343,257,194,-97,-762,-470,1568,2604,2053,917,-60,-379,-571,-746,-778,-742,-680,-659,-652,-607,-507,-515,-494,-433,-395,-333,-316,-294,-238,-192,-157,-58,10,78,148,172,209,233,138,41,-51,-102,-161,-211,-223,-219,-229,-225,-184,-166,-164,-128,-89,-45,-25,-16,5,17,6,-11,-13,-9,-2,23,113
2018-05-16,16:31:10.550,114,185,309,249,129,131,134,-247,-801,180,2600,3044,1995,768,-65,-304,-441,-566,-571,-494,-407,-411,-506,-554,-485,-474,-414,-323,-306,-315,-237,-273,-280,-213,-75,86,160,199,272,379,310,289,243,124,-20,-125,-221,-295,-354,-379,-370,-385,-395,-390,-393,-353,-330,-307,-257,-209,-189,-151,-128,-121,-97,-12,16,32,80,61,67,76,69,62,9,31,-87,-561,-913,504,2692,2715,1605,375,-190,-401,-583,-677,-700,-653,-618,-615,-588,-567,-549,-516,-487,-474,-463,-427,-370,-295,-219,-154,-3,150,196,298,457,466,434,459,353,229,195,82,26,115,-16,-247,-142,-123,-102,-14,-1,23,10,166
2018-05-16,16:31:11.587,155,91,58,91,143,142,112,121,238,393,381,315,215,221,215,170,158,109,-349,-882,186,2448,2682,1735,374,-355,-575,-785,-931,-918,-862,-807,-759,-718,-653,-609,-559,-510,-456,-412,-385,-367,-290,-239,-199,-132,-37,49,147,201,239,283,246,180,55,-33,-119,-179,-230,-243,-199,-183,-194,-207,-184,-182,-178,-163,-152,-155,-131,-139,-150,-139,-133,-132,-137,-128,-61,14,48,96,143,165,183,161,14,-494,-743,774,2835,2864,1878,629,60,-241,-558,-604,-648,-606,-520,-451,-377,-470,-508,-375,-403,-374,-213,-178,-206,-231,-120,-11,-10,52,196,291,381,410,447,507,395,245,124,48,-13,-70
2018-05-16,16:31:12.625,-136,-180,-227,-275,-292,-308,-330,-308,-297,-274,-242,-229,-222,-220,-204,-163,-103,-61,-56,-28,3,8,6,4,-36,-12,8,-42,-372,-883,-113,2117,2747,1943,700,-58,-286,-469,-620,-622,-588,-546,-526,-525,-479,-425,-388,-373,-342,-327,-292,-271,-256,-261,-213,-135,-45,52,161,256,321,365,373,296,200,83,-16,-68,11,68,-7,-129,-56,-3,-105,-138,-51,-20,30,73,123,88,75,44,26,80,193,259,256,258,256,223,189,178,210,240,88,-443,-621,993,2696,2482,1546,307,-228,-441,-672,-817,-820,-776,-762,-748,-710,-650,-624,-595,-523,-459,-388,-325,-278,-252,-194,-123,-76,19,87,167
2018-05-16,16:31:13.662,182,227,229,182,143,-15,-115,-167,-225,-237,-244,-251,-235,-270,-258,-220,-219,-229,-223,-209,-200,-162,-151,-125,-91,-39,-28,-29,8,33,-1,-35,-38,-15,15,44,9,-394,-811,352,2554,2882,2112,812,72,-160,-372,-478,-478,-452,-441,-629,-604,-529,-508,-440,-381,-285,-169,-160,-321,-322,-158,-97,-73,19,122,227,278,325,381,407,259,129,112,61,12,-41,-55,-85,-102,-152,-197,-250,-288,-313,-371,-374,-319,-312,-307,-265,-246,-222,-162,-102,-77,1,15,-5,4,-16,-17,16,44,-10,-470,-921,341,2649,2865,1747,463,-174,-373,-563,-701,-716,-666,-628,-615,-574,-528,-553,-562,-507,-425,-398
2018-05-16,16:31:14.699,-346,-258,-231,-200,-133,-75,-32,71,127,166,189,236,276,285,227,205,246,214,200,168,132,173,171,89,46,22,-33,-31,-1,56,215,165,0,77,110,111,86,167,92,-26,133,468,545,434,345,250,45,-551,-556,1338,2779,2421,1492,362,-37,-252,-513,-667,-691,-703,-700,-680,-690,-653,-635,-631,-635,-614,-571,-511,-454,-372,-302,-230,-137,-49,19,98,207,237,262,241,100,3,-86,-101,-157,-167,-185,-216,-202,-189,-208,-212,-202,-207,-222,-268,-273,-263,-223,-212,-143,-59,-24,26,38,12,16,-13,-26,6,28,-34,-309,-882,-428,1865,3114,2583,1326,287,-102,-383,-596,-658,-546,-459
2018-05-16,16:31:15.736,-555,-648,-466,-390,-556,-572,-475,-430,-411,-370,-354,-286,-195,-106,-81,-24,68,184,262,384,434,380,307,184,111,83,64,38,42,71,-31,-75,-85,-141,-195,-260,-304,-344,-351,-352,-354,-363,-336,-269,-247,-202,-121,-58,-2,77,12,25,33,79,36,-497,-743,880,2959,2879,1783,535,-39,-261,-479,-587,-577,-556,-523,-497,-496,-494,-464,-464,-451,-461,-388,-351,-360,-309,-259,-193,-144,-111,-45,37,116,154,187,187,135,61,33,28,33,88,108,108,79,19,9,9,16,38,80,34,6,3,-56,-44,-43,48,163,221,249,154,68,127,221,191,226,261,229,28,-644,-559,1473,2998
2018-05-16,16:31:16.773,2774,1750,321,-167,-245,-391,-524,-562,-608,-604,-635,-651,-684,-720,-698,-694,-695,-631,-613,-537,-467,-430,-338,-242,-141,-38,44,140,184,178,134,86,-4,-47,-85,-129,-131,-145,-150,-111,-102,-143,-146,-177,-200,-183,-197,-189,-184,-214,-206,-157,-113,-119,-46,47,36,66,58,35,33,41,-19,-435,-906,124,2466,2862,2040,850,121,-133,-291,-405,-385,-408,-383,-416,-374,-236,-324,-389,-336,-326,-504,-425,-236,-112,-73,-164,-121,-96,6,138,244,341,347,341,237,104,49,-31,-139,72,178,130,55,16,35,-1,-130,-154,-165,-141,-206,-268,-308,-341,-381,-363,-321,-305,-258,-232,-229,-160,-142,-122
2018-05-16,16:31:17.811,-96,-37,-74,-461,-983,-42,2340,2932,2085,740,-85,-333,-457,-581,-575,-551,-558,-529,-495,-514,-537,-497,-492,-508,-445,-386,-398,-372,-300,-286,-222,-144,-83,-10,81,143,166,168,134,33,-27,-72,-99,-102,-77,0,46,59,36,84,121,138,178,204,238,260,240,54,22,232,192,-124,-84,102,217,256,180,151,304,333,179,-344,-598,954,2913,2734,1836,727,239,-37,-286,-426,-444,-491,-509,-412,-385,-442,-377,-348,-399,-451,-491,-500,-487,-468,-467,-406,-348,-302,-199,-96,-15,21,74,58,-15,-94,-142,-177,-183,-196,-192,-176,-181,-210,-171,-117,-113,-156,-134,-133,-158,-154,-193,-214,-133,-128
2018-05-16,16:31:18.848,-125,-55,-48,-78,-76,-92,-96,-78,-101,-356,-962,-486,1911,3219,2498,1090,35,-339,-543,-720,-748,-687,-614,-561,-503,-459,-399,-318,-317,-270,-233,-250,-243,-194,-104,-26,-11,-15,-15,-8,131,255,291,379,436,232,128,101,-67,-142,-81,10,97,145,209,221,154,124,171,128,-10,-29,124,174,138,96,74,70,58,2,-59,-117,-136,-173,-219,-274,-542,-1112,-468,1894,2743,2014,772,-110,-400,-571,-732,-761,-728,-685,-667,-609,-580,-533,-489,-462,-418,-398,-397,-417,-380,-312,-254,-218,-124,-38,14,83,138,172,187,101,-12,-77,-77,-58,-55,-90,-111,-97,-98,-107,-98,-100,-52,-21,-9,15
2018-05-16,16:31:19.885,23,192,265,181,225,246,208,218,242,227,275,238,221,348,182,-207,-809,-306,1958,3066,2408,1180,266,-60,-235,-335,-463,-502,-441,-405,-438,-416,-499,-496,-336,-382,-298,-93,-110,-87,-109,-108,-93,-34,9,32,71,105,108,93,-4,-129,-251,-303,-316,-301,-299,-303,-234,-200,-200,-188,-156,-145,-121,-125,-122,-120,-109,-58,-10,21,9,25,32,41,-36,-42,-78,-49,-75,-277,-907,-961,1069,2969,2561,1187,60,-362,-553,-762,-833,-783,-729,-696,-690,-673,-685,-641,-592,-539,-444,-387,-298,-213,-140,-94,30,204,261,273,299,316,288,333,296,203,147,-94,-145,-196,-161,-100,-56,86,144,-11
2018-05-16,16:31:20.922,61,153,147,-6,-4,72,50,75,264,357,331,307,301,375,367,267,254,157,111,65,-250,-908,-484,1701,2632,1983,663,-313,-619,-798,-955,-978,-894,-829,-761,-715,-653,-613,-579,-548,-503,-487,-440,-370,-321,-240,-189,-139,-65,42,103,180,198,161,112,75,15,-50,-69,-112,-119,-133,-128,-144,-137,-147,-108,-53,-29,-54,-47,-33,-33,-31,0,30,33,85,153,231,250,279,235,266,270,305,212,-388,-707,920,3049,2846,1772,539,-127,-327,-407,-460,-423,-421,-330,-265,-293,-292,-259,-268,-237,-171,-184,-204,-144,-23,-3,-45,-44,83,239,317,442,526,459,253,89,-68,-202,-313,-384,-447
2018-05-16,16:31:21.959,-490,-529,-529,-482,-504,-538,-440,-471,-436,-377,-323,-272,-222,-152,-103,-60,-4,7,37,43,31,69,87,90,-30,-551,-884,666,2834,2701,1556,299,-271,-527,-740,-840,-857,-831,-812,-788,-715,-695,-659,-557,-475,-431,-432,-410,-374,-328,-283,-240,-139,-35,85,186,280,356,407,386,276,157,75,71,52,-36,-14,31,-48,-175,-141,-203,-194,-148,-72,31,11,54,41,-21,-10,35,80,140,151,131,205,310,300,249,158,-290,-802,226,2385,2962,2436,996,39,-296,-539,-694,-753,-762,-785,-771,-757,-746,-733,-680,-624,-570,-528,-524,-453,-369,-289,-203,-118,-46,5,79,152,196,245,214,147,68
2018-05-16,16:31:22.997,-17,-65,-51,-65,-111,-79,-76,-99,-90,-122,-172,-185,-171,-201,-224,-177,-122,-69,-7,70,130,137,160,129,121,99,75,50,-100,-620,-380,1634,2850,2360,1368,422,66,-70,-222,-390,-501,-471,-385,-293,-227,-342,-238,-289,-466,-382,-232,-182,-166,-109,-11,48,88,164,208,236,311,323,207,120,225,175,89,-20,-30,-47,-76,-68,-88,-126,-183,-241,-257,-290,-332,-385,-400,-357,-332,-342,-299,-261,-174,-217,-245,-223,-167,-119,-112,-354,-883,-526,1576,2689,2019,879,76,-183,-351,-492,-534,-513,-466,-425,-415,-440,-458,-438,-368,-363,-373,-320,-258,-217,-194,-112,-50,14,139,221,254,275,278,259
2018-05-16,16:31:24.034,160,39,-131,-185,-151,-125,-86,-8,8,23,75,95,58,113,135,85,70,78,169,172,229,241,109,69,159,192,197,237,230,-76,-667,63,2350,2892,2143,978,213,-87,-306,-376,-348,-370,-412,-448,-472,-389,-283,-325,-317,-334,-370,-443,-419,-422,-413,-388,-363,-338,-275,-198,-164,-118,-62,-89,-192,-273,-330,-344,-389,-412,-380,-371,-322,-278,-242,-213,-206,-197,-209,-170,-141,-123,-97,-65,-19,-10,-24,-10,-44,-41,-34,-55,-51,-397,-943,-37,2411,3165,2212,773,-10,-290,-519,-651,-648,-648,-628,-597,-567,-528,-477,-431,-390,-255,-152,-101,-98,-76,-30,19,91,189,225,227,333,301,230,137
2018-05-16,16:31:25.071,10,-32,-27,-35,-19,-3,-26,-86,-28,-9,-21,-58,-35,3,26,-7,-104,-34,123,213,277,255,329,295,238,209,192,137,96,-254,-907,-321,1811,2450,1863,617,-255,-517,-689,-809,-781,-730,-729,-688,-594,-556,-519,-477,-416,-372,-318,-284,-241,-212,-164,-90,-7,56,137,208,228,261,262,207,116,12,-79,-120,-164,-173,-166,-147,-143,-149,-155,-126,-122,-132,-145,-75,-33,0,38,33,22,31,28,24,27,79,113,139,98,-343,-734,583,2865,2976,1944,723,54,-244,-386,-447,-511,-652,-586,-532,-471,-350,-394,-404,-377,-339,-261,-236,-194,-174,-174,-72,65,190,233,278,422,467,267,316
2018-05-16,16:31:26.108,280,85,7,30,-69,-147,-197,-261,-297,-356,-412,-468,-478,-489,-519,-521,-481,-441,-359,-290,-241,-192,-137,-91,-78,-28,3,-8,22,-298,-976,-170,2230,3057,2076,824,39,-246,-453,-621,-654,-615,-630,-624,-593,-603,-596,-553,-537,-529,-468,-446,-421,-328,-246,-186,-131,-61,27,102,155,200,196,156,100,63,36,14,21,35,53,12,2,-1,-27,-8,42,43,44,20,33,-78,-34,131,238,225,192,244,261,253,303,306,314,318,-61,-598,290,2384,2850,2477,1190,327,115,-142,-307,-382,-369,-357,-322,-417,-474,-469,-400,-414,-496,-533,-519,-528,-520,-471,-429,-349,-245,-109,-35,2,102,147
2018-05-16,16:31:27.145,103,8,-53,-121,-152,-172,-168,-161,-131,-157,-132,-153,-160,-115,-169,-219,-149,-141,-120,-71,-82,-43,-40,-35,-30,-82,-78,-93,-81,-139,-623,-921,632,2911,2817,1593,387,-149,-354,-590,-751,-735,-674,-639,-595,-547,-481,-422,-379,-369,-294,-201,-87,-109,-251,-130,-47,28,174,276,326,268,279,291,243,163,71,15,41,13,24,22,0,25,-10,-27,-30,-54,-36,30,102,73,42,14,24,62,121,137,123,141,37,26,58,-50,-340,-965,-746,1292,2531,2002,791,-249,-601,-736,-845,-851,-795,-726,-675,-632,-630,-574,-504,-454,-405,-378,-344,-307,-249,-193,-140,-87,17,71,86,132,180,195
2018-05-16,16:31:28.183,159,94,-40,-80,-128,-172,-181,-187,-192,-175,-168,-169,-138,-127,-122,-121,-113,-90,-46,-19,19,25,18,84,134,155,138,123,204,255,237,148,-350,-566,1039,2917,2813,1784,565,83,-195,-401,-471,-452,-402,-420,-370,-321,-287,-215,-169,-225,-244,-191,-192,-196,-73,3,38,196,359,325,353,438,445,427,401,228,62,-10,-26,-89,-189,-271,-311,-350,-385,-407,-420,-458,-437,-390,-367,-327,-269,-199,-161,-130,-91,-66,-49,-71,-83,-61,-55,-90,-406,-979,-340,2042,2878,2029,735,-126,-389,-574,-781,-787,-756,-789,-735,-721,-732,-701,-629,-622,-595,-541,-516,-453,-364,-293,-206,-124,-82,9,91,165
2018-05-16,16:31:29.220,183,222,206,128,50,14,-38,-23,-9,-3,20,9,-5,39,-15,-123,-31,7,-87,-213,-154,-95,-71,91,168,86,84,189,187,105,125,126,151,214,-177,-694,310,2430,2982,2405,1009,78,-186,-286,-453,-517,-515,-460,-464,-517,-552,-584,-627,-670,-672,-655,-625,-583,-528,-485,-398,-286,-213,-144,-60,15,73,118,103,27,-71,-100,-78,-85,-98,-130,-136,-98,-88,-125,-98,-78,-123,-125,-96,-71,-72,-52,-21,2,37,47,40,25,35,40,39,64,81,81,-250,-868,-52,2394,2778,1784,600,-72,-243,-403,-492,-461,-393,-336,-340,-360,-295,-246,-196,-153,-128,-74,-84,-27,24,-7,-12,5
2018-05-16,16:31:30.257,166,312,383,503,538,532,380,276,211,128,107,15,-93,-37,58,124,141,89,7,-14,10,-51,35,-31,-55,-104,-117,-109,-66,-99,-165,-220,-264,-277,-277,-305,-320,-408,-939,-1064,715,2664,2432,1318,167,-290,-479,-664,-734,-719,-677,-598,-574,-531,-506,-502,-509,-495,-466,-440,-434,-380,-342,-312,-283,-218,-143,-40,35,86,107,109,29,-35,-128,-182,-186,-186,-185,-172,-141,-170,-195,-207,-211,-171,-136,-117,-68,-20,40,82,111,146,137,121,126,171,226,228,189,151,120,136,80,-450,-672,1015,2797,2626,1695,443,-131,-340,-500,-543,-487,-440,-418,-435,-378,-312,-303,-218,-186,-220,-186,-145
2018-05-16,16:31:37.743,-334,-303,-283,-183,-48,17,77,161,239,295,298,233,111,25,-49,-123,-125,-108,-106,-101,-82,-68,-58,30,79,27,49,81,115,92,86,92,130,167,211,265,300,174,67,161,277,254,33,-461,-668,687,2593,2550,1794,630,88,-91,-293,-407,-355,-326,-315,-262,-238,-219,-216,-209,-224,-246,-257,-266,-287,-308,-295,-297,-296,-223,-134,-83,-28,-12,-25,-49,-148,-228,-225,-226,-237,-212,-190,-165,-134,-111,-112,-107,-97,-120,-117,-120,-113,-121,-101,-62,-63,-46,0,4,-22,-75,-65,-83,-122,-256,-755,-955,575,2445,2395,1513,325,-237,-485,-724,-848,-870,-865,-848,-812,-730,-657,-611,-521,-408
2018-05-16,16:31:38.781,-320,-256,-170,-139,-114,-64,-18,43,90,196,303,358,350,372,334,144,6,21,9,-45,-33,-13,-22,11,-75,-131,-65,-25,-35,-32,0,-5,-6,29,113,128,69,59,113,144,174,83,93,80,87,-44,-561,-672,935,2415,2197,1273,71,-366,-536,-708,-765,-739,-638,-570,-540,-520,-514,-472,-431,-422,-406,-380,-310,-272,-230,-203,-120,-40,13,105,151,165,199,164,80,1,-42,-87,-129,-133,-105,-103,-180,-198,-164,-120,-149,-125,-54,-7,32,59,41,40,69,66,72,94,97,114,91,97,133,168,96,-412,-619,995,2824,2629,1706,630,176,-17,-311,-494,-480,-365,-312,-385,-427,-402
2018-05-16,16:31:39.818,-345,-253,-66,80,-78,-127,-137,-104,-88,-100,22,256,250,314,495,469,310,192,65,-103,-223,-243,-274,-330,-343,-332,-415,-458,-440,-445,-488,-469,-415,-379,-333,-284,-244,-208,-186,-155,-102,-87,-74,-61,-73,-44,-69,-119,-524,-1014,110,2546,2741,1782,520,-103,-365,-596,-678,-653,-675,-603,-537,-503,-448,-402,-378,-377,-399,-390,-366,-339,-342,-257,-175,-107,117,303,192,190,581,919,685,287,226,154,-129,-24,321,326,437,361,68,84,-108,-121,161,178,8,90,61,-84,-76,38,-37,-229,-116,150,180,131,-112,-327,-289,-479,-1036,-510,1560,2292,1730,624,-60,-319,-647,-870,-853,-742,-688,-716
2018-05-16,16:31:40.744,-624,-631,-575,-457,-424,-492,-432,-382,-403,-272,-216,-155,-29,95,95,150,297,306,355,262,87,16,-17,-39,-83,-103,35,-23,-134,-170,-61,90,150,23,31,36,132,53,-103,-45,191,158,216,338,209,339,473,261,253,395,-211,-802,945,3050,2564,1635,631,83,-288,-645,-712,-792,-759,-926,-1034,-650,-148,-664,-753,-417,-520,-662,-419,-277,-199,22,-2,-200,-198,-89,20,66,85,25,-36,-132,-210,-261,-264,-256,-211,-199,-245,-170,-166,-242,-268,-171,-70,-85,-77,-64,-41,99,81,105,149,89,50,-29,9,-17,-53,-101,-655,-884,951,3217,2872,1543,456,156,81,-205,-496,-410,-564,-516
2018-05-16,16:31:41.781,-446,-558,-416,-26,47,23,-106,-116,20,-80,-234,-39,273,335,236,248,138,-56,216,-125,-28,217,297,-166,-231,-85,95,-46,-181,-316,-363,-491,-558,-407,-541,-493,-356,-359,-336,-251,-240,-282,-309,-232,-81,-47,-111,-50,-60,-232,-720,-1092,535,2951,2714,1399,268,-190,-385,-575,-786,-627,-456,-437,-492,-459,-257,-334,-475,-329,-211,65,242,66,-464,-189,-74,223,343,411,431,145,134,257,290,354,397,270,351,102,23,371,274,47,-34,14,43,63,-13,-323,-213,-99,26,90,11,392,382,340,99,-305,-64,-149,-355,-253,-627,-990,1103,3102,1881,478,-164,-372,-578,-876,-1073,-1095,-941,-711
2018-05-16,16:31:42.818,-626,-543,-381,-355,-384,-446,-433,-400,-345,-294,-196,-158,-62,1,22,191,177,259,318,264,181,12,-1,-3,-70,-89,-2,127,117,213,215,168,229,384,-13,-38,79,38,69,175,103,223,330,416,384,215,47,208,268,-200,-871,-234,1858,2564,1700,84,-897,-217,64,-801,-624,-952,-789,-409,-422,-578,-686,-824,-459,-472,-943,-835,-549,-480,-460,-411,-361,-443,-383,0,138,75,21,-75,-98,-129,-172,-288,-232,-88,-103,-118,-68,-70,-85,-51,-34,26,34,-13,63,83,147,179,279,323,338,366,452,470,412,500,440,-210,-416,1376,3052,2394,1234,290,-178,13,-184,-44,87,3,-44,-67
2018-05-16,16:31:43.855,-176,-140,-245,-497,-185,-115,-98,-497,-609,-295,-593,-455,651,766,326,158,229,61,49,311,91,-334,-275,-472,-643,-555,-550,-637,-585,-687,-662,-440,-361,-271,-291,-271,-164,-112,-109,-164,-125,-3,-33,-92,-30,-29,-5,-152,-841,-707,1844,3682,2507,987,86,-174,-341,-476,-489,-517,-379,-299,-269,-239,-142,-107,-321,-283,-49,-285,-511,-591,-411,174,403,530,556,607,539,596,429,429,377,-44,-281,103,-262,-646,-91,364,266,-170,-771,-657,-310,82,-51,-428,-361,-295,-312,-485,-342,-349,-438,-404,-339,-341,-427,-536,-453,-548,-982,-422,1753,2649,1751,529,-178,-454,-597,-656,-668,-640,-611,-579,-539,-457
2018-05-16,16:31:44.893,-420,-376,-358,-220,-130,-99,-71,-13,39,161,274,397,511,626,737,800,694,449,393,150,-373,-388,-186,-110,275,433,281,390,297,299,226,205,94,-29,93,2,24,59,-163,-352,-268,290,575,374,347,-211,-512,-790,-830,537,2614,2416,1293,58,-396,-698,-1003,-1157,-1143,-1151,-1111,-772,-635,-741,-711,-624,-688,-568,-429,-419,-445,-358,-204,-173,-63,29,83,170,261,278,219,136,84,41,-33,-68,9,68,152,139,190,247,195,217,120,-54,-365,-193,246,409,243,308,508,514,281,251,309,444,434,298,-269,-689,345,1999,2509,1428,-62,108,401,-272,-1064,-543,-300,-1152,-1271,-733,-562,-666
2018-05-16,16:31:45.930,-894,-775,-611,-710,-758,-625,-488,-541,-551,-521,-426,-153,-74,-199,-190,-103,-193,-356,-302,-242,-349,-351,-289,-264,-256,-223,-212,-264,-178,-125,-123,-83,25,70,86,225,354,437,456,445,522,594,632,599,417,-97,-481,363,2330,2486,1912,911,188,-18,203,148,50,-9,-47,-133,-198,-217,-224,-315,-577,-621,-805,-727,-216,-53,293,216,303,119,-135,19,147,116,-9,-66,-235,-259,-308,-456,-623,-607,-614,-683,-624,-419,-400,-492,-511,-430,-399,-405,-345,-240,-233,-234,-154,-89,-82,-56,79,111,66,-85,-690,-664,1648,3557,2712,1179,261,11,-163,-348,-337,-316,-329,-233,-169,-86,-130,189,-30,-535
2018-05-16,16:31:46.967,-585,-342,-77,-90,-4,-5,220,662,752,651,669,742,665,382,4,-300,-139,-392,-530,561,481,-58,-191,-231,-455,-147,-302,-328,-79,-96,-560,-356,-302,-330,-392,-485,-452,-432,-472,-528,-532,-435,-452,-1002,-855,1278,2614,1810,579,-219,-364,-468,-659,-730,-606,-592,-587,-452,-381,-369,-388,-369,-340,-224,-145,-129,-102,95,226,307,351,437,608,762,824,819,662,141,131,40,-235,-130,-77,-86,-81,205,561,484,367,287,231,139,231,144,-53,-97,11,-76,-546,13,588,-155,309,572,302,-255,-742,-558,1345,2838,2239,657,-321,-641,-858,-941,-1006,-1045,-1038,-996,-1036,-897,-662,-624,-705,-741,-705,-623
2018-05-16,16:31:48.004,-521,-439,-374,-291,-145,-64,69,210,227,260,411,362,156,87,64,17,-7,35,49,96,128,169,246,262,213,253,328,203,65,284,141,-299,-161,-111,-165,42,351,261,647,384,-379,89,2245,3048,2339,928,-208,-120,-110,-816,-865,-817,-501,-410,-343,-620,-487,-328,-550,-479,-579,-633,-484,-506,-404,-326,-350,-389,-228,-109,-81,-86,-135,-283,-471,-489,-436,-350,-387,-346,-374,-418,-371,-351,-350,-282,-272,-249,-211,-185,-136,-119,-115,-6,78,100,231,227,259,323,281,-216,-832,270,3022,3331,2071,961,327,-130,-459,-547,-776,-548,-317,-508,-557,-160,198,335,152,-48,-65,-36,-40,-145,-276,-159
2018-05-16,16:31:49.041,180,194,-1,-171,92,403,337,411,587,265,-18,-39,-140,-298,-490,-406,-356,-409,-429,-395,-357,-415,-458,-524,-515,-585,-484,-188,-131,-210,-277,-264,-245,-226,-390,-827,-888,1014,2916,2370,1068,124,-133,-273,-436,-357,-338,-367,-340,-357,-298,-209,-154,-100,15,41,35,76,115,584,821,537,252,301,153,197,376,397,231,425,474,426,119,276,436,353,285,221,230,231,80,157,-297,-1224,-987,21,610,288,52,291,-65,-264,-207,-508,-119,-34,-596,-1144,-322,2060,2063,894,-149,-623,-878,-1064,-1146,-1011,-851,-862,-910,-797,-758,-755,-643,-561,-519,-453,-322,-268,-249,-177,-69,37,113,251,318,333
2018-05-16,16:31:50.079,328,369,337,196,75,37,44,83,59,55,27,161,329,319,276,206,-9,-194,-172,57,150,115,296,473,570,378,504,537,427,39,-788,-236,2089,2473,2019,1032,202,-218,-782,-1686,-1122,-377,-462,-1197,-966,-165,-84,-496,-761,-622,-544,-640,-673,-669,-675,-600,-519,-401,-268,-180,-12,73,10,-164,-390,-495,-413,-400,-360,-279,-241,-277,-234,-174,-211,-192,-165,-118,-28,-16,0,99,232,222,140,64,99,237,294,130,-538,-390,1840,3326,2510,1249,338,279,-130,-573,-634,-621,-584,-236,39,-26,77,62,37,40,8,-88,9,106,-87,-125,166,229,429,647,282,-196,-124,997,594,-249,-118,77
2018-05-16,16:31:51.116,-380,-749,-560,-417,-626,-630,-595,-732,-867,-783,-722,-768,-613,-355,-283,-377,-395,-432,-410,-342,-227,-251,-762,-995,823,3140,2590,1329,313,-178,-226,-395,-584,-478,-360,-390,-396,-266,-203,-142,-131,-84,96,183,128,144,229,295,295,245,507,479,478,653,637,539,718,703,459,352,279,282,264,150,109,-43,-92,-49,-178,-282,-403,-131,354,-26,-155,364,95,-135,-125,-447,-340,-388,-827,-1227,-281,1824,2078,1170,43,-635,-908,-1100,-1088,-893,-784,-765,-793,-780,-763,-731,-607,-519,-451,-415,-352,-271,-238,-211,-135,42,177,230,287,428,520,463,365,240,131,113,152,114,159,130,136,186,170,147
2018-05-16,16:31:52.153,115,-34,-12,349,-23,-162,125,239,202,283,629,657,536,493,75,-430,310,2539,3362,2594,934,18,-360,-711,-680,-643,-614,0,360,-664,-530,-670,-931,-417,-163,-198,-258,-433,-667,-501,-476,-407,-361,-272,-192,-221,-197,-126,-118,-222,-371,-459,-469,-427,-440,-409,-373,-359,-351,-329,-303,-268,-233,-145,-80,-1,43,56,93,158,165,157,187,117,-375,-781,1203,3771,3292,1761,478,-1,-172,-447,-627,-757,-761,-340,-514,-498,-369,-171,10,81,134,-39,-41,105,208,256,322,362,349,349,247,217,406,496,389,-64,-533,-211,229,-215,-487,-154,-278,-602,-521,-373,-585,-583,-366,-552,-658,-673,-698,-674
2018-05-16,16:31:53.190,-588,-663,-647,-372,-195,-318,-778,-1065,443,2583,2437,1257,128,-388,-527,-612,-696,-677,-598,-511,-465,-371,-265,-400,-271,-292,-253,-242,-151,-41,107,200,318,441,516,579,641,743,717,670,326,339,342,-137,-334,-206,-53,-54,310,516,247,134,256,277,195,149,124,199,199,48,132,195,35,-349,-217,294,-206,-1019,-302,2417,3418,2343,697,-260,-666,-685,-841,-1065,-1060,-916,-992,-1072,-1035,-1071,-992,-879,-779,-629,-609,-585,-569,-461,-302,-200,-106,-3,78,160,356,331,205,57,103,59,9,-9,74,-29,-2,58,89,64,41,181,197,125,212,310,298,371,327,130,8,248,227,-177,-639,-1045
2018-05-16,16:31:54.227,179,2754,3248,2463,990,286,-100,-291,-254,-271,-582,-523,-558,-831,-621,-298,-431,-566,-289,-450,-290,-397,-537,-358,150,12,-379,-55,-198,-110,-114,-268,-321,-463,-538,-551,-649,-802,-766,-569,-492,-520,-473,-484,-486,-466,-423,-405,-302,-266,-288,-230,-159,-97,-94,-38,108,83,-332,-867,64,2886,3785,2439,805,125,57,-46,-234,-267,-182,-136,-83,67,-52,-154,-183,-486,-303,-111,-142,46,312,425,508,589,652,668,607,680,672,600,247,-82,-161,-97,-115,-27,-99,388,30,-623,-41,-61,-431,-781,-447,-267,-295,-230,-42,-135,-406,-546,-622,-595,-599,-881,-1442,-853,1687,2734,1628,469,-182,-509,-680,-753
2018-05-16,16:31:55.265,-763,-742,-636,-571,-543,-483,-412,-357,-261,-246,-207,-143,-189,-107,111,233,296,435,617,672,713,662,658,507,395,319,236,409,220,-300,-289,-220,-366,-183,50,157,169,226,334,392,343,459,476,398,311,254,125,-282,-391,-730,-1034,660,3158,3020,1445,285,-98,-891,-1370,-1226,-725,-420,-595,-956,-992,-1058,-984,-900,-934,-953,-863,-834,-874,-816,-561,-378,-362,-310,-190,-89,-62,-59,-118,-243,-247,-280,-281,-220,-202,-171,-92,-34,-65,-86,-119,5,94,59,162,204,212,280,321,299,386,422,419,415,121,-392,300,2685,2751,1775,885,386,59,-128,36,282,-16,48,174,190,192,145,182,26
2018-05-16,16:31:56.302,-191,-238,-387,-240,-376,-291,257,404,-100,-32,448,306,-38,-24,-63,-296,-294,153,-234,-559,-410,-607,-879,-777,-695,-691,-755,-681,-527,-453,-426,-372,-350,-273,-236,-258,-262,-213,-249,-757,-1033,727,3076,2740,1333,258,-176,-299,-533,-673,-571,-529,-494,-476,-383,-276,-207,-198,-132,-52,-3,55,123,264,242,290,506,382,407,379,434,526,627,617,492,342,200,415,465,423,315,193,-55,-97,-127,-375,-235,-5,101,300,62,178,108,47,127,-261,-435,-500,-1365,-1339,799,2367,1637,394,-423,-697,-929,-1174,-1208,-996,-927,-920,-853,-804,-763,-698,-685,-671,-603,-578,-542,-410,-313,-241,-161,-49,63,105
2018-05-16,16:31:57.339,194,228,240,162,44,4,-19,-16,5,89,143,108,58,74,110,237,147,169,339,100,-109,-190,88,166,254,612,701,535,407,-247,171,2430,3258,2716,1240,159,-86,-333,-705,-1123,-525,531,309,-401,-1068,-771,-400,-826,-427,-137,-237,-436,-475,-532,-366,-274,-303,-358,-272,-221,-312,-486,-485,-441,-431,-465,-479,-461,-495,-452,-378,-406,-419,-375,-318,-239,-155,-101,-54,0,34,37,65,180,180,136,-171,-789,-136,2768,3983,2627,1076,302,23,-175,-295,-352,-489,-438,-224,-448,-545,-378,-275,24,147,218,191,28,211,406,359,384,546,604,555,313,114,164,66,-66,-387,62,160,-277,-987,-700
2018-05-16,16:31:58.376,-10,91,-182,-169,-361,-587,-372,-192,-287,-367,-658,-748,-615,-568,-601,-558,-632,-1092,-963,905,2600,2150,926,-93,-342,-639,-799,-714,-694,-657,-566,-515,-504,-471,-377,-323,-294,-251,-125,-101,-112,-71,118,265,364,480,558,649,617,545,558,520,438,347,452,152,-159,-163,-36,27,10,251,490,446,347,443,466,376,400,308,258,375,88,-134,118,-258,-1218,-925,1924,3354,2723,1302,538,-152,-903,-970,-865,-960,-928,-740,-795,-1009,-1043,-976,-1056,-997,-890,-850,-819,-639,-440,-371,-250,-192,-115,4,26,33,-37,-133,-174,-152,-197,-260,-196,-113,-66,-55,-124,-175,-116,-52,-47,-10,99,145,274,308
2018-05-16,16:31:59.413,298,331,260,215,316,-139,-670,252,2452,2994,1803,519,-26,-109,-241,-236,-63,-252,-115,-16,-55,-137,-107,-71,-81,-290,-447,-316,-119,-752,98,490,115,-424,-250,189,352,395,95,-215,-84,-222,-476,-672,-747,-689,-688,-701,-764,-759,-766,-855,-826,-624,-514,-472,-312,-318,-344,-338,-319,-292,-292,-520,-1022,-384,2000,2955,1934,594,-98,-252,-477,-675,-678,-564,-427,-334,-313,-275,-220,-131,-60,-27,41,209,294,206,311,570,178,-57,301,386,595,766,778,863,792,687,542,433,400,324,66,85,41,-243,-372,-210,173,5,-210,93,82,85,-220,-421,-74,65,-228,-612,-1160,-324,2141,2472,1348,80
2018-05-16,16:32:00.451,-596,-772,-965,-1143,-1076,-949,-878,-821,-785,-758,-642,-628,-575,-461,-341,-261,-226,-143,-36,22,140,231,286,374,439,396,385,318,169,98,97,132,94,23,-19,110,120,77,74,135,150,121,454,250,-149,-191,-40,294,202,331,137,-149,-287,1490,3254,3070,1783,413,66,-84,-662,-637,-468,-713,-432,-233,-221,-484,-689,160,-312,-625,-674,-122,-564,-559,-506,-425,-386,-283,-207,-177,-223,-332,-511,-646,-597,-506,-431,-476,-493,-380,-380,-419,-469,-382,-380,-399,-302,-172,-176,-138,-31,-47,-55,-20,30,37,-136,-736,-406,2268,4083,2896,1186,297,16,-204,-399,-365,-154,-204,-364,-215,102,-412,-683,-504
2018-05-16,16:32:01.488,-221,-135,-134,249,349,323,380,406,503,405,516,856,777,83,-51,37,-414,-533,408,1162,320,-155,-355,-77,8,-569,-435,-211,-214,-234,-229,-198,-402,-476,-450,-428,-413,-502,-940,-1474,-506,1982,2686,1627,310,-342,-481,-681,-853,-785,-708,-676,-582,-552,-551,-535,-401,-305,-310,-308,-226,-86,-3,48,162,247,381,470,556,626,561,521,299,196,194,151,-18,338,8,-495,-439,-275,-237,-195,-35,386,520,317,310,401,462,440,317,344,286,57,-462,-1327,23,2167,2010,1903,649,-150,-92,-379,-436,-1067,-1000,-977,-787,-548,-620,-765,-765,-916,-921,-874,-823,-705,-649,-615,-540,-363,-248,-154,-95,-45
2018-05-16,16:32:02.525,-104,-252,-238,-181,-252,-306,-253,-238,-226,-247,-228,-177,-195,-189,-140,-113,-91,-79,17,124,144,188,252,314,298,277,-96,-589,728,2858,2657,2016,930,-178,-260,-161,-241,-32,-186,9,313,86,57,168,194,63,74,132,-76,52,-10,-364,-498,435,1000,700,1129,538,57,175,-28,-578,-453,-7,-131,-321,-378,-494,-556,-578,-633,-698,-686,-627,-595,-412,-223,-152,-143,-147,-137,-219,-241,-368,-912,-743,1475,3238,2475,1025,138,-129,-321,-544,-580,-573,-417,-376,-327,-348,-385,-283,-199,-175,-114,-49,-114,-29,79,259,276,132,243,366,550,289,90,259,171,415,489,275,225,387,245,79,43,57
2018-05-16,16:32:03.562,3,-334,-166,-365,-274,-734,-685,6,148,219,258,-72,-38,-375,-1338,-611,2300,2802,1560,331,-373,-645,-949,-1117,-1141,-1141,-1196,-1137,-1105,-1003,-768,-615,-516,-464,-436,-410,-457,-455,-258,-215,-182,-109,0,76,108,88,25,73,20,-5,23,24,15,0,-27,4,-34,28,36,-66,61,190,283,354,141,235,-99,-251,124,413,238,-53,-318,145,2233,3387,3075,1807,565,85,9,-86,-124,-425,-964,-675,-129,-330,-152,-138,-234,185,152,-455,-482,-486,-288,-11,-68,-38,261,266,4,-123,-231,-509,-733,-590,-275,-236,-277,-276,-256,-317,-417,-369,-320,-312,-225,-127,-113,-17,70,54,28,8,9,-13
2018-05-16,16:32:04.599,-6,-229,-1091,-507,2644,3774,2196,623,9,-224,-394,-539,-583,-501,-397,-327,-220,-337,-521,-307,34,-200,-313,-230,188,401,365,508,555,371,443,532,556,453,347,198,-39,-411,-429,-215,-375,-170,292,73,-285,-531,-253,-653,-418,-434,-389,-396,-361,-184,-300,-486,-387,-472,-481,-615,-1165,-924,1128,2161,1684,758,-69,-417,-650,-774,-806,-760,-718,-750,-686,-613,-570,-546,-579,-517,-356,-312,-259,-147,-47,-46,16,66,113,225,340,362,322,229,153,147,91,108,180,236,270,227,297,413,-89,-126,2,242,119,77,298,473,604,663,565,553,469,228,-134,-637,217,2253,2484,2048,851,-11,187,-357
2018-05-16,16:32:05.637,-1297,-948,130,-465,-1043,-747,-456,-370,-832,-1167,-967,-722,-660,-725,-623,-475,-380,-367,-397,-309,-173,-77,-91,-115,-114,-175,-158,-149,-167,-188,-181,-186,-178,-173,-100,12,43,29,14,12,86,222,323,288,201,239,270,237,-461,-565,1994,3908,3001,1382,363,318,286,-468,-1132,-1151,-968,-894,-851,-694,-572,-620,-371,37,84,-5,-19,34,107,230,323,25,-109,78,28,243,741,572,137,-230,-507,-308,-503,-361,258,7,-369,-539,-711,-565,-398,-423,-570,-482,-370,-363,-389,-473,-461,-331,-112,-209,-808,-849,1083,2955,2386,1054,124,-263,-455,-624,-726,-609,-541,-603,-536,-478,-556,-484,-365,-296,-317,-120
2018-05-16,16:32:06.674,-83,-49,123,301,445,515,599,856,1027,827,564,355,-62,-179,-268,-387,-247,-164,-88,-24,108,249,442,392,194,297,447,409,212,460,361,26,78,562,783,236,-250,-649,331,2426,3169,2153,82,-176,-126,-516,-738,-835,-837,-1104,-1196,-1076,-1017,-955,-915,-951,-1073,-1025,-744,-564,-477,-379,-322,-269,-114,-28,24,26,-29,-76,-84,-155,-208,-174,-163,-108,-156,-156,-158,-129,-63,-58,-44,79,214,285,320,276,272,344,305,249,286,147,-334,-232,1437,2436,1744,830,2,56,-66,-153,-100,-79,-88,-130,-181,-208,-306,-243,-112,-213,-199,84,-32,-325,-508,-630,335,818,286,120,638,167,-340,-229
2018-05-16,16:32:07.711,-115,-108,-309,-143,-500,-617,-637,-666,-691,-702,-665,-747,-790,-676,-500,-320,-240,-177,-147,-171,-119,-60,-62,-369,-957,-428,2128,3044,1930,564,-110,-238,-470,-662,-677,-597,-466,-358,-290,-212,-115,-81,-96,-57,50,111,196,263,464,538,441,364,48,-168,116,200,232,173,212,251,293,341,335,344,403,308,205,202,295,155,-107,-184,156,137,-76,483,385,285,452,298,-441,-567,-856,-372,1872,2563,1579,298,-387,-659,-990,-1194,-1271,-1240,-1264,-1267,-1162,-1004,-900,-867,-759,-744,-679,-541,-541,-551,-298,-112,-110,-27,166,237,199,93,15,36,-4,-66,14,4,-35,84,165,89,108,144,210,300
2018-05-16,16:32:08.748,389,443,486,579,602,180,-33,-198,-81,162,-118,-503,352,2601,3371,2655,1313,474,142,-129,-326,-366,-379,-446,-730,-491,-330,-541,-646,-83,-69,-466,-684,-473,-746,-1058,-67,291,173,51,-87,-227,-204,-173,-464,-749,-735,-735,-834,-856,-709,-557,-480,-440,-425,-473,-375,-227,-196,-149,-132,-98,-112,-128,-37,7,12,-3,-452,-863,535,3162,3144,1558,264,-119,-235,-371,-421,-381,-374,-328,-289,-305,-240,-7,228,184,7,-157,-250,-436,-310,-186,-172,104,567,688,682,530,511,382,310,218,-124,165,589,466,293,214,-249,-21,116,-202,-8,98,-201,-179,204,108,81,129,-71,-571,-616,-642,-1141,-1202
2018-05-16,16:32:09.785,736,2203,1631,483,-465,-687,-803,-929,-845,-676,-650,-705,-670,-606,-560,-525,-492,-432,-400,-313,-182,-103,-19,87,128,173,228,337,444,409,342,206,107,95,92,64,122,86,50,35,57,90,236,540,172,-114,-238,-201,147,254,385,300,436,697,620,-84,-337,1278,3000,2965,2001,721,33,-383,-673,-544,-141,-743,-1023,-209,-18,-717,-1171,-1249,-691,-665,-844,-673,-521,-510,-373,-328,-378,-350,-283,-236,-264,-410,-584,-683,-512,-344,-264,-278,-230,-191,-184,-171,-218,-241,-205,-166,-179,-148,-144,-80,-75,-118,-83,-9,-12,7,-348,-696,895,3562,3600,1998,609,87,-26,-168,-221,-207,22,255,-89,-290
2018-05-16,16:32:10.822,-402,-516,-552,-217,-238,-195,80,487,464,545,531,612,749,803,693,591,287,62,192,393,222,196,662,537,107,-319,-334,185,-295,-290,22,133,33,-152,-472,-276,-21,-185,-312,-266,-334,-752,-1365,-558,1824,2354,1329,252,-230,-488,-731,-838,-728,-664,-752,-728,-567,-497,-544,-516,-496,-521,-441,-451,-396,-205,-111,-81,91,283,327,421,446,296,163,185,65,48,-155,-55,272,76,-480,-662,-659,-551,-209,-194,-156,172,353,364,362,183,508,682,629,421,-83,-754,254,2377,2462,1699,461,-184,148,111,-503,-1078,-838,-818,-1128,-954,-667,-822,-847,-910,-828,-1001,-1091,-960,-876,-827,-712,-688,-709,-595
2018-05-16,16:32:11.860,-383,-270,-311,-380,-464,-411,-234,-279,-343,-288,-264,-307,-336,-331,-321,-375,-305,-169,-116,-26,67,86,101,131,160,179,201,-44,-604,392,3093,3372,2077,882,452,381,-84,-555,-758,-862,-666,-452,-377,-209,-246,-118,245,316,286,280,242,223,387,345,214,169,303,152,582,1069,693,516,-33,-570,-115,110,-204,108,-78,-390,-90,-271,-543,-381,-332,-319,-324,-333,-314,-351,-402,-550,-521,-483,-980,-890,1257,2938,2047,648,15,-280,-540,-659,-649,-607,-513,-405,-367,-377,-387,-409,-331,-299,-266,-230,-232,-98,78,200,271,333,447,612,594,295,-53,-59,66,185,-293,-483,-476,-298,-178,-85,-35,52
2018-05-16,16:32:12.897,-36,114,178,293,387,496,532,523,227,93,132,-90,-316,-511,240,2331,3255,2052,-221,-1274,-102,117,15,199,-147,-376,-873,-1052,-1271,-1253,-1165,-1068,-978,-835,-715,-699,-561,-408,-299,-196,-86,-4,45,-4,40,10,-164,-203,-187,-209,-265,-230,-185,-176,-111,-94,-60,-73,-45,18,116,185,197,247,297,334,347,353,332,22,-390,748,2984,2782,1831,448,-303,-362,-446,-704,-262,143,286,254,230,226,-3,5,90,76,8,-192,-20,26,-124,66,417,849,662,200,200,-389,-579,233,425,-82,-138,11,-413,-461,-332,-524,-698,-675,-590,-602,-639,-611,-478,-302,-212,-226,-248,-194,-236,-489,-1085,-750
2018-05-16,16:32:13.934,1928,3120,1959,677,-29,-295,-513,-715,-740,-659,-667,-637,-588,-574,-502,-400,-415,-363,-185,-160,-122,-20,78,169,294,421,499,498,431,239,361,44,-355,-308,-51,7,176,513,368,114,262,414,343,263,166,158,169,291,266,-47,324,735,592,42,-376,-832,424,2218,2491,1672,200,-699,-772,-915,-1105,-1092,-992,-1004,-1031,-1083,-1094,-1130,-1185,-1035,-786,-695,-684,-667,-502,-348,-289,-256,-77,19,7,-34,-102,-178,-222,-258,-153,-113,-69,-56,-28,7,90,47,13,64,177,247,240,317,368,406,443,579,652,617,238,-548,-870,906,2612,2443,1510,596,414,80,-204,-191,-14,-100,-133,-80,-125,-82
2018-05-16,16:32:14.971,-327,-509,-277,-389,-117,279,355,19,-464,24,527,114,-141,285,287,-23,-144,-229,-323,-252,-375,-469,-545,-551,-598,-665,-764,-755,-600,-428,-351,-267,-304,-301,-285,-215,-204,-191,-328,-795,-939,928,3063,2556,1093,2,-404,-464,-605,-728,-621,-595,-552,-558,-481,-337,-247,-206,-152,-118,-46,26,153,560,778,327,-77,-25,123,186,160,167,327,407,661,597,499,416,378,422,339,232,199,214,193,239,501,140,-468,-509,-271,113,549,278,-568,-1152,-982,736,2541,2314,1418,40,-632,-707,-1012,-1158,-1159,-1146,-1068,-1160,-1242,-1154,-949,-781,-707,-664,-559,-500,-389,-290,-273,-202,-97,-69,-46,72,57,-24
2018-05-16,16:32:16.008,-25,-6,-87,-111,-22,11,2,-10,10,-17,-13,88,142,212,259,323,316,257,415,533,265,-202,-394,-807,-880,1171,2920,2690,1621,549,271,262,79,-17,-37,-98,-162,-104,-155,-33,-15,-283,-548,-123,-160,-119,330,-11,-467,-315,422,-35,-350,-14,79,-290,-521,-384,-328,-452,-642,-818,-859,-910,-1005,-989,-859,-665,-410,-382,-377,-293,-208,-162,-167,-138,-99,-53,-332,-912,-153,2499,3250,1969,545,-22,-233,-432,-521,-518,-498,-519,-403,-407,-358,-258,-229,-223,-174,-130,-80,30,87,60,298,329,123,-29,314,483,291,304,217,323,550,371,322,396,304,289,282,78,-136,32,-75,-208,-55,-89
2018-05-16,16:32:17.046,-125,204,367,288,214,-568,-1361,-775,1168,2575,2207,920,-175,-498,-617,-981,-1090,-992,-999,-1019,-1084,-1122,-1040,-835,-682,-628,-619,-528,-488,-330,-216,-163,-98,-5,109,155,240,277,176,119,88,74,140,230,306,276,225,222,175,238,364,381,486,474,451,467,587,746,508,48,-249,-767,59,2428,2930,2190,1222,737,631,217,20,169,193,23,-140,-190,-272,-385,-609,-759,-534,-370,27,332,49,-465,-370,-112,-255,-140,146,29,-58,-205,-312,-406,-456,-643,-643,-622,-736,-844,-846,-842,-774,-660,-548,-539,-429,-430,-485,-536,-548,-534,-483,-711,-1227,-673,1635,2571,1702,476,-175,-337,-483,-680,-613,-488
2018-05-16,16:32:18.083,-449,-343,-249,-281,-308,-304,-278,-194,-107,-55,45,147,263,570,502,238,283,276,-52,-28,-153,85,571,606,406,687,663,435,339,457,346,121,169,69,132,124,-63,-68,-158,41,85,-687,-364,-1448,-1963,2039,3910,3182,944,-388,-616,-899,-1095,-927,-769,-821,-741,-707,-821,-857,-805,-915,-708,-276,92,48,-41,-68,-50,54,172,259,350,286,162,265,217,153,47,33,46,15,-16,-14,-16,8,110,185,169,217,305,291,161,28,41,7,-174,-798,-860,705,2445,2472,1785,899,317,108,-92,-166,-64,0,-13,16,-38,48,7,-230,-499,-487,-743,-788,-424,-157,0,-136,-517,193,253,-534
2018-05-16,16:32:19.120,-678,-372,-637,-638,-479,-405,-427,-478,-549,-639,-727,-643,-628,-640,-539,-375,-290,-145,-81,-103,28,96,25,-233,-677,-638,1487,2572,2146,1130,373,140,-84,-269,-294,-357,-373,-452,-472,-347,-279,-238,-258,-219,-166,-223,-215,-173,-77,57,115,-15,138,399,620,709,401,141,399,576,352,298,301,245,241,76,289,344,48,105,131,32,-212,-441,-173,244,61,-353,-826,-1003,805,2848,2368,1048,-235,-533,-546,-717,-1138,-1193,-1084,-1109,-1086,-1036,-1036,-988,-864,-756,-625,-526,-475,-592,-516,-435,-302,-192,-107,0,135,112,7,-82,-145,-101,-35,-13,-22,22,49,-3,0,37,85,52,36,57,78,188
2018-05-16,16:32:20.157,254,250,268,180,-291,-376,1065,2474,1921,1459,930,682,626,496,267,275,384,468,520,553,476,444,452,427,410,371,204,120,65,86,34,-280,-129,-90,-321,-474,-96,-24,-465,-871,-975,-699,-588,-845,-1050,-960,-835,-794,-702,-639,-684,-688,-827,-898,-795,-558,-404,-385,-790,-1107,206,2195,2110,1047,4,-481,-670,-787,-863,-835,-725,-677,-637,-555,-548,-478,-337,-359,-377,-334,-246,-187,-53,99,286,396,455,480,556,648,804,300,-167,-265,-456,-284,-114,-188,-20,320,361,336,332,350,436,602,621,466,422,415,-26,-140,-335,-765,110,2832,3549,2621,684,-712,-608,-57,-514,-890,-698,-592,-719,-547
2018-05-16,16:32:21.194,-537,-908,-906,-744,-697,-723,-717,-681,-557,-512,-387,-189,-38,82,66,-89,-130,-131,-195,-163,-93,5,17,-20,11,52,0,60,137,92,176,269,242,263,242,293,350,205,-394,-434,1749,3769,2987,1501,517,94,-72,-133,-553,-739,-398,-461,-298,39,132,47,299,546,339,231,271,354,442,557,600,546,330,186,37,128,18,178,538,69,-17,-111,-574,-1063,-1454,-814,181,195,-535,-371,-526,-465,-261,-483,-545,-539,-461,-644,-1241,-1196,742,2027,1608,648,-191,-524,-780,-1012,-1021,-755,-688,-629,-522,-455,-412,-410,-300,-203,-243,-229,-127,-45,23,102,265,351,461,355,301,176,109,63,162,62
2018-05-16,16:32:22.232,65,75,86,409,463,-39,-503,-518,-315,13,-6,65,340,519,628,800,728,230,-292,503,2743,3172,2329,990,153,-206,-455,-683,-669,-826,-890,-1114,-915,-424,137,193,-684,-698,-609,-906,-1034,-563,-253,-187,-133,-58,-221,-383,-384,-427,-463,-590,-704,-704,-589,-452,-445,-459,-393,-314,-329,-304,-234,-142,-159,-161,-83,18,101,84,-63,-767,-459,2116,3561,2625,910,31,-92,-427,-521,-563,-665,-697,-602,-533,-469,-394,-369,-327,-203,-73,4,-34,-175,-185,-14,59,-98,179,277,361,521,430,683,597,652,610,442,402,357,152,184,208,-14,-39,53,-280,-373,-112,92,40,6,-306,-580,-996,-192,2278
2018-05-16,16:32:23.269,2390,1237,-42,-722,-1138,-1125,-1073,-998,-945,-1003,-1077,-1155,-1265,-1355,-1335,-1181,-1066,-917,-850,-790,-615,-528,-489,-316,-206,-120,-42,23,24,66,64,102,130,130,167,124,88,199,267,330,335,418,554,546,492,487,465,418,409,-53,-590,673,3059,2544,1492,471,-59,-184,-310,-307,-110,7,34,111,231,270,122,339,362,192,15,-187,49,413,305,154,259,294,95,-149,-120,-86,-71,-53,96,-187,-535,-415,-599,-767,-660,-613,-315,-488,-634,-552,-513,-551,-513,-539,-520,-481,-767,-1175,27,2568,2849,1599,298,-344,-583,-695,-786,-715,-630,-628,-634,-644,-563,-475,-488,-468,-384,-401,-337,-254,-161,-10
2018-05-16,16:32:24.306,-20,97,240,274,251,213,171,102,70,57,53,83,168,252,182,213,213,285,251,215,250,345,615,711,758,644,529,441,13,-425,780,2666,2765,1984,857,241,48,-144,-282,-299,-295,-291,-280,-257,-181,-78,-82,-133,-139,-186,-137,-107,-60,57,219,319,401,379,263,151,71,-56,-177,-264,-305,-298,-228,-181,-62,-15,-16,63,176,239,224,256,305,277,257,270,221,49,-523,-474,1583,3037,2385,1117,144,-155,-292,-474,-548,-549,-538,-565,-581,-618,-624,-630,-599,-588,-624,-579,-483,-387,-291,-222,-134,-119,-140,-144,-182,-269,-290,-267,-233,-210,-183,-147,-150,-163,-124,-75,-39,15,46,96
2018-05-16,16:32:25.343,175,172,156,204,235,306,249,-246,-543,967,3108,3095,1895,669,86,-139,-402,-623,-611,-439,-410,-567,-582,-529,-554,-554,-582,-531,-433,-388,-330,-233,-172,-160,-122,-65,-21,-33,-72,-127,-190,-261,-336,-398,-441,-425,-416,-439,-400,-361,-269,-229,-186,-142,-83,-66,-74,-32,6,-136,-731,-691,1481,3334,2835,1349,176,-240,-489,-711,-774,-784,-763,-698,-689,-726,-729,-745,-759,-718,-691,-638,-551,-454,-320,-195,-111,-32,62,94,49,-37,-106,-157,-207,-231,-235,-244,-223,-176,-145,-103,-36,26,60,114,177,167,187,187,189,255,243,-201,-583,643,2526,2741,1971,668,21,-58,-97,-375,-703,-648,-483,-522
2018-05-16,16:32:26.380,-561,-480,-384,-386,-491,-456,-373,-374,-268,-148,-91,-24,97,180,173,148,88,64,52,46,-6,-75,-148,-238,-310,-355,-407,-424,-392,-372,-367,-317,-251,-236,-249,-245,-236,-230,-263,-605,-921,199,2170,2302,1460,455,-64,-260,-405,-507,-477,-424,-399,-364,-343,-357,-334,-312,-288,-241,-211,-188,-156,-84,3,93,150,183,175,200,146,86,43,32,25,2,28,12,-3,1,30,45,72,162,173,138,137,110,100,108,127,147,-19,-560,-255,1910,3062,2339,1213,423,214,-36,-321,-349,-312,-283,-278,-276,-222,-146,-146,-166,-142,-111,-92,-49,41,139,145,219,381,392,291,272,185,94,54,0
2018-05-16,16:32:27.418,-57,-96,-103,-127,-185,-254,-252,-210,-160,-133,-103,-1,-6,-71,-98,-115,-187,-433,-1069,-766,1397,2379,1696,447,-429,-723,-932,-1095,-1069,-1031,-955,-875,-817,-767,-716,-687,-665,-643,-622,-579,-547,-505,-414,-306,-187,-91,-41,-12,-65,-122,-198,-184,-214,-201,-194,-169,-190,-192,-156,-115,-76,-56,-16,12,46,56,78,84,134,140,39,-411,-567,1068,3007,2734,1562,462,8,-171,-361,-427,-391,-331,-317,-327,-356,-368,-339,-247,-190,-149,-88,-27,56,154,238,290,363,402,399,370,354,287,351,259,150,113,101,119,123,131,150,183,243,299,346,414,483,487,464,476,435,419,303,-254,-219,1533
2018-05-16,16:32:28.455,2634,2419,1377,362,-18,-238,-403,-441,-428,-445,-436,-437,-421,-438,-432,-411,-390,-370,-343,-299,-250,-154,-88,-60,-6,51,56,34,5,-39,-77,-117,-166,-198,-236,-263,-240,-228,-263,-226,-188,-203,-185,-166,-179,-183,-165,-180,-175,-267,-839,-1011,892,2656,2188,1074,147,-222,-453,-666,-739,-724,-692,-665,-619,-569,-561,-560,-574,-542,-503,-487,-422,-329,-253,-211,-140,-70,-58,-83,-173,-317,-397,-443,-474,-447,-423,-430,-403,-380,-350,-338,-276,-179,-114,-71,-16,0,14,42,67,63,-79,-684,-703,1375,3076,2656,1315,243,-170,-401,-592,-632,-559,-487,-480,-456,-452,-467,-475,-485,-482,-460,-439,-411,-311,-218
2018-05-16,16:32:29.492,-131,-50,43,55,24,-37,-138,-207,-241,-229,-234,-220,-211,-206,-193,-143,-96,-66,-1,17,74,120,135,118,105,79,68,61,-272,-752,136,2109,2426,1913,752,40,-195,-408,-487,-445,-395,-345,-306,-274,-247,-228,-218,-208,-172,-168,-128,-52,-5,42,75,116,133,140,115,49,-39,-85,-114,-147,-137,-107,-82,-95,-83,-77,-41,-21,-23,-29,0,-2,-4,-47,-69,-62,-93,-119,-367,-741,81,1710,1850,1346,384,-146,-331,-479,-568,-585,-552,-501,-430,-391,-367,-355,-341,-302,-290,-259,-220,-166,-83,-32,8,86,92,103,72,-25,-65,-98,-142,-138,-146,-168,-195,-229,-179,-122,-89,-70,3,66
2018-05-16,16:32:30.529,81,122,134,131,113,83,111,-3,-520,-433,1363,2551,2054,1058,227,-61,-222,-431,-486,-480,-448,-406,-409,-416,-449,-443,-394,-393,-390,-361,-282,-226,-146,-25,62,105,136,89,-13,-130,-207,-261,-289,-309,-332,-349,-363,-367,-355,-328,-303,-231,-163,-113,-77,-73,-104,-88,-89,-98,-180,-685,-781,1000,2685,2303,1203,214,-158,-388,-633,-685,-608,-553,-525,-503,-475,-465,-460,-456,-439,-414,-367,-309,-233,-130,-35,41,98,133,106,30,-50,-66,-87,-104,-67,-53,-49,-18,4,5,37,103,154,185,230,270,278,270,252,263,259,257,147,-310,-300,1231,2430,2341,1541,518,117,-76,-247,-292,-257,-239
2018-05-16,16:32:31.566,-205,-216,-208,-204,-190,-180,-166,-135,-104,-84,-46,17,61,112,147,153,125,92,12,-46,-73,-92,-105,-96,-86,-96,-89,-74,-59,-69,-78,-52,-49,-27,-39,-74,-77,-58,-36,-28,-70,-416,-704,362,2009,2006,1329,364,-69,-258,-456,-545,-542,-520,-501,-496,-474,-447,-425,-432,-410,-370,-329,-316,-256,-186,-125,-74,-42,-2,7,-65,-126,-179,-201,-245,-236,-252,-264,-236,-204,-201,-171,-139,-127,-87,-31,14,58,49,37,47,77,45,54,-178,-723,-14,2219,2608,1840,742,133,-83,-273,-422,-409,-396,-374,-351,-336,-349,-360,-357,-351,-328,-321,-293,-234,-181,-98,-46,0,45,57,-8,-74,-145
2018-05-16,16:32:32.604,-182,-160,-147,-127,-102,-104,-84,-68,-39,-24,15,91,129,146,179,175,158,145,112,92,69,-130,-691,-279,1762,2472,1990,857,50,-251,-472,-612,-602,-577,-559,-545,-533,-496,-469,-445,-417,-380,-346,-318,-263,-191,-101,-26,5,58,78,16,-82,-147,-164,-163,-169,-160,-158,-138,-113,-91,-86,-56,-34,5,45,46,62,94,79,64,53,38,38,32,-177,-694,-275,1499,1995,1570,624,-15,-221,-407,-516,-498,-478,-474,-426,-365,-329,-308,-288,-264,-251,-199,-147,-116,-80,-27,33,87,108,122,94,41,-12,-31,-35,-51,-38,-38,0,16,4,40,90,83,76,108,154,179,206,216,205,169
2018-05-16,16:32:33.641,157,143,133,40,-489,-507,1211,2412,1989,1030,187,-112,-270,-452,-540,-526,-503,-503,-494,-482,-477,-459,-472,-422,-365,-384,-378,-240,-137,-84,-19,37,53,6,-79,-172,-203,-183,-183,-161,-153,-147,-81,-89,-106,-59,-20,-20,15,82,91,123,169,131,95,114,114,67,-5,-477,-661,926,2427,2157,1286,289,-136,-341,-505,-573,-548,-552,-545,-510,-471,-550,-517,-485,-458,-398,-392,-333,-242,-190,-118,-52,-32,-12,-14,-92,-182,-241,-292,-301,-331,-325,-285,-253,-224,-218,-205,-175,-132,-96,-97,-87,-82,-28,-45,-76,-86,-74,-82,-104,-290,-757,-322,1567,2235,1638,582,-71,-293,-445,-559,-557,-532,-475
2018-05-16,16:32:34.678,-458,-421,-386,-355,-338,-293,-246,-210,-150,-90,-30,34,77,136,182,190,129,31,-47,-92,-109,-89,-82,-76,-67,-47,-30,-33,-28,1,37,46,79,107,116,142,147,139,119,142,154,125,-13,-488,-333,1358,2343,1925,998,205,-51,-254,-409,-405,-383,-355,-330,-301,-286,-273,-236,-210,-175,-154,-144,-104,-19,60,108,156,179,182,171,71,-5,-38,-24,-32,-31,-1,20,52,66,99,103,91,107,147,201,232,256,308,334,281,251,247,249,280,202,-256,-593,753,2799,2622,1699,525,43,-181,-443,-533,-503,-478,-490,-491,-485,-484,-461,-464,-480,-474,-477,-437,-385,-314,-225,-163,-144,-158
2018-05-16,16:32:35.715,-179,-226,-293,-307,-319,-319,-314,-295,-295,-282,-255,-220,-191,-182,-161,-136,-111,-93,-83,-58,-29,-17,-5,-8,-16,1,33,-137,-701,-399,1611,2470,2046,1019,170,-176,-370,-552,-588,-544,-514,-497,-468,-426,-393,-342,-294,-293,-257,-192,-116,-38,24,93,144,176,182,118,31,-30,-90,-88,-51,-52,-45,-14,4,9,32,73,93,100,119,139,199,224,231,238,227,220,205,183,171,160,-24,-481,-135,1511,2155,1742,828,146,-99,-282,-431,-465,-450,-412,-410,-397,-411,-429,-402,-372,-345,-330,-264,-187,-180,-132,-75,-34,-32,-50,-101,-172,-243,-293,-316,-330,-314,-314,-325,-320,-306,-265,-288,-306
2018-05-16,16:32:45.469,-166,-142,-139,-140,-107,-110,-123,-103,-98,-129,-114,-88,-51,-2,22,36,88,80,78,62,69,59,5,-176,-619,-167,1694,2221,1739,793,100,-136,-313,-418,-400,-368,-351,-315,-279,-256,-221,-186,-190,-180,-140,-108,-104,-71,-45,25,77,106,99,82,77,29,-23,-15,2,24,11,-11,-35,-22,-30,-33,-8,-15,-33,-2,50,104,121,138,166,187,168,148,102,123,127,-235,-693,323,2301,2434,1795,643,7,-227,-443,-551,-507,-474,-462,-446,-456,-479,-460,-459,-463,-443,-434,-404,-322,-235,-168,-96,-39,-23,-27,-61,-111,-130,-117,-120,-125,-132,-127,-126,-116,-125,-107,-92,-94,-100,-71,-34
2018-05-16,16:32:46.507,-12,23,29,61,92,88,67,52,60,46,7,-329,-740,209,2095,2281,1690,572,-73,-298,-482,-600,-609,-586,-557,-549,-540,-542,-526,-526,-513,-481,-449,-398,-332,-271,-211,-145,-97,-85,-105,-171,-229,-231,-210,-207,-208,-187,-165,-134,-103,-80,-56,-39,-30,-14,-3,18,56,108,99,119,188,173,145,138,139,129,97,-86,-542,-242,1409,2030,1598,730,61,-146,-320,-448,-450,-434,-426,-417,-386,-350,-344,-310,-299,-294,-279,-248,-219,-179,-148,-97,-65,-52,-79,-115,-180,-229,-231,-220,-173,-151,-159,-137,-73,-41,-41,-22,22,42,46,65,103,129,160,202,248,227,192,197,223,239,220,125
2018-05-16,16:32:47.794,-371,-311,1549,2539,2003,1097,325,52,-109,-273,-367,-376,-363,-351,-376,-359,-375,-363,-363,-385,-343,-269,-264,-204,-68,44,129,190,171,117,54,13,-10,4,27,24,51,45,6,-8,-20,-19,-34,-46,-63,-84,-84,-57,-66,-70,-30,-60,-81,-63,-101,-101,-110,-347,-902,-375,1795,2467,1720,610,-122,-398,-602,-755,-778,-759,-737,-695,-697,-687,-697,-691,-670,-668,-631,-568,-509,-426,-320,-248,-149,-82,-85,-137,-219,-230,-208,-195,-207,-184,-160,-126,-95,-65,-34,-46,-14,-11,22,27,102,114,135,145,194,199,188,158,156,157,129,-145,-559,163,1957,2255,1690,718,111,-81,-261,-382,-380,-335
2018-05-16,16:32:48.831,-300,-297,-281,-267,-263,-259,-225,-193,-147,-97,-52,1,60,113,140,154,132,98,44,13,38,63,81,108,132,170,191,198,256,273,279,282,295,320,377,416,460,500,501,486,457,446,432,415,334,-104,-361,968,2700,2449,1649,648,204,-15,-218,-282,-332,-349,-335,-305,-276,-269,-259,-256,-228,-220,-208,-135,-45,48,109,138,165,168,139,39,-18,-24,-56,-24,-23,-51,-40,-58,-82,-151,-173,-171,-184,-179,-155,-152,-149,-132,-150,-144,-170,-203,-231,-286,-343,-383,-659,-1259,-628,1577,2034,1415,265,-505,-795,-995,-1157,-1171,-1127,-1114,-1079,-1042,-1016,-1027,-988,-933,-890,-858,-815,-740,-624,-548
2018-05-16,16:32:49.868,-483,-409,-344,-341,-368,-377,-338,-308,-324,-296,-276,-242,-221,-188,-157,-116,-89,-79,-64,-56,-36,11,41,52,117,171,168,179,157,162,173,76,-355,-236,1341,2366,2140,1325,439,112,-50,-223,-265,-271,-307,-263,-229,-220,-212,-170,-191,-160,-69,-24,15,61,78,158,220,179,140,94,80,58,72,82,57,94,143,140,145,168,198,213,218,221,236,237,266,297,304,319,350,327,275,270,289,297,194,-107,-579,129,2131,2530,1739,673,16,-178,-367,-557,-536,-486,-498,-498,-463,-489,-529,-504,-509,-391,-291,-430,-474,-342,-210,-104,34,258,375,119,-26,-343,-536,-319,-183,92,252,194
2018-05-16,16:32:50.905,-37,-237,-47,83,-41,-61,205,274,54,135,45,60,95,54,111,67,168,102,-113,-622,-540,1567,2927,2178,1018,118,-244,-431,-745,-809,-688,-619,-537,-461,-510,-536,-507,-489,-437,-428,-492,-443,-379,-230,-99,21,127,121,54,-52,-117,-117,-127,-90,-108,-72,11,-10,-9,107,0,-110,-30,-67,-75,-80,-29,47,102,43,-267,-368,-335,-349,-278,-159,-703,-1552,-537,1799,1885,1593,546,-94,-185,-655,-753,-399,-782,-1351,-1229,-974,-580,-714,-954,-725,-568,-516,-411,-400,-388,-403,-501,-285,-108,-321,-419,-449,-460,-358,-284,-223,-130,-9,53,23,-97,-104,-26,131,205,63,15,119,143,4,58,199
2018-05-16,16:32:51.942,220,290,430,438,291,207,-162,-612,130,2463,3076,2292,1250,622,387,254,103,11,-35,-36,-60,-114,-90,-141,-64,15,-180,-505,-492,-290,-387,-421,64,509,380,215,-2,-278,-70,6,-15,150,348,145,405,599,-633,-1244,-526,-139,-53,15,16,174,0,-318,-139,-29,-96,-73,-8,211,-87,-674,-1114,-816,1397,2134,1287,375,-82,-291,-461,-632,-622,-514,-287,-214,-278,-299,-317,-286,-335,-362,-273,-142,-53,34,136,286,332,342,373,282,131,152,185,137,143,215,312,296,357,272,146,117,51,37,-42,-18,112,175,12,-15,-64,-149,-208,-218,-103,-312,-552,-1007,-472,1736,2407,1971,719,146
2018-05-16,16:32:52.980,-1,-689,-745,-582,-995,-1081,-1146,-1282,-1019,-738,-618,-689,-926,-729,-751,-815,-606,-432,-239,-136,-401,-455,-324,-332,-497,-469,-316,-284,-325,-300,-239,-210,-113,-24,-72,-35,71,6,70,194,112,150,246,247,188,271,313,313,373,445,135,-481,847,3215,3169,2033,877,368,172,34,-49,-19,35,79,76,46,56,-80,-113,-51,21,-155,-256,-147,-107,-198,162,24,-184,-132,235,214,270,310,35,-73,85,-65,87,375,-55,-365,-64,-149,-438,-244,-45,-123,-281,-377,-318,-204,-30,-178,-310,-176,-205,-526,-1175,-757,1479,2620,1944,809,78,-63,-229,-542,-656,-628,-662,-486,-326,-403,-536,-530,-535,-492
2018-05-16,16:32:54.017,-527,-560,-376,-114,13,32,64,-11,-92,-106,-214,-281,-210,-108,-6,48,67,178,243,260,264,258,293,239,192,260,201,264,193,193,257,266,236,172,188,65,-114,-76,-447,-376,1303,2546,2542,1337,-97,-275,-329,-565,-523,-782,-970,-843,-1168,-1007,-610,-841,-1104,-1172,-792,-709,-755,-542,-504,-624,-668,-708,-699,-621,-428,-465,-390,-209,-314,-255,-54,3,57,46,-22,9,78,112,161,148,186,246,312,340,355,336,364,361,332,410,455,455,391,130,-550,-62,2559,3697,2867,1543,636,296,56,-197,-331,-346,-295,-230,-316,-463,-358,-350,-476,-523,-348,-326,-451,-413,-130,-287,-322,115,227,135
2018-05-16,16:32:55.054,186,6,0,148,-334,-327,-117,-57,50,-143,-572,-341,-178,-453,-576,-478,-372,-368,-253,-175,-110,-279,-605,-730,-488,-347,-370,-368,-453,-978,-652,1382,2401,1648,593,-97,-340,-527,-648,-631,-592,-588,-534,-504,-561,-483,-399,-304,-298,-251,-105,-96,-8,219,402,425,455,484,418,412,455,424,419,386,377,402,318,291,267,201,132,85,143,102,163,193,110,-14,65,180,286,261,105,111,-96,-413,-115,193,-55,-562,-735,695,2020,1523,491,-215,-324,-457,-710,-776,-822,-794,-691,-859,-893,-580,-620,-590,-531,-453,-339,-287,-291,-252,-110,-3,71,99,84,90,173,178,115,121,146,113,22,38
2018-05-16,16:32:56.091,55,88,101,134,249,265,290,351,380,340,329,388,404,450,495,456,544,573,536,584,547,124,-567,268,2968,3539,2798,1194,261,-168,-586,-947,-885,-913,-791,-788,-696,-594,-808,-798,-831,-897,-709,-737,-815,-468,-555,-966,-641,-496,-624,-447,-156,-163,-655,-777,-597,-430,-351,-334,-202,-60,4,-194,-221,-256,-163,-77,-82,-79,-98,-160,-78,-11,13,60,60,119,171,132,63,11,-414,-905,239,2089,2167,1505,601,76,-24,-221,-424,-461,-298,-236,-219,-154,-122,-132,-76,1,76,23,-4,5,11,33,84,126,78,-23,-80,-120,-130,-17,-46,-211,-282,-58,-148,-249,-266,76,316,109,40,59
2018-05-16,16:32:57.128,-338,-402,-161,7,239,48,-136,127,172,169,171,-148,135,-189,-766,-926,-1132,-306,1816,2562,1987,486,-375,-276,-513,-932,-764,-631,-558,-454,-514,-483,-442,-482,-539,-546,-488,-332,-141,-146,-131,-28,45,86,170,242,141,106,154,141,125,173,221,18,-2,66,113,179,243,307,384,339,332,386,281,172,143,144,218,66,-33,97,302,-126,-385,-228,-47,-457,-812,717,2607,2719,1937,626,-414,-857,-604,-724,-1296,-1251,-1055,-993,-784,-749,-788,-636,-411,-547,-455,-555,-855,-518,-324,-311,-160,44,-26,-123,-71,7,12,-40,39,169,191,158,159,155,204,234,173,194,298,373,342,394,448,426
