2018-05-16,10:44:57.695,-87,-179,-239,-199,-175,-112,1,12,4,2,-6,-12,-5,76,373,63,-1932,-3559,-669,1294,1124,826,539,225,181,171,110,61,16,-19,-59,-110,-154,-198,-229,-261,-291,-312,-335,-364,-382,-365,-335,-300,-255,-167,-37,111,226,328,379,413,412,392,370,344,318,292,267,240,201,169,137,104,83,66,54,33,26,0,-9,-12,-20,-31,-33,-43,-75,-84,-97,-204,-225,-180,-181,-78,9,19,3,-4,-4,-10,-17,91,349,-310,-2540,-3024,333,1355,969,699,361,118,98,65,14,-28,-44,-73,-109,-158,-184,-220,-256,-286,-332,-351,-366,-383,-391,-379,-346,-315,-259,-145,-7,135,256,327
2018-05-16,10:44:58.620,365,395,399,385,364,356,320,280,247,220,207,176,142,121,107,81,59,48,45,48,38,16,6,5,-3,-28,-43,-35,-36,-65,-182,-218,-170,-162,-81,2,9,2,-10,-11,-10,-5,82,255,-456,-2527,-2562,746,1342,871,615,342,40,-24,-62,-109,-136,-163,-204,-251,-288,-333,-378,-409,-439,-469,-503,-528,-551,-565,-567,-543,-515,-456,-357,-220,-84,42,142,197,194,215,201,176,157,134,100,66,56,35,16,6,-16,-46,-54,-55,-76,-98,-95,-100,-112,-117,-117,-112,-133,-154,-151,-162,-277,-281,-209,-190,-92,-10,-8,-8,-9,-25,-28,-13,123,329,-559,-2911,-2670,759,1321,934
2018-05-16,10:44:59.657,687,303,112,95,65,27,-3,-2,-26,-64,-90,-108,-126,-143,-158,-168,-182,-178,-153,-131,-94,-24,39,116,252,418,563,700,802,860,898,902,887,855,840,811,825,809,771,744,725,707,699,678,670,679,709,714,713,727,731,729,725,705,672,646,587,488,502,531,537,629,648,623,587,548,530,517,505,631,730,-443,-2866,-1965,1258,1540,1083,816,431,291,284,238,201,147,96,64,35,-9,-76,-152,-227,-284,-338,-383,-398,-417,-446,-447,-443,-435,-411,-333,-227,-119,-29,7,10,78,87,55,-4,-78,-137,-193,-245,-314,-373,-398,-418,-453,-504,-536,-573,-606,-611,-612,-610,-622
2018-05-16,10:45:00.694,-668,-724,-741,-740,-719,-804,-822,-751,-723,-626,-515,-473,-449,-437,-431,-412,-399,-328,-142,-729,-2724,-3091,288,1175,699,432,176,-106,-164,-179,-226,-274,-299,-319,-353,-395,-450,-492,-503,-498,-506,-518,-533,-543,-529,-493,-468,-427,-345,-250,-107,64,191,283,351,355,345,333,306,289,273,250,232,196,172,158,150,174,194,198,181,179,159,154,164,219,264,295,305,332,306,171,114,134,143,219,329,348,315,293,291,263,223,279,436,-153,-2093,-2433,802,1597,1044,706,448,145,50,29,-26,-35,-74,-110,-153,-194,-239,-254,-269,-314,-359,-370,-399,-433,-420,-378,-349,-308,-222,-103,35,204
2018-05-16,10:45:01.732,334,443,499,521,508,479,436,419,378,320,278,270,256,232,220,209,191,191,195,189,169,146,151,144,111,92,52,37,-11,-168,-175,-144,-140,-42,22,13,-10,-9,-25,-46,-29,115,230,-826,-3094,-2288,868,1225,814,574,169,45,60,18,-34,-62,-96,-128,-163,-192,-217,-247,-274,-290,-312,-348,-374,-368,-369,-345,-301,-241,-169,-68,97,227,313,385,411,404,409,388,366,332,316,295,260,236,216,196,166,149,141,132,118,96,68,44,44,41,20,0,-41,-50,-55,-64,-74,-167,-253,-213,-202,-176,-65,-46,-56,-53,-67,-81,-74,-23,203,70,-1570,-3701,-1344,1135,1042,681
2018-05-16,10:45:02.769,449,129,62,28,-25,-66,-94,-105,-128,-150,-157,-177,-198,-219,-252,-270,-272,-291,-306,-296,-260,-221,-175,-102,10,145,265,364,413,431,426,400,376,365,335,304,283,262,242,231,225,192,164,157,131,125,126,115,89,83,84,72,61,45,17,-1,-4,-95,-183,-136,-108,-65,36,62,62,51,51,35,21,55,285,133,-1518,-3520,-978,1335,1127,743,505,180,96,80,39,3,-33,-68,-98,-127,-159,-201,-227,-250,-292,-331,-355,-376,-362,-351,-337,-308,-262,-182,-55,106,227,320,391,416,399,366,351,323,285,239,217,195,170,144,113,99,64,31,23,6,-1,-15,-34,-48
2018-05-16,10:45:03.806,-70,-91,-100,-81,-84,-103,-128,-220,-282,-233,-206,-147,-52,-33,-30,-40,-51,-55,-63,-12,142,-183,-1761,-2826,194,1607,1048,657,431,88,-36,-44,-83,-120,-145,-165,-210,-249,-297,-311,-305,-334,-380,-410,-442,-461,-448,-428,-400,-346,-266,-174,-23,149,274,370,431,451,458,439,412,383,348,319,281,258,226,195,178,161,128,104,72,57,49,44,32,21,10,27,19,-21,-38,-65,-181,-216,-163,-151,-78,8,7,-3,-17,-41,-58,-48,18,175,-374,-2304,-2723,630,1463,938,620,293,18,-16,-31,-80,-120,-174,-213,-253,-283,-315,-336,-356,-388,-419,-429,-441,-453,-445,-412,-377,-322,-260
2018-05-16,10:45:04.843,-139,9,206,417,512,528,537,528,498,461,419,374,329,297,264,227,199,164,126,99,67,52,24,-2,-26,-29,-35,-42,-60,-79,-91,-81,-74,-176,-236,-200,-208,-158,-64,-55,-65,-77,-89,-99,-104,-63,153,-147,-2014,-3667,-530,1315,997,686,420,62,-3,-17,-64,-111,-140,-187,-219,-243,-275,-303,-339,-377,-409,-439,-466,-470,-469,-445,-404,-359,-286,-193,-44,117,241,338,393,420,427,418,385,358,335,311,295,272,243,213,193,199,205,179,173,156,149,147,149,137,123,127,134,116,89,76,3,-43,-9,5,57,158,188,191,181,178,153,144,173,314,-5,-1620,-2924,97
2018-05-16,10:45:05.880,1727,1198,790,557,220,121,86,31,3,-26,-60,-102,-163,-226,-253,-286,-319,-345,-375,-402,-422,-415,-395,-347,-297,-230,-132,26,200,334,437,496,508,505,499,477,452,419,393,371,358,320,269,294,361,354,309,283,254,220,191,183,160,142,128,105,80,54,25,-81,-142,-109,-101,-50,37,56,48,23,7,-18,-33,8,200,-1,-1593,-3393,-701,1375,1088,677,369,46,-24,-44,-92,-133,-151,-163,-184,-212,-237,-260,-282,-310,-335,-362,-395,-426,-431,-403,-369,-316,-252,-160,-22,138,264,353,406,419,411,387,370,335,299,261,245,221,185,169,147,128,107,88,74,51,30,23
2018-05-16,10:45:06.918,19,26,13,6,-1,-8,-33,-44,-57,-152,-204,-160,-137,-78,29,52,47,39,28,17,23,71,285,69,-1568,-3315,-459,1518,1216,779,427,123,73,41,-6,-43,-71,-108,-146,-182,-215,-247,-277,-318,-360,-373,-395,-415,-410,-397,-356,-305,-249,-155,-36,124,271,363,420,444,442,414,380,341,314,289,262,240,216,189,162,127,104,72,47,38,13,-13,-19,-22,-34,-49,-77,-100,-120,-129,-222,-264,-228,-208,-154,-63,-53,-60,-60,-79,-82,-79,-67,36,-329,-1859,-2656,386,1558,973,550,276,-66,-174,-193,-226,-261,-287,-318,-356,-368,-385,-416,-443,-460,-483,-524,-560,-579,-585,-569,-506
2018-05-16,10:45:07.955,-418,-327,-218,-53,126,269,364,416,453,457,437,414,393,364,330,298,268,238,218,183,146,116,110,102,85,73,58,40,46,44,33,21,-13,-36,-50,-158,-199,-158,-144,-66,26,31,17,6,-7,-14,-20,3,121,-195,-1664,-2536,299,1543,1004,526,130,-77,-72,-89,-122,-156,-174,-196,-220,-229,-260,-279,-299,-321,-345,-369,-390,-398,-391,-373,-334,-281,-207,-113,16,145,248,326,374,379,373,349,326,309,285,264,244,221,192,168,139,117,106,83,67,59,51,37,43,30,13,2,-3,-7,-14,-15,-28,-64,-78,-161,-197,-148,-146,-76,27,24,9,10,15,14,25,47
2018-05-16,10:45:08.992,239,-39,-1756,-2961,-4,1498,1078,687,404,86,4,-1,-12,-43,-83,-119,-161,-196,-227,-260,-282,-316,-340,-375,-400,-406,-409,-391,-357,-294,-233,-149,-24,102,238,325,381,415,410,386,359,336,305,271,242,218,174,150,123,95,84,73,50,43,30,22,-2,2,2,-16,-5,-14,-31,-41,-43,-50,-64,-80,-143,-233,-210,-183,-154,-31,38,28,16,6,13,14,19,141,115,-995,-2739,-975,1483,1297,830,574,222,4,-13,-48,-91,-131,-152,-172,-214,-260,-303,-334,-349,-373,-379,-414,-447,-438,-415,-385,-353,-308,-219,-92,51,194,314,423,462,463,446,423,395,362,343,310,274,250
2018-05-16,10:45:10.029,229,201,180,166,144,126,103,88,76,76,69,41,18,6,-1,-14,-20,-46,-53,-81,-197,-224,-175,-162,-95,-15,10,27,14,7,1,5,43,120,-399,-2008,-2097,791,1510,933,622,381,38,-100,-123,-155,-181,-205,-249,-272,-281,-335,-389,-431,-543,-542,-498,-504,-426,-337,-303,-283,-242,-169,-64,79,245,403,508,551,569,560,538,496,477,423,366,348,323,291,259,218,199,169,122,97,87,72,38,26,7,-5,-21,-29,-34,-35,-61,-79,-92,-98,-107,-120,-128,-152,-152,-158,-165,-189,-180,-190,-202,-200,-201,-198,-203,-224,-233,-192,-177,-191,-182,-158,-157,-149,-131,-108,-112,-128
2018-05-16,10:45:11.066,-148,-122,-98,-130,-102,-56,-54,-53,-60,-26,-22,-36,-71,-58,-64,-72,-86,-59,-39,-46,-30,-21,-34,-54,-43,-107,-209,-207,-149,-121,-16,29,60,70,62,51,85,174,413,129,-1688,-3497,-859,1206,1102,971,784,573,533,550,490,440,384,359,293,242,186,155,103,104,78,59,32,-4,-6,-9,-31,-52,-15,-15,11,25,47,115,152,202,236,246,229,192,182,175,135,131,124,114,85,71,49,19,7,-14,-41,-36,-52,-86,-58,-75,-117,-107,-86,-87,-119,-146,-146,-129,-218,-274,-242,-240,-190,-101,-80,-83,-110,-102,-119,-142,-66,307,330,-1449,-4152,-2314,505,792,692,595
2018-05-16,10:45:12.104,281,182,157,158,109,39,-10,-31,-87,-147,-171,-215,-251,-291,-301,-336,-341,-351,-359,-372,-352,-304,-200,-71,87,207,330,371,393,404,403,377,357,330,324,308,269,253,225,208,186,173,183,143,125,115,90,80,80,47,49,14,28,3,-17,-2,-78,-159,-130,-102,-59,17,60,63,61,34,30,39,125,531,291,-1921,-4304,-1596,776,953,874,760,457,378,341,259,207,160,130,78,54,31,-19,-63,-94,-143,-181,-223,-247,-261,-285,-269,-243,-199,-156,-66,87,203,294,368,396,379,372,353,335,311,289,266,248,191,188,168,120,109,107,88,59,56,32,34,29,0
2018-05-16,10:45:13.141,-7,-8,-21,-34,-76,-170,-170,-157,-116,-28,15,22,11,-18,1,-11,-19,172,412,-509,-2926,-2856,377,869,701,617,474,242,173,145,91,61,25,-29,-84,-123,-159,-180,-222,-261,-302,-340,-367,-393,-428,-420,-416,-382,-335,-225,-86,21,101,160,208,225,205,197,160,122,68,68,63,44,27,23,27,10,-4,-10,-13,0,1,-6,-3,29,17,0,-34,-47,-45,-139,-197,-139,-116,-70,37,68,43,55,69,72,79,155,418,140,-1635,-3292,-595,1328,1141,901,723,386,244,200,167,124,91,60,14,-11,-36,-60,-92,-140,-126,63,120,-92,-395,-659,-752,-720,-646,-519,-307,-3
2018-05-16,10:45:14.178,343,564,647,625,611,596,574,537,511,503,479,437,378,320,273,221,172,142,120,111,79,65,106,169,227,290,373,490,597,643,565,448,472,486,478,562,595,577,545,517,490,470,488,676,646,-751,-3100,-1609,1135,1217,778,472,-103,-437,-585,-735,-890,-997,-1074,-1143,-1161,-1162,-1161,-1171,-1170,-1177,-1180,-1196,-1195,-1186,-1157,-1113,-1038,-955,-829,-668,-483,-284,-129,-38,-7,4,6,-7,-28,-57,-81,-113,-124,-160,-425,-396,-191,-119,-113,-116,-108,-99,-98,-86,-93,-94,-81,-92,-90,-96,-125,-126,-167,-254,-220,-155,-119,-22,58,81,114,120,119,111,119,234,348,-434,-2456,-2110,1137,1540
2018-05-16,10:45:15.215,1053,795,513,247,195,171,132,99,81,59,33,13,19,6,-27,-62,-87,-117,-155,-191,-207,-180,-138,-72,23,167,364,563,692,777,846,864,839,811,769,725,684,642,616,593,559,535,506,475,451,425,407,390,370,369,367,348,326,309,305,299,287,258,237,230,145,66,95,106,109,176,212,207,190,189,200,192,207,363,265,-949,-2718,-622,1615,1353,933,689,345,196,174,135,89,33,-9,-65,-111,-158,-211,-260,-312,-370,-411,-453,-512,-550,-549,-539,-504,-457,-359,-209,-37,125,235,309,356,366,343,313,278,241,199,181,170,129,110,81,50,23,3,-12,-21,-51
2018-05-16,10:45:16.252,-71,-68,-72,-94,-104,-118,-121,-128,-138,-139,-132,-136,-151,-159,-170,-182,-231,-329,-310,-255,-239,-155,-101,-100,-100,-98,-108,-100,-93,28,147,-711,-2750,-2028,861,1204,747,486,149,-45,-71,-92,-133,-164,-204,-237,-266,-310,-332,-341,-374,-406,-434,-465,-492,-503,-510,-485,-449,-395,-316,-203,-47,128,277,386,450,468,461,442,408,351,323,318,285,252,225,200,172,152,130,122,104,89,81,70,50,31,40,34,23,12,-4,-3,-6,-14,-17,-41,-43,-38,-40,-62,-68,-92,-101,-84,-179,-219,-160,-148,-105,0,24,27,30,25,20,11,55,276,-9,-1766,-3318,-527,1348,1024,680,448
2018-05-16,10:45:17.290,116,65,51,1,-56,-101,-123,-153,-193,-220,-240,-283,-329,-362,-383,-406,-432,-464,-461,-440,-417,-372,-305,-179,-20,150,260,323,367,379,361,332,321,302,273,252,225,190,154,145,131,94,66,45,30,16,11,-4,-33,-43,-27,-38,-61,-59,-72,-80,-69,-73,-76,-76,-78,-70,-64,-74,-86,-125,-122,-170,-257,-230,-208,-160,-62,-16,-8,-30,-22,-31,-5,1,122,27,-1126,-2720,-762,1508,1219,815,592,316,77,15,-14,-17,-36,-66,-88,-118,-153,-209,-237,-227,-278,-334,-352,-415,-427,-406,-385,-367,-333,-265,-151,14,161,278,374,425,437,395,351,347,308,232,165,113,91,41
2018-05-16,10:45:18.327,-20,-63,-110,-122,-119,-150,-149,-150,-138,-132,-138,-121,-98,-90,-88,-133,-94,-90,-131,-194,-142,-160,-276,-238,-149,-92,0,44,62,129,150,85,109,140,246,447,-369,-2629,-2614,390,1157,902,771,502,353,357,279,218,195,145,124,93,75,38,27,0,-57,-62,-117,-130,-173,-202,-187,-142,-133,-77,-35,72,191,273,361,409,399,350,331,280,276,267,177,185,163,137,89,97,71,70,78,56,42,28,-15,-35,-45,-78,-37,-62,-102,-87,-116,-143,-170,-162,-213,-210,-319,-479,-476,-462,-466,-383,-348,-377,-413,-427,-415,-367,-301,-64,205,-804,-3407,-3709,-627,314,394,411,203,115
2018-05-16,10:45:19.364,126,84,70,62,41,28,22,19,36,18,39,30,20,0,-1,-7,-33,-46,-67,-62,-83,-36,45,131,208,248,286,321,338,321,294,272,279,250,233,233,198,224,212,180,147,151,169,147,115,110,93,75,59,66,64,70,68,55,57,37,2,5,-36,-147,-155,-118,-105,-40,28,23,10,18,18,0,-5,124,538,-53,-2459,-4023,-875,572,710,743,572,355,322,294,273,244,221,177,137,126,100,72,45,15,-11,-24,-47,-72,-61,-52,-55,-41,-26,49,142,247,345,421,452,474,487,462,420,408,410,391,370,340,333,320,289,264,252,227,221,260,317,577
2018-05-16,10:45:20.401,701,390,215,185,127,76,55,51,35,0,-5,0,-83,-78,17,60,110,176,192,187,145,108,49,-3,48,491,225,-2075,-4579,-1703,590,710,626,421,106,15,-56,-140,-211,-283,-345,-389,-430,-520,-597,-569,-515,-465,-452,-429,-394,-356,-332,-293,-251,-202,-159,-84,30,142,227,285,317,278,-99,63,357,425,403,389,389,365,343,312,299,279,251,242,229,198,184,164,158,146,125,113,112,90,79,83,73,8,-112,-97,-52,-43,47,125,121,114,93,82,88,88,221,575,-193,-2682,-3175,146,1203,1005,820,518,249,214,169,97,55,5,-44,-70,-91,-128,-173,-219,-266,-311
2018-05-16,10:45:21.438,-313,-361,-380,-390,-383,-356,-327,-287,-206,-71,88,235,341,419,439,419,407,382,340,295,263,226,188,148,117,96,69,37,1,-11,-35,-67,-74,-76,-93,-110,-111,-121,-156,-186,-193,-201,-307,-346,-299,-288,-231,-134,-132,-141,-152,-144,-152,-142,-65,190,-129,-1925,-3098,-214,1340,985,638,372,46,-30,-38,-71,-98,-119,-135,-152,-170,-203,-243,-265,-287,-295,-313,-342,-352,-365,-354,-321,-289,-233,-160,-33,128,285,400,461,495,499,482,459,431,406,380,362,338,304,279,232,205,186,163,141,119,104,89,74,64,46,27,7,-10,-10,-63,-176,-167,-127,-114,-19,51,65,49,45
2018-05-16,10:45:22.476,45,37,31,184,370,-562,-2828,-2235,861,1294,902,652,301,38,4,-14,-55,-87,-112,-145,-172,-191,-230,-253,-274,-300,-319,-353,-374,-375,-366,-347,-326,-279,-206,-102,56,209,318,401,470,491,482,465,431,387,349,312,291,276,247,205,180,158,115,90,78,61,29,14,-3,-20,-30,-41,-60,-72,-80,-111,-233,-253,-189,-173,-103,-20,-5,-28,-26,-27,-25,-22,86,363,-282,-2497,-2921,274,1312,985,711,364,106,81,65,16,-32,-50,-73,-106,-146,-191,-225,-239,-270,-321,-349,-373,-388,-388,-371,-343,-301,-257,-168,-16,146,275,359,405,434,429,409,371,340,308,285,260,231,212
2018-05-16,10:45:23.513,194,174,138,125,98,76,77,61,47,34,17,1,-17,-42,-67,-91,-80,-154,-257,-219,-192,-183,-75,-28,-26,-38,-50,-58,-53,-26,207,212,-1176,-3348,-1594,1054,1155,788,534,163,36,19,-12,-53,-86,-115,-142,-177,-209,-237,-260,-303,-342,-368,-400,-418,-424,-424,-414,-369,-316,-246,-134,24,182,297,372,413,425,406,387,354,324,290,263,233,217,205,177,152,114,98,79,56,40,15,-3,-16,-12,-16,-25,-22,-28,-34,-67,-86,-101,-211,-273,-219,-215,-159,-37,-22,-14,-12,-23,-24,-25,39,311,13,-1850,-3323,-592,1257,1070,760,483,151,79,71,36,-8,-32,-59,-89,-126
2018-05-16,10:45:24.550,-164,-193,-221,-265,-295,-313,-345,-363,-365,-347,-329,-307,-264,-191,-56,105,249,360,417,447,440,431,400,363,327,306,278,249,226,200,182,162,132,110,99,72,51,39,18,16,2,-11,-16,-16,-44,-69,-72,-80,-159,-256,-218,-179,-145,-41,16,7,0,-10,-20,-25,0,143,213,-803,-2864,-1856,1068,1266,843,608,286,21,-26,-44,-85,-125,-144,-171,-204,-240,-268,-290,-329,-363,-395,-416,-426,-455,-468,-448,-408,-368,-296,-170,0,167,305,402,454,490,463,444,426,401,365,329,304,269,246,231,197,166,136,108,85,65,53,26,17,6,-5,-17,-12,-8,-10,-27,-60,-78
2018-05-16,10:45:25.587,-93,-191,-235,-178,-165,-119,-18,13,4,-5,-5,-18,-11,37,254,24,-1611,-3162,-629,1364,1111,752,505,133,12,1,-26,-70,-97,-132,-160,-186,-216,-251,-289,-321,-352,-385,-412,-443,-458,-434,-418,-391,-330,-248,-111,66,228,358,444,489,491,479,444,411,384,355,322,301,276,245,214,191,152,133,119,103,91,66,47,32,25,15,-3,-7,-18,-36,-42,-37,-52,-84,-107,-103,-175,-254,-216,-184,-162,-58,-8,2,0,-10,-7,-3,25,209,266,-925,-3180,-1724,1175,1246,836,604,224,80,74,40,2,-34,-60,-98,-139,-170,-199,-221,-261,-308,-347,-360,-384,-414,-416,-382,-350,-306
2018-05-16,10:45:26.624,-239,-131,38,210,331,419,471,491,480,446,410,368,332,308,281,254,224,200,184,162,136,121,100,67,50,52,36,8,1,-1,-8,-15,-20,-26,-40,-37,-49,-70,-79,-92,-95,-119,-217,-265,-217,-198,-146,-30,-8,-10,0,5,-7,-12,57,351,-1,-1916,-3230,-351,1295,1038,735,424,133,82,55,10,-42,-65,-93,-116,-159,-196,-224,-250,-276,-328,-353,-381,-413,-431,-424,-398,-359,-296,-216,-91,94,277,384,463,515,506,489,468,440,406,394,357,313,287,269,245,212,182,158,137,109,88,77,59,47,27,10,-5,-4,-10,-18,-22,-37,-55,-58,-55,-61,-72,-77,-104
2018-05-16,10:45:27.662,-128,-125,-220,-284,-229,-201,-153,-51,-20,-10,-23,-27,-23,-23,20,206,-60,-1619,-2988,-370,1468,1091,685,454,89,-35,-42,-89,-122,-149,-193,-219,-238,-270,-295,-319,-337,-373,-400,-427,-445,-468,-488,-452,-403,-348,-276,-147,37,225,347,436,495,519,496,467,442,415,401,370,332,311,283,251,215,167,137,127,107,80,60,43,29,15,-6,-6,-10,-19,-23,-34,-35,-40,-44,-56,-69,-96,-95,-136,-240,-210,-158,-151,-80,-7,3,4,-10,-19,-16,5,124,260,-585,-2750,-2029,1089,1349,868,612,268,0,-11,-42,-91,-114,-143,-185,-210,-242,-267,-294,-329,-358,-389,-438,-458,-476,-492
2018-05-16,10:45:28.699,-471,-443,-399,-335,-227,-49,138,293,407,473,487,484,464,442,407,376,357,337,311,277,249,226,204,178,150,132,114,89,82,57,44,36,31,18,4,3,-5,-10,-21,-26,-42,-58,-50,-55,-92,-107,-99,-192,-236,-172,-165,-118,2,30,33,22,9,-17,-3,57,294,-13,-1768,-3064,-395,1323,1061,710,382,77,24,18,-10,-49,-80,-100,-127,-168,-200,-220,-245,-276,-312,-349,-374,-389,-407,-411,-404,-370,-332,-260,-130,30,190,306,382,433,439,421,391,359,324,309,294,271,247,221,198,184,167,132,105,105,93,68,53,36,17,14,2,-2,3,-13,-14,-11,-26,-40
2018-05-16,10:45:29.736,-46,-64,-84,-61,-112,-228,-199,-157,-136,-34,33,41,23,18,30,40,52,195,347,-604,-2852,-2279,918,1351,908,656,237,65,62,18,-34,-77,-101,-120,-160,-186,-216,-249,-274,-303,-348,-372,-390,-411,-411,-402,-397,-358,-291,-199,-58,109,245,353,414,439,439,406,379,342,316,292,276,260,228,195,169,146,130,104,87,70,42,31,23,2,5,-1,-17,-18,-24,-34,-38,-36,-49,-83,-100,-101,-192,-241,-194,-174,-118,-3,20,5,1,-9,-13,-3,41,251,78,-1438,-3073,-468,1484,1149,740,489,121,-25,-33,-71,-109,-133,-156,-193,-227,-247,-269,-294,-329,-365,-394,-426,-435,-444
2018-05-16,10:45:30.773,-443,-413,-367,-323,-264,-153,16,188,311,403,456,472,464,429,402,379,349,315,281,262,229,191,169,148,129,109,81,71,50,33,38,17,4,1,3,-9,-17,-16,-26,-48,-78,-81,-77,-167,-225,-178,-162,-116,2,29,36,26,12,10,12,43,269,69,-1519,-3032,-518,1433,1149,753,489,125,7,-2,-40,-77,-93,-119,-146,-186,-218,-242,-261,-289,-323,-343,-369,-392,-414,-429,-398,-351,-297,-216,-115,24,173,282,364,404,423,420,394,371,347,313,281,255,236,203,173,138,119,98,88,70,46,34,24,10,4,-5,-12,-19,-29,-40,-46,-53,-68,-103,-98,-123,-240,-229
2018-05-16,10:45:31.810,-171,-156,-64,13,-4,-14,-15,-15,-27,-14,123,341,-451,-2683,-2702,495,1327,948,686,336,98,83,65,12,-16,-45,-74,-94,-132,-157,-180,-218,-252,-287,-303,-321,-344,-341,-323,-301,-266,-216,-133,-26,109,241,344,415,448,426,410,383,350,329,309,278,249,225,196,173,153,124,109,94,79,60,45,24,8,14,12,0,-13,-26,-38,-41,-46,-59,-89,-93,-150,-240,-206,-167,-135,-19,25,14,4,7,3,-18,4,196,318,-831,-3172,-2137,1024,1291,886,674,283,102,92,58,16,-34,-61,-87,-112,-142,-174,-206,-240,-271,-304,-329,-333,-336,-336,-329,-307,-271,-230,-148,-12,142
2018-05-16,10:45:32.848,269,356,421,438,429,403,373,339,320,290,254,227,205,186,157,141,117,88,83,72,47,32,19,17,10,-2,-22,-18,-22,-36,-58,-65,-69,-178,-257,-209,-187,-134,-18,15,2,-5,-2,-9,0,37,252,116,-1419,-3314,-802,1474,1202,796,546,159,18,-1,-44,-92,-125,-139,-160,-213,-240,-260,-300,-338,-363,-391,-417,-435,-451,-442,-409,-367,-338,-260,-138,30,187,302,386,442,451,436,409,386,356,335,306,254,234,218,191,184,168,151,126,104,81,69,57,36,32,26,6,-7,-17,-25,-44,-77,-87,-158,-234,-204,-172,-128,-27,-2,-3,-14,-22,-28,-22,9,213,108
2018-05-16,10:45:33.885,-1366,-3243,-781,1449,1151,767,539,165,-11,-35,-55,-92,-128,-151,-173,-204,-228,-262,-281,-316,-360,-379,-417,-436,-454,-438,-399,-370,-320,-241,-125,40,201,328,415,466,476,461,427,407,376,347,332,315,281,242,209,188,174,142,114,111,97,84,72,65,44,27,27,22,8,-7,-37,-49,-81,-217,-245,-187,-166,-99,0,19,-12,-20,-20,-14,-16,53,338,-112,-2160,-3285,-167,1324,1058,758,436,129,79,69,33,-14,-55,-83,-110,-154,-183,-199,-223,-253,-275,-318,-339,-356,-368,-371,-337,-278,-245,-184,-44,106,250,354,421,447,446,429,394,361,338,320,295,261,246,220,190,165
2018-05-16,10:45:34.922,145,135,109,84,66,63,50,49,38,18,7,7,7,-27,-53,-67,-105,-226,-234,-166,-160,-87,-3,-7,-9,-17,-35,-37,-20,75,364,-220,-2496,-3376,-104,1299,1035,773,445,163,130,110,51,4,-28,-60,-97,-139,-177,-212,-257,-291,-308,-330,-363,-388,-408,-387,-352,-317,-270,-192,-63,96,246,355,419,451,431,404,380,348,319,286,272,249,215,197,172,151,139,121,108,92,84,71,43,26,30,17,4,-7,-9,-26,-54,-69,-86,-163,-238,-194,-169,-138,-21,17,12,7,11,1,-3,18,229,224,-1160,-3361,-1701,1089,1232,833,604,237,85,71,25,-18,-54,-85,-121,-153
2018-05-16,10:45:35.959,-187,-221,-248,-290,-317,-345,-384,-404,-416,-425,-417,-385,-334,-252,-138,20,195,318,393,438,451,433,423,406,370,327,308,298,246,222,212,169,141,128,113,98,71,56,41,22,17,15,13,11,5,-4,-8,-16,-36,-61,-98,-214,-232,-176,-161,-66,7,9,3,-4,-12,-18,-27,67,204,-531,-2520,-2387,802,1416,922,627,372,57,-15,-34,-83,-106,-139,-182,-238,-273,-395,-486,-462,-451,-430,-373,-368,-388,-393,-374,-357,-321,-245,-139,6,189,336,443,505,528,515,501,452,397,352,313,285,259,220,176,134,194,404,-117,-2337,-3315,-422,835,589,289,304,339,302,271,240,192
2018-05-16,10:45:36.996,166,142,115,88,63,39,0,-30,-58,-77,-77,-69,-56,-26,-12,-2,16,63,103,142,187,206,205,193,188,149,133,149,38,-87,-57,-42,-32,54,93,97,80,73,78,78,72,74,314,739,-122,-2892,-3143,347,1164,865,734,379,136,116,94,49,2,-42,-82,-116,-152,-175,-218,-258,-292,-316,-340,-373,-392,-384,-364,-333,-281,-209,-80,67,202,308,377,402,404,376,340,314,287,243,211,172,152,131,121,109,90,71,57,39,12,-3,-13,-18,-35,-53,-61,-72,-101,-119,-144,-155,-183,-303,-301,-264,-240,-136,-78,-75,-76,-70,-77,-93,-68,55,213,-657,-2864,-2583,693,1124
2018-05-16,10:45:38.034,726,513,192,-104,-182,-202,-260,-303,-353,-404,-432,-466,-519,-545,-561,-589,-617,-634,-643,-653,-647,-618,-586,-526,-484,-434,-366,-257,-123,-26,39,88,101,112,111,90,67,67,72,55,26,16,27,11,6,13,15,-8,-19,-11,-1,-12,-14,1,12,2,-5,-16,-11,-77,-141,-87,-59,-14,118,177,188,220,225,216,230,272,484,576,-510,-2580,-1118,1502,1540,1150,906,570,496,504,482,441,410,373,346,324,296,288,275,245,226,212,205,196,206,228,228,259,296,327,385,483,573,651,692,699,701,690,666,623,582,567,562,546,517,488,441,413,399,384,395,382,350,328
2018-05-16,10:45:39.071,304,276,259,246,221,185,147,145,121,2,-50,-7,4,81,195,215,204,207,199,182,161,220,444,125,-1686,-3219,-267,1346,1063,735,430,127,107,84,25,-35,-90,-120,-156,-200,-227,-262,-294,-330,-367,-373,-381,-398,-407,-393,-375,-363,-327,-275,-185,-56,60,161,239,267,256,254,228,208,184,154,130,110,95,67,53,53,38,26,40,25,12,9,12,-10,-20,-38,-57,-85,-99,-97,-175,-269,-242,-210,-183,-69,-26,-40,-53,-48,-46,-56,-34,212,258,-1179,-3566,-1660,988,1049,733,506,174,70,67,34,9,8,-16,-52,-101,-154,-139,-143,-193,-239,-279,-308,-335,-354,-344,-312
2018-05-16,10:45:40.108,-274,-238,-191,-93,32,154,252,312,352,367,351,336,314,281,255,242,213,190,172,142,134,135,118,92,73,58,31,5,-11,-36,-61,-89,-104,-101,-186,-296,-274,-247,-218,-113,-76,-88,-96,-101,-116,-121,-95,108,59,-1314,-3381,-1265,1215,1088,658,391,36,-52,-58,-91,-126,-151,-165,-180,-213,-227,-257,-274,-300,-329,-367,-383,-397,-423,-425,-391,-357,-325,-239,-115,28,160,255,311,361,373,339,336,313,269,235,221,210,182,137,126,106,87,74,66,36,15,22,-10,-32,-37,-77,-95,-81,-173,-268,-220,-188,-154,-43,-9,-26,-33,-33,-47,-46,-25,148,22,-1301,-2878,-523,1530
2018-05-16,10:45:41.145,1052,609,370,41,-108,-124,-154,-195,-212,-235,-261,-289,-314,-345,-369,-403,-442,-474,-497,-508,-512,-491,-459,-418,-373,-288,-158,8,153,260,324,364,376,340,297,278,252,215,181,162,145,110,78,49,16,0,-5,-23,-40,-38,-37,-48,-60,-74,-79,-79,-172,-244,-196,-157,-116,-21,10,7,-5,-20,-30,-30,19,212,-52,-1657,-3042,-329,1465,1089,696,398,58,-6,-18,-44,-75,-106,-123,-158,-190,-218,-234,-261,-282,-309,-337,-361,-370,-370,-351,-314,-280,-235,-140,-9,117,231,317,372,398,398,375,352,331,300,269,244,222,194,163,140,120,107,87,70,66,50,38,23,17,-5
2018-05-16,10:45:42.182,-28,-51,-58,-127,-235,-201,-162,-148,-51,3,3,3,-1,-6,-11,24,219,293,-968,-3271,-1987,1003,1196,839,619,226,100,102,62,18,-27,-69,-95,-129,-182,-214,-241,-269,-296,-326,-342,-355,-357,-361,-351,-313,-265,-198,-86,55,194,291,359,387,393,385,351,323,307,292,247,217,201,177,151,133,124,108,83,66,60,48,29,22,17,-15,-34,-33,-115,-220,-178,-141,-105,-2,31,21,11,-4,-17,-9,33,265,241,-1249,-3403,-1520,1120,1158,794,536,169,112,94,48,2,-32,-58,-87,-130,-170,-202,-222,-245,-277,-303,-321,-349,-362,-343,-312,-287,-231,-152,-29,122,250,350,401
2018-05-16,10:45:43.220,432,429,407,367,349,324,284,259,231,195,160,122,102,97,80,60,49,35,31,25,15,-4,-25,-38,-41,-93,-208,-183,-142,-126,-5,47,44,33,29,23,19,45,188,147,-1021,-2772,-1071,1454,1300,805,525,167,-14,-27,-63,-100,-124,-150,-183,-206,-219,-262,-291,-331,-381,-414,-426,-436,-440,-426,-397,-358,-307,-219,-87,73,221,327,400,436,432,407,388,358,337,299,270,247,212,173,147,126,90,60,35,28,15,-3,-14,-16,-28,-51,-77,-78,-135,-249,-230,-191,-176,-68,-2,-5,-23,-28,-39,-44,-14,152,158,-990,-2875,-1397,1240,1249,774,484,107,-18,-6,-29,-70,-105
2018-05-16,10:45:44.257,-115,-136,-167,-194,-230,-249,-272,-296,-318,-337,-356,-360,-344,-320,-283,-251,-172,-45,97,232,334,403,434,433,411,392,356,321,285,263,248,224,192,167,140,120,100,94,86,70,69,54,50,40,28,0,-29,-26,-105,-223,-193,-171,-144,-29,23,16,1,-5,-11,-13,22,220,106,-1382,-3196,-1096,1202,1138,742,434,109,49,27,-17,-58,-91,-105,-118,-146,-191,-220,-232,-278,-296,-314,-321,-342,-350,-341,-312,-271,-223,-146,-37,109,239,312,347,365,376,367,333,300,265,252,236,205,181,155,124,118,98,75,68,57,31,16,4,-7,-18,-41,-63,-65,-65,-190,-241,-177,-169
2018-05-16,10:45:45.294,-105,2,17,-1,-5,-13,-29,-26,71,345,-204,-2320,-3042,41,1288,963,672,338,103,88,75,37,-14,-35,-58,-90,-116,-155,-182,-193,-227,-258,-281,-317,-329,-328,-324,-302,-251,-189,-115,14,155,277,349,393,408,398,382,353,331,295,255,231,215,186,152,116,86,70,57,47,37,32,14,0,0,-5,-25,-36,-54,-59,-96,-216,-233,-174,-170,-94,-2,-11,-24,-25,-31,-34,-31,72,227,-483,-2425,-2125,858,1353,872,548,219,-35,-68,-80,-110,-149,-188,-192,-229,-258,-277,-305,-324,-357,-372,-382,-406,-418,-406,-388,-343,-299,-243,-146,4,163,273,364,420,425,420,406,373,349
2018-05-16,10:45:46.331,322,288,263,239,198,164,143,139,130,99,97,90,79,76,70,69,56,56,25,-2,2,-50,-153,-135,-97,-81,25,83,80,73,65,52,45,81,307,249,-1200,-3172,-1251,1167,1187,817,503,178,123,117,79,28,-22,-55,-82,-104,-130,-159,-189,-213,-228,-240,-259,-272,-267,-258,-228,-181,-155,-102,6,129,239,322,368,379,376,363,342,306,290,263,247,224,202,176,141,113,116,105,76,67,48,38,25,11,1,-9,-49,-65,-67,-109,-238,-221,-172,-156,-37,16,19,4,-8,0,-2,20,242,387,-903,-3309,-2086,881,1195,874,648,266,135,155,115,43,0,-39,-67,-114
2018-05-16,10:45:47.368,-168,-191,-236,-269,-264,-292,-308,-303,-313,-302,-259,-239,-211,-146,-41,83,202,297,340,363,373,357,327,296,275,239,208,183,164,140,120,103,85,60,45,48,28,12,4,4,-10,-21,-34,-50,-53,-53,-73,-197,-235,-182,-191,-127,-14,0,-2,-6,-18,-21,-19,83,391,-207,-2496,-3323,-124,1189,970,736,395,142,130,102,48,3,-33,-63,-89,-115,-149,-176,-210,-244,-277,-291,-306,-320,-312,-298,-276,-249,-217,-138,-12,122,237,323,374,384,359,339,314,295,263,234,206,198,181,155,122,101,81,68,51,38,22,17,18,5,10,-9,-17,-22,-40,-54,-106,-226,-196,-142
2018-05-16,10:45:48.406,-148,-42,26,16,20,17,5,7,24,181,243,-904,-2943,-1566,1160,1266,795,499,134,8,12,-20,-60,-107,-129,-150,-195,-212,-231,-256,-277,-289,-326,-360,-370,-367,-358,-338,-290,-240,-174,-77,67,209,302,352,387,403,392,373,359,334,296,258,237,220,189,167,139,118,107,90,73,61,36,21,6,-6,-13,-15,-45,-54,-77,-196,-234,-181,-179,-90,24,26,3,1,2,0,9,85,259,-281,-2157,-2374,618,1424,928,578,255,-11,-35,-42,-72,-108,-133,-149,-166,-196,-227,-258,-292,-317,-340,-354,-374,-371,-359,-326,-276,-240,-190,-115,6,160,276,341,385,390,397,369,337,320
2018-05-16,10:45:49.443,292,253,236,214,195,181,158,128,104,87,79,68,54,44,38,24,6,-7,-29,-51,-42,-133,-217,-165,-159,-135,-11,21,16,14,5,-7,-7,40,258,29,-1662,-3104,-545,1310,1086,713,383,72,22,18,-23,-67,-103,-128,-169,-197,-222,-249,-266,-290,-317,-336,-339,-340,-338,-327,-304,-272,-229,-143,-43,86,204,280,327,351,353,335,311,291,259,241,229,212,180,145,131,110,94,81,58,43,34,29,21,3,-17,-24,-33,-40,-52,-164,-227,-181,-164,-78,19,20,10,5,0,-11,-6,87,350,-172,-2265,-2963,117,1310,977,670,333,80,64,49,9,-28,-60,-84,-119,-166
2018-05-16,10:45:50.480,-188,-209,-236,-270,-304,-320,-326,-327,-313,-287,-246,-206,-169,-81,36,177,287,363,401,412,386,369,361,337,310,281,273,237,203,185,167,137,119,113,89,72,65,55,40,33,19,0,-18,-12,-62,-194,-191,-143,-140,-31,38,46,36,35,24,20,28,219,368,-735,-3001,-1982,941,1273,898,620,245,102,102,72,34,-16,-47,-78,-107,-132,-169,-191,-225,-260,-281,-302,-316,-325,-318,-293,-251,-204,-155,-66,71,201,276,339,377,373,354,339,319,293,267,232,219,200,182,160,143,128,103,82,62,51,59,43,49,51,50,29,-5,-18,-29,-142,-207,-169,-158,-69,48,56
2018-05-16,10:45:51.517,46,40,29,16,19,106,304,-282,-2235,-2446,648,1458,955,624,290,4,-26,-41,-83,-111,-149,-163,-193,-233,-259,-275,-299,-333,-357,-366,-375,-384,-385,-356,-320,-278,-238,-156,-12,135,253,330,371,390,380,369,339,302,294,267,221,184,162,160,137,127,100,72,71,73,55,27,27,42,28,3,-4,-30,-152,-187,-131,-107,-44,48,57,50,44,29,19,21,118,306,-392,-2401,-2177,869,1396,911,601,259,3,-23,-39,-73,-105,-134,-180,-197,-227,-260,-289,-321,-332,-359,-397,-418,-427,-412,-381,-342,-297,-241,-131,3,138,247,319,359,367,364,351,331,304,268,246,216,180,161
2018-05-16,10:45:52.554,138,111,100,80,75,51,32,24,6,6,-12,-27,-36,-30,-102,-194,-161,-135,-101,21,61,54,35,29,18,0,42,300,97,-1644,-3291,-650,1267,1082,735,418,122,78,56,16,-12,-57,-95,-109,-134,-172,-213,-249,-262,-286,-328,-347,-361,-358,-325,-304,-268,-210,-135,-1,138,237,303,356,373,358,339,328,292,270,244,212,193,161,153,133,100,69,49,44,31,24,21,7,3,-12,-31,-38,-44,-146,-210,-178,-163,-94,13,38,25,20,22,1,-2,65,386,25,-2116,-3495,-374,1194,990,745,433,160,124,98,49,10,-19,-57,-96,-138,-171,-197,-238,-274,-291,-320,-344,-352
2018-05-16,10:45:53.592,-343,-302,-270,-244,-195,-102,24,155,267,331,372,391,384,356,328,292,260,247,216,188,157,133,123,110,112,89,62,48,36,33,30,25,13,7,-18,-21,-30,-142,-199,-157,-147,-75,19,42,38,28,6,-11,-10,81,321,-322,-2536,-2783,586,1370,918,623,284,39,15,-1,-39,-75,-108,-131,-161,-202,-242,-272,-299,-340,-359,-375,-410,-408,-400,-388,-349,-293,-228,-115,36,185,300,370,423,439,434,420,382,354,334,311,285,256,239,205,176,143,117,113,102,80,66,47,44,27,2,-8,-34,-40,-56,-110,-197,-178,-142,-113,-20,12,-1,-4,-17,-16,-15,3,163,36
2018-05-16,10:45:54.629,-1316,-2910,-439,1515,1099,688,458,116,-44,-60,-85,-125,-161,-181,-208,-247,-291,-307,-334,-365,-377,-401,-435,-450,-450,-432,-404,-350,-278,-178,-37,121,262,363,433,451,428,411,393,366,333,302,275,253,226,201,165,140,125,105,88,83,56,54,49,47,34,15,2,-5,-17,-49,-164,-184,-143,-129,-42,37,32,21,13,0,0,0,129,228,-789,-3049,-1975,1054,1271,826,557,173,5,-6,-25,-63,-75,-102,-148,-183,-208,-247,-289,-310,-343,-374,-402,-420,-440,-431,-406,-368,-311,-229,-95,71,215,321,381,418,421,398,374,353,319,290,266,237,209,192,166,146,131,111,86,77
2018-05-16,10:45:55.666,75,66,54,29,15,16,3,-25,-27,-21,-98,-177,-146,-126,-86,27,65,53,50,35,26,23,68,320,66,-1811,-3475,-468,1305,1058,745,446,140,94,78,40,1,-34,-69,-100,-135,-180,-204,-227,-258,-300,-340,-367,-392,-394,-383,-356,-285,-222,-126,24,174,297,377,421,432,417,388,361,322,296,272,241,207,195,169,149,126,98,88,64,44,36,21,6,0,-8,-13,-23,-27,-51,-57,-86,-197,-204,-162,-144,-54,17,34,26,34,19,20,33,153,388,-466,-2908,-2802,592,1282,913,684,326,141,133,100,49,14,-28,-67,-98,-137,-163,-197,-236,-259,-300,-347,-379,-385,-377
2018-05-16,10:45:56.703,-367,-338,-292,-225,-102,62,204,307,374,400,404,390,361,331,307,288,250,234,221,194,167,133,111,93,79,72,46,23,16,22,13,10,10,-15,-34,-54,-59,-119,-223,-203,-169,-131,-25,19,8,3,-17,-11,-3,0,157,161,-1085,-3108,-1191,1366,1214,754,515,177,5,-19,-52,-82,-120,-140,-158,-186,-223,-260,-294,-327,-346,-377,-416,-430,-434,-406,-397,-347,-284,-192,-50,116,259,365,432,456,455,431,411,391,362,328,294,271,233,209,179,161,147,123,98,91,64,49,45,37,27,19,-13,-32,-30,-105,-201,-165,-126,-95,-3,36,20,3,5,4,6,29,191,67
2018-05-16,10:46:15.808,513,405,109,-143,-173,-168,-166,-166,-150,-147,-164,-185,-198,-232,-298,-355,-410,-477,-555,-616,-649,-644,-623,-569,-452,-247,-12,192,324,401,425,463,439,374,339,317,264,210,167,123,85,57,40,41,55,85,137,199,235,258,281,271,124,97,122,97,119,148,128,87,45,19,13,20,149,400,-258,-2470,-3085,138,1206,971,844,718,315,83,25,-33,-68,-98,-135,-177,-218,-260,-311,-361,-387,-468,-549,-540,-525,-546,-496,-422,-378,-326,-227,-78,90,254,355,403,412,391,381,366,343,332,314,276,248,221,170,134,124,161,322,39,-1654,-2821,261,2016,1463,853,314,179,192,156
2018-05-16,10:46:16.508,110,48,2,-41,-96,-157,-212,-260,-326,-397,-460,-508,-539,-541,-512,-454,-379,-276,-137,46,214,307,366,373,364,334,288,240,193,149,122,99,91,126,164,206,244,280,296,307,307,294,271,214,158,86,-75,-184,-180,-187,-150,-58,-17,-11,0,-2,-2,-1,105,402,-257,-2650,-3496,-221,1064,947,914,827,471,193,137,104,57,5,-33,-34,-28,-47,-42,-41,-50,-57,-49,-76,-210,-326,-429,-520,-587,-608,-595,-507,-339,-163,-23,64,119,151,157,143,104,110,117,128,160,195,203,222,253,259,252,273,272,271,259,254,227,198,120,-22,-57,-51,-43,15,37,26,-7,-30
2018-05-16,10:46:17.545,-40,-49,-56,39,1,-947,-2679,-1332,1390,1326,932,660,311,-110,-284,-325,-356,-394,-431,-436,-453,-453,-431,-401,-390,-368,-371,-371,-362,-363,-374,-359,-341,-308,-265,-176,-18,150,286,387,461,499,492,477,466,453,425,378,335,296,259,224,194,186,168,162,154,143,135,106,79,62,-7,-54,-3,47,115,228,294,331,344,315,280,219,160,274,-171,-1984,-3301,-463,1099,747,478,319,-54,-297,-330,-350,-376,-383,-379,-363,-353,-330,-306,-292,-271,-275,-278,-275,-291,-304,-314,-308,-281,-222,-139,-9,154,318,405,452,465,428,389,365,352,336,300,267,225,191,195,155,138,108,70,56
2018-05-16,10:46:18.582,20,-8,-19,-43,-52,-86,-206,-196,-119,-57,73,187,235,245,262,259,235,218,306,411,-472,-2824,-2925,416,1093,858,724,543,136,-5,-12,-52,-75,-110,-161,-205,-248,-289,-328,-368,-409,-439,-477,-510,-537,-545,-551,-532,-461,-366,-230,-22,204,387,520,618,665,658,632,567,475,386,300,220,155,96,38,13,-7,-14,-13,-6,-9,-20,-18,8,-24,-149,-164,-106,-56,41,130,153,164,175,182,185,191,308,473,-406,-2765,-2797,610,1405,1113,913,668,151,-50,-74,-136,-177,-217,-230,-248,-294,-360,-421,-562,-634,-611,-644,-699,-695,-679,-664,-661,-599,-481,-292,-10,284,484,638,743,799
2018-05-16,10:46:19.619,812,802,789,761,725,676,597,486,372,287,348,368,-538,-2472,-1405,1115,1238,680,222,-25,-3,-35,-94,-127,-149,-174,-240,-276,-300,-319,-354,-378,-420,-463,-487,-477,-435,-363,-249,-95,62,259,447,577,672,682,618,509,387,267,184,86,19,-23,-72,-97,-112,-114,-117,-118,-122,-107,-113,-130,-106,-144,-212,-168,-105,-46,62,166,190,192,199,205,200,203,323,214,-991,-2783,-950,1430,1158,891,683,387,5,-155,-206,-239,-263,-288,-335,-347,-387,-420,-456,-504,-531,-564,-614,-675,-725,-737,-707,-644,-552,-411,-214,36,282,493,640,714,739,727,674,619,549,462,385,322,249,204,190,174
2018-05-16,10:46:20.656,177,180,164,138,133,139,120,92,61,-7,-160,-189,-157,-148,-58,0,-16,-38,-37,-34,-50,-34,137,238,-878,-3218,-1997,1080,1213,1041,928,680,232,38,-55,-156,-247,-323,-384,-418,-443,-437,-443,-449,-472,-489,-511,-521,-542,-541,-508,-464,-404,-300,-149,57,274,458,570,653,687,695,672,639,604,552,505,452,400,348,272,200,158,113,87,64,22,-1,-24,-34,-81,-200,-201,-145,-131,-54,28,23,-11,-47,-59,-52,-44,38,125,-672,-2776,-2531,871,1495,1092,892,670,208,51,23,-41,-114,-170,-222,-257,-279,-292,-313,-330,-333,-336,-350,-379,-409,-447,-460,-438,-413,-358,-260,-119,59
2018-05-16,10:46:21.694,222,330,400,446,445,447,418,392,377,340,322,326,333,350,366,369,387,413,424,377,269,137,2,-173,-372,-423,-438,-418,-318,-238,-221,-230,-217,-192,-176,-156,0,-26,-1101,-2991,-1677,1196,1291,971,811,551,178,80,66,48,2,-34,-59,-110,-167,-229,-265,-324,-392,-474,-537,-597,-654,-676,-657,-595,-518,-405,-216,22,256,416,525,571,551,501,458,425,396,350,307,252,225,220,204,207,234,251,248,247,240,215,183,154,75,-83,-145,-124,-130,-89,-31,-17,-10,-14,-4,12,25,162,286,-577,-2790,-2447,656,1180,902,752,579,215,40,18,-26,-81,-113,-146,-178,-189,-182,-184
2018-05-16,10:46:22.731,-209,-234,-253,-278,-312,-319,-347,-401,-458,-500,-497,-416,-271,-94,61,160,248,316,314,300,306,322,315,292,267,238,222,213,228,233,241,246,263,260,256,269,266,260,190,42,7,10,-3,44,73,42,17,-15,-45,-56,-62,43,173,-731,-3035,-2547,845,1388,1059,843,533,64,-100,-131,-183,-237,-300,-350,-370,-384,-391,-392,-388,-356,-324,-329,-341,-345,-377,-378,-357,-335,-294,-203,-24,149,281,376,429,442,447,440,442,422,400,378,354,318,284,217,161,110,90,71,38,5,17,36,22,9,9,-48,-151,-119,-64,-38,64,142,172,185,194,207,169,127,218,122,-1268,-3800
2018-05-16,10:46:23.768,-2275,842,906,629,514,174,-138,-177,-186,-211,-226,-252,-271,-261,-259,-264,-253,-233,-222,-226,-240,-256,-282,-320,-323,-288,-250,-175,-29,188,397,525,611,648,655,605,542,495,466,420,368,307,261,228,178,149,136,97,68,35,23,-4,-60,-97,-110,-122,-199,-282,-236,-181,-110,11,86,119,143,139,123,144,170,269,152,-1018,-2924,-1442,1204,1040,716,557,329,18,-58,-77,-112,-133,-147,-174,-207,-231,-279,-342,-389,-428,-463,-500,-550,-585,-609,-597,-579,-513,-401,-211,26,266,454,581,658,708,719,654,568,481,382,275,160,67,12,5,1,-9,-40,-47,-33,-45,-55,-56,-61,-66
2018-05-16,10:46:24.805,-74,-187,-186,-101,-42,78,194,236,234,237,253,259,264,345,548,-105,-2327,-3050,260,1471,1150,922,707,202,-37,-76,-129,-183,-229,-254,-274,-297,-329,-348,-395,-449,-487,-546,-614,-715,-783,-791,-760,-685,-534,-310,-33,259,491,647,754,814,827,799,738,685,607,505,411,298,213,163,121,85,67,79,85,72,75,82,72,41,28,-25,-155,-177,-145,-148,-97,-40,1,-13,-20,-16,-27,-17,83,307,-456,-2805,-3223,114,1234,1074,972,817,383,177,102,-6,-136,-232,-312,-376,-416,-449,-487,-506,-524,-529,-540,-555,-576,-591,-578,-553,-494,-396,-242,-23,226,446,606,707,767,775,762,754
2018-05-16,10:46:25.842,720,653,602,546,495,423,363,296,220,142,104,83,52,28,5,-9,-22,-15,-30,-156,-203,-146,-166,-141,-52,-67,-79,-82,-107,-95,-94,-80,61,-224,-1748,-3159,-613,1449,1169,861,697,339,47,-17,-59,-133,-178,-231,-267,-298,-329,-359,-371,-376,-394,-433,-452,-483,-525,-549,-549,-502,-441,-343,-173,32,262,422,551,631,664,656,670,653,639,621,601,586,576,546,530,536,554,555,498,374,250,88,-46,-169,-263,-382,-504,-515,-486,-456,-382,-324,-310,-297,-295,-272,-264,-237,-110,-48,-930,-2893,-2038,926,1215,917,767,560,226,104,54,31,5,-54,-92,-117,-166,-237,-293,-338,-398,-463
2018-05-16,10:46:26.880,-526,-577,-633,-633,-635,-612,-540,-456,-303,-92,152,323,423,487,491,486,478,446,420,389,375,364,352,344,335,314,301,283,247,232,199,147,106,61,30,11,-102,-179,-131,-98,-55,34,48,76,80,63,58,47,67,333,195,-1514,-3832,-1447,937,934,847,794,414,99,43,24,-5,-55,-88,-72,-83,-115,-139,-146,-179,-216,-286,-384,-496,-593,-693,-747,-749,-692,-557,-374,-150,84,269,391,463,499,506,503,499,476,440,423,393,359,334,327,318,311,295,272,247,233,209,178,144,91,-21,-130,-144,-147,-134,-60,-17,-23,-31,-14,-19,-35,10,188,90,-1263,-3384,-1474,1452,1327
2018-05-16,10:46:27.917,978,771,322,-90,-160,-166,-193,-204,-229,-245,-247,-268,-290,-310,-347,-385,-428,-459,-489,-530,-539,-533,-502,-441,-329,-159,66,297,454,569,616,621,601,594,555,506,462,399,352,303,255,243,234,202,169,144,132,135,118,106,126,53,-17,35,81,161,282,311,257,162,51,-61,-142,-183,-121,-377,-1721,-3218,-1106,1082,818,534,384,79,-197,-218,-204,-218,-242,-240,-248,-251,-244,-250,-251,-268,-279,-313,-375,-427,-469,-482,-485,-477,-429,-337,-193,4,209,376,458,499,520,540,536,503,470,450,408,370,323,278,247,197,137,99,48,19,-10,-39,-92,-114,-177,-279,-212,-129,-66,54
2018-05-16,10:46:28.954,144,174,183,178,180,189,172,259,295,-697,-2865,-2217,715,1144,882,759,529,168,66,32,-24,-60,-105,-143,-192,-238,-283,-312,-357,-399,-451,-499,-548,-618,-654,-646,-594,-512,-426,-277,-65,153,329,470,548,569,520,446,363,274,224,183,154,142,127,124,110,103,104,104,93,80,79,82,73,0,-108,-76,-28,32,136,176,187,203,201,190,177,188,396,419,-966,-3515,-1960,1186,1381,1103,940,545,61,-47,-74,-130,-180,-214,-234,-282,-301,-331,-361,-417,-471,-526,-604,-668,-734,-764,-744,-692,-597,-445,-231,44,316,507,652,745,766,767,750,719,676,619,543,470,380,313,249,201
2018-05-16,10:46:29.991,184,168,139,154,135,103,98,82,-27,-147,-134,-128,-120,-45,-3,5,-11,-22,-23,-21,0,186,12,-1495,-3368,-917,1336,1071,890,771,457,158,101,45,-71,-193,-294,-387,-467,-521,-568,-601,-629,-648,-660,-671,-698,-716,-713,-682,-626,-551,-418,-225,10,268,475,616,679,718,733,723,704,666,602,534,477,429,380,338,309,265,218,159,110,59,10,6,-81,-179,-139,-99,-75,8,65,78,61,28,29,22,5,60,-146,-1298,-2688,-711,1645,1260,799,478,108,-222,-245,-226,-234,-230,-220,-223,-243,-269,-283,-318,-378,-445,-504,-556,-597,-611,-606,-577,-529,-452,-327,-163,50,251,409,524
2018-05-16,10:46:31.028,569,601,575,550,537,475,450,400,326,283,246,211,185,170,137,129,120,82,74,89,-3,-86,-65,-85,-144,-145,-150,-191,-201,-197,-195,-185,-136,49,-111,-1535,-3252,-1079,1337,1287,937,749,341,75,60,45,26,14,3,-11,-47,-71,-94,-115,-161,-213,-282,-348,-387,-452,-509,-528,-536,-500,-391,-195,35,226,381,492,547,555,546,528,492,421,371,330,282,216,164,115,84,70,55,59,52,34,51,66,-5,-63,-24,13,49,124,128,106,76,40,14,-10,19,279,98,-1640,-3806,-1325,1043,1034,863,794,441,126,80,40,-47,-87,-109,-160,-224,-257,-294,-346,-362,-397,-453,-500
2018-05-16,10:46:32.066,-545,-579,-577,-555,-502,-421,-281,-77,135,309,410,428,422,394,343,307,276,247,221,209,190,170,165,148,138,136,139,134,146,133,120,127,45,-29,26,63,108,192,224,210,189,178,158,138,150,262,-57,-1525,-2745,-38,1718,1150,800,548,165,-151,-236,-261,-271,-306,-333,-362,-400,-440,-466,-491,-551,-592,-644,-700,-745,-759,-750,-698,-611,-484,-317,-97,158,392,551,639,685,687,667,634,582,521,459,416,374,332,309,285,249,228,205,200,166,138,133,98,-58,-80,-56,-63,13,106,117,86,59,35,26,36,148,217,-735,-2784,-2035,991,1306,1034,864,616,167,-46,-163,-271
2018-05-16,10:46:33.103,-357,-407,-459,-497,-524,-534,-537,-536,-533,-537,-562,-576,-583,-592,-555,-505,-443,-340,-190,14,241,439,572,655,697,712,681,634,596,560,494,433,379,308,244,190,138,101,81,48,13,1,0,-88,-195,-163,-114,-93,20,70,44,23,-8,-59,-94,-66,74,-133,-1600,-3355,-1046,1489,1363,992,812,412,100,63,38,-11,-70,-122,-172,-221,-263,-317,-355,-377,-389,-408,-444,-498,-502,-506,-474,-444,-375,-292,-153,40,217,364,445,486,486,469,452,437,379,340,298,263,222,204,185,178,165,141,152,119,39,-21,-124,-300,-358,-318,-301,-236,-139,-95,-89,-73,-55,-51,-38,67,304,-410
2018-05-16,10:46:34.140,-2832,-3226,521,1516,1197,985,757,323,185,175,142,74,32,16,-4,-50,-104,-143,-193,-271,-346,-409,-502,-577,-589,-584,-569,-515,-419,-251,-46,169,362,494,568,577,577,556,507,458,414,354,299,270,218,166,157,142,139,132,155,140,135,134,90,-34,-49,-14,-13,28,73,68,47,16,12,5,22,135,251,-478,-2549,-2487,692,1193,849,678,526,157,-35,-32,-50,-113,-148,-177,-212,-247,-287,-327,-355,-376,-393,-427,-471,-503,-503,-486,-464,-450,-424,-339,-207,-41,105,210,276,312,311,311,323,319,290,254,216,182,166,154,142,135,132,141,150,154,147,163,104,13,11,39
2018-05-16,10:46:35.177,69,143,179,177,151,133,100,53,62,214,-52,-1549,-3030,-613,1544,1229,872,648,255,-91,-138,-154,-206,-245,-275,-301,-325,-379,-426,-468,-503,-547,-598,-631,-665,-690,-658,-571,-458,-350,-221,-32,195,406,549,648,695,694,653,582,525,452,410,368,337,310,273,250,242,227,193,176,160,116,98,81,-51,-152,-134,-122,-75,0,-8,-19,-25,-48,-54,-62,8,308,-191,-2337,-3535,-352,1229,1057,872,651,132,-143,-200,-248,-295,-308,-308,-334,-329,-319,-335,-344,-369,-401,-415,-432,-455,-475,-456,-409,-357,-270,-148,20,236,431,593,661,696,699,678,673,639,574,508,445,397,339,283,232
2018-05-16,10:46:36.214,172,152,150,104,66,43,50,49,-53,-156,-139,-117,-90,3,24,14,-2,-22,-55,-64,-47,85,-131,-1577,-3457,-967,1587,1256,899,743,363,62,11,-5,-58,-92,-124,-184,-220,-256,-275,-304,-360,-380,-380,-432,-461,-468,-488,-489,-472,-421,-324,-181,9,216,368,477,537,550,540,513,491,465,423,387,349,320,292,293,283,267,249,185,97,-8,-74,-152,-322,-365,-347,-336,-255,-163,-141,-132,-122,-131,-129,-116,-6,27,-823,-2671,-2011,1076,1360,924,708,500,156,35,29,5,-38,-89,-104,-104,-173,-221,-249,-283,-339,-402,-473,-529,-564,-572,-573,-542,-446,-352,-214,-13,180,349,465,560
2018-05-16,10:46:37.252,561,537,505,458,406,356,309,260,215,171,156,163,162,158,155,129,115,113,103,6,-104,-105,-83,-72,12,33,43,40,31,40,44,70,247,58,-1329,-2876,-696,1351,1069,828,665,377,121,50,-1,-37,-57,-88,-126,-184,-213,-237,-264,-268,-312,-317,-323,-350,-387,-401,-444,-477,-504,-503,-403,-239,-72,58,164,234,274,290,279,250,220,212,188,147,127,116,103,99,103,120,123,137,147,163,123,5,4,37,38,116,187,206,184,154,129,112,101,146,15,-886,-2323,-626,1723,1503,950,552,104,-228,-300,-319,-334,-365,-400,-420,-438,-468,-482,-497,-537,-580,-605,-603,-619,-606
2018-05-16,10:46:38.289,-584,-542,-483,-396,-290,-145,60,243,375,472,518,525,511,482,462,437,422,400,361,317,284,268,261,242,222,202,186,144,147,141,31,0,46,62,92,160,172,149,129,133,145,189,261,277,-309,-1794,-1356,1232,1624,1074,632,149,-230,-324,-391,-456,-483,-494,-498,-499,-517,-532,-568,-603,-628,-650,-663,-675,-667,-640,-586,-522,-435,-316,-166,-10,184,349,465,527,563,554,524,493,458,403,340,287,234,197,160,138,105,75,74,67,22,-13,4,-32,-187,-191,-136,-133,-55,-10,-7,-4,-2,-16,-6,21,135,153,-799,-2724,-1618,1338,1524,1016,727,362,11,-63,-93,-136,-171,-180
2018-05-16,10:46:39.326,-182,-197,-215,-216,-239,-266,-289,-312,-350,-349,-352,-362,-357,-343,-306,-248,-158,13,184,316,407,441,451,434,410,372,355,338,315,290,264,239,244,231,183,109,32,-33,-105,-159,-207,-311,-364,-322,-263,-184,-72,-37,-28,-28,-17,-22,-8,68,348,-126,-2244,-3240,123,1554,1234,1009,846,383,134,110,60,14,-19,-83,-120,-172,-218,-267,-330,-392,-445,-502,-543,-578,-592,-600,-573,-493,-400,-269,-85,111,296,427,510,550,544,522,492,435,373,314,262,228,201,193,202,205,218,221,197,188,177,167,67,-72,-92,-88,-85,-14,25,10,10,5,-4,10,71,377,261,-1491,-3873,-1163
2018-05-16,10:46:40.363,1370,1067,848,794,467,130,97,38,-48,-88,-119,-161,-211,-250,-269,-283,-287,-320,-345,-358,-357,-382,-432,-472,-521,-529,-468,-343,-168,19,174,285,370,417,422,402,391,355,303,266,232,210,200,189,200,214,215,220,204,204,207,87,1,37,41,94,178,186,146,138,120,92,78,101,144,-455,-2091,-1861,1090,1560,989,684,403,-18,-227,-249,-270,-312,-341,-379,-419,-470,-484,-497,-503,-513,-507,-510,-529,-504,-490,-505,-486,-405,-278,-170,0,184,331,432,518,548,536,520,497,460,450,409,364,316,298,282,243,218,202,180,176,150,45,-17,20,49,63,126,131,129,93,72
2018-05-16,10:46:41.400,79,87,141,212,-299,-1744,-1379,1206,1587,1072,700,280,-197,-417,-501,-566,-594,-612,-616,-621,-644,-645,-650,-667,-689,-705,-713,-733,-748,-732,-691,-634,-551,-435,-265,-79,113,302,446,516,537,537,534,534,509,452,404,380,323,282,245,205,194,172,150,116,104,95,40,-85,-103,-39,-29,28,106,96,71,37,9,2,-3,1,-102,-709,-2142,-1203,1387,1454,836,475,79,-102,-106,-119,-143,-165,-195,-217,-245,-269,-287,-302,-316,-332,-346,-364,-379,-371,-359,-347,-299,-219,-152,-38,116,286,432,548,617,640,613,571,525,472,446,400,370,351,324,294,273,243,229,218,190,157,88,-83
2018-05-16,10:46:42.438,-235,-250,-288,-316,-256,-247,-243,-263,-277,-270,-257,-196,-110,-634,-2164,-2027,728,1434,870,476,142,-143,-164,-165,-180,-183,-187,-196,-215,-219,-240,-279,-295,-333,-386,-409,-452,-501,-496,-474,-433,-384,-311,-191,-19,158,315,414,471,524,541,509,471,442,392,315,279,239,181,143,118,99,84,73,79,78,42,56,65,-46,-69,-25,-13,53,119,98,65,25,0,7,28,193,411,-582,-3173,-2664,724,1257,1005,883,658,236,72,37,-5,-48,-87,-129,-131,-159,-192,-240,-275,-322,-363,-405,-448,-462,-466,-458,-422,-375,-306,-164,-3,152,270,323,337,307,278,283,279,244,211,192,193,179
2018-05-16,10:46:43.475,158,142,126,129,133,140,146,123,93,84,87,10,-91,-68,-25,22,116,158,175,175,142,118,120,188,467,0,-2225,-3408,216,1668,1232,954,730,197,-158,-192,-208,-256,-293,-291,-311,-315,-348,-395,-436,-478,-527,-592,-641,-681,-688,-667,-617,-547,-413,-262,-53,172,377,516,604,660,673,654,618,565,502,451,401,345,308,277,237,205,213,203,162,140,106,123,11,-84,-59,-52,-18,81,127,106,104,94,72,59,113,286,-333,-2381,-2802,477,1328,950,779,598,244,31,-30,-151,-262,-338,-399,-448,-487,-509,-524,-521,-521,-536,-541,-538,-548,-555,-554,-531,-478,-400,-294,-113,78,274
2018-05-16,10:46:44.512,430,538,606,652,642,622,597,552,499,450,407,357,311,275,240,178,148,116,72,64,29,-113,-158,-122,-85,-43,40,93,70,41,15,8,18,93,89,-841,-2791,-1842,1307,1537,999,682,381,-29,-146,-143,-177,-200,-202,-235,-265,-307,-342,-369,-391,-442,-472,-498,-511,-506,-522,-493,-445,-381,-293,-161,8,176,333,430,489,492,509,497,484,450,410,362,307,261,202,158,137,118,117,105,85,59,57,77,20,-117,-148,-141,-162,-122,-98,-89,-108,-122,-109,-91,-50,141,127,-1193,-3412,-1548,1252,1287,966,815,434,105,56,28,3,-17,-35,-68,-100,-128,-158,-181,-211,-238,-301,-376
2018-05-16,10:46:45.549,-447,-496,-545,-559,-527,-462,-365,-206,4,202,368,480,545,552,568,552,502,458,410,351,305,248,184,142,114,102,84,98,109,105,77,87,88,-42,-98,-40,-20,16,73,81,68,36,9,-9,1,90,361,-324,-2733,-3426,187,1178,947,820,667,256,90,56,25,-56,-108,-134,-211,-241,-269,-302,-342,-391,-452,-496,-526,-552,-549,-522,-480,-429,-353,-236,-72,110,237,325,380,378,376,375,375,345,313,285,268,252,233,194,156,147,131,118,108,97,97,82,98,41,-64,-32,3,15,96,159,165,147,122,105,84,83,215,65,-1172,-2795,-825,1636,1288,930,659,305,-90,-185
2018-05-16,10:46:46.586,-187,-215,-239,-267,-325,-371,-403,-426,-465,-491,-551,-609,-659,-692,-720,-719,-682,-591,-471,-316,-123,108,324,487,596,651,677,672,635,575,513,454,407,355,302,266,261,247,222,201,185,163,143,113,88,28,-91,-115,-82,-83,-12,47,42,18,1,-3,-11,-2,175,113,-1271,-3343,-1497,1231,1209,922,715,347,-78,-199,-234,-289,-295,-301,-321,-327,-349,-338,-346,-363,-381,-388,-398,-437,-469,-454,-435,-404,-342,-240,-103,88,284,444,555,627,647,630,617,592,547,479,431,387,314,248,201,151,125,107,91,60,44,13,-9,-18,-64,-177,-189,-149,-127,-55,13,20,3,-32,-39,-40
2018-05-16,10:46:47.624,-35,76,112,-931,-3181,-2183,1112,1455,1064,876,568,164,52,41,-4,-42,-91,-145,-188,-211,-241,-283,-316,-335,-362,-398,-431,-465,-467,-476,-448,-376,-312,-224,-67,108,257,353,421,432,451,427,416,400,363,308,279,250,216,199,165,152,124,95,56,9,-26,-74,-114,-192,-315,-317,-269,-231,-114,-35,-15,-7,5,0,-4,36,198,223,-1007,-3346,-1838,1402,1458,1079,912,527,154,101,67,13,-5,-40,-81,-136,-193,-237,-261,-299,-352,-432,-474,-515,-553,-578,-553,-494,-423,-331,-192,-7,195,370,470,535,547,538,529,486,444,394,340,286,236,187,173,172,171,168,148,145,145,121
2018-05-16,10:46:48.661,90,80,51,-73,-128,-103,-85,-33,21,23,16,22,12,-2,-2,130,255,-543,-2616,-2385,751,1188,838,689,538,166,-19,-55,-82,-142,-196,-244,-270,-303,-323,-343,-341,-355,-384,-417,-450,-496,-550,-580,-605,-592,-538,-444,-290,-62,137,285,394,469,507,497,472,449,421,380,334,289,257,230,210,200,202,206,213,210,193,151,151,137,15,-33,2,-5,33,106,121,90,59,25,8,20,100,198,-555,-2560,-2419,832,1571,1139,855,552,46,-158,-195,-253,-309,-370,-397,-416,-430,-450,-461,-458,-451,-447,-460,-464,-475,-474,-456,-413,-350,-272,-155,-6,154,320,428,480,506,526,522,522
2018-05-16,10:46:49.698,498,465,431,398,362,321,261,236,226,187,145,121,112,80,70,61,-9,-153,-171,-133,-122,-55,-16,-7,15,3,12,22,55,300,362,-1021,-3566,-2338,794,1118,843,690,320,-57,-109,-114,-143,-153,-156,-167,-190,-209,-223,-249,-272,-298,-328,-370,-404,-418,-411,-395,-355,-288,-197,-67,79,250,404,513,554,577,582,525,476,455,387,319,283,248,202,157,140,115,84,75,73,46,19,11,-26,-155,-173,-144,-137,-70,-12,8,6,-9,-10,19,48,142,241,-661,-3003,-2328,1074,1385,993,778,531,143,2,-40,-75,-112,-151,-179,-221,-265,-267,-289,-319,-342,-383,-424,-467,-495,-510,-495
2018-05-16,10:46:50.735,-463,-393,-290,-185,-32,142,301,415,475,478,480,490,461,413,403,380,347,320,289,245,162,75,4,-35,-80,-122,-135,-132,-245,-275,-200,-154,-96,0,28,22,23,31,39,29,79,211,-364,-2140,-2460,628,1539,1086,827,635,201,6,1,-15,-41,-102,-144,-182,-218,-276,-315,-355,-402,-456,-504,-560,-599,-631,-617,-556,-495,-423,-288,-91,127,291,405,488,518,518,509,485,467,432,395,364,346,324,294,260,225,197,180,167,138,100,75,41,-69,-128,-96,-68,-29,45,65,61,61,29,16,28,127,415,-166,-2446,-3517,-315,1155,1003,903,800,367,82,30,-26,-82,-121,-143,-157
2018-05-16,10:46:51.772,-179,-201,-209,-239,-280,-297,-351,-412,-506,-607,-655,-648,-613,-533,-406,-204,20,209,349,438,501,528,516,494,465,417,393,339,306,263,249,240,235,224,215,214,176,130,132,125,-1,-76,-55,-57,-14,58,59,40,25,-17,-31,-27,56,312,-362,-2672,-3232,265,1453,1158,926,662,110,-128,-147,-207,-265,-297,-311,-318,-325,-315,-324,-325,-329,-354,-382,-417,-452,-473,-467,-435,-391,-320,-192,-25,146,303,427,524,557,568,568,530,512,468,431,401,351,298,243,211,179,157,127,89,60,65,10,-145,-165,-151,-130,-43,26,29,18,12,9,14,48,206,105,-1205,-3271,-1514,1375,1142
2018-05-16,10:46:52.810,773,551,212,-128,-181,-168,-181,-196,-220,-245,-251,-256,-281,-317,-356,-385,-413,-437,-469,-482,-482,-444,-393,-337,-254,-99,110,306,475,576,629,640,625,591,552,501,438,367,310,269,235,196,202,175,145,124,81,63,56,-33,-139,-121,-96,-113,-42,-3,8,2,-17,-34,-42,0,158,-88,-1581,-3149,-772,1469,1199,881,702,352,71,14,-39,-91,-122,-140,-185,-210,-230,-253,-275,-295,-333,-378,-421,-436,-454,-474,-460,-427,-359,-258,-121,35,210,351,418,445,458,457,452,427,414,381,357,306,239,153,92,62,35,5,-17,-52,-96,-105,-102,-200,-229,-173,-138,-71,-6,14,5,-3
2018-05-16,10:46:53.847,11,9,12,140,343,-471,-2823,-2870,542,1428,1132,972,715,262,112,99,50,4,-37,-73,-115,-172,-223,-271,-324,-372,-444,-500,-535,-581,-579,-559,-517,-476,-387,-236,-7,182,322,407,468,479,463,446,423,394,361,340,312,302,288,280,265,250,225,211,187,161,131,116,40,-114,-158,-134,-122,-48,12,7,4,3,6,15,26,248,401,-936,-3840,-2655,827,1142,968,931,655,203,64,48,10,-38,-76,-98,-112,-135,-172,-216,-261,-313,-397,-470,-562,-659,-715,-738,-704,-618,-479,-277,-42,160,318,450,550,572,558,557,543,490,437,390,347,319,296,287,254,230,223,207,187,172
2018-05-16,10:46:54.884,161,118,-21,-21,11,-22,43,118,83,51,49,34,7,6,91,104,-784,-2706,-1920,1175,1423,1003,749,461,27,-162,-183,-226,-279,-333,-354,-376,-394,-403,-399,-415,-416,-441,-467,-501,-527,-542,-533,-514,-466,-349,-199,-15,200,366,473,536,579,570,565,533,476,465,424,381,344,302,263,219,173,161,135,96,62,52,5,-143,-171,-137,-124,-55,0,47,48,35,34,22,43,154,145,-873,-2896,-1960,1028,1312,885,577,239,-132,-219,-207,-212,-206,-234,-261,-272,-277,-305,-349,-372,-399,-433,-469,-488,-495,-498,-458,-392,-328,-220,-82,112,306,447,544,604,627,616,596,572,507,416,369
2018-05-16,10:46:55.921,316,273,232,193,164,149,133,113,89,55,33,38,-76,-198,-178,-149,-126,-39,3,8,1,-9,-12,-6,48,259,-31,-1837,-3551,-618,1483,1237,933,778,333,62,18,-28,-90,-131,-142,-163,-202,-220,-244,-281,-298,-315,-364,-404,-430,-461,-464,-453,-415,-369,-267,-116,79,247,334,402,436,445,425,398,368,346,329,301,262,240,220,196,154,108,56,9,-27,-58,-62,-98,-235,-248,-189,-146,-44,49,58,39,44,47,19,28,175,329,-605,-2996,-2894,699,1432,1132,977,690,210,94,85,45,-18,-70,-102,-145,-193,-221,-260,-318,-374,-435,-491,-549,-587,-585,-582,-548,-486,-387,-197,16
2018-05-16,10:46:56.958,230,376,488,542,553,542,515,474,410,369,333,303,265,256,249,240,235,233,202,172,136,114,90,-9,-109,-84,-66,-55,5,21,36,15,12,22,2,35,223,-2,-1482,-2993,-677,1358,1056,822,663,317,-10,-106,-129,-165,-214,-252,-279,-303,-323,-345,-371,-391,-427,-473,-503,-545,-591,-631,-652,-638,-580,-471,-302,-82,144,324,445,532,579,564,540,500,456,407,376,335,296,267,249,213,196,206,222,212,178,157,167,76,-52,-11,8,34,111,122,119,97,65,45,24,51,212,-106,-1707,-2992,-278,1594,1235,900,629,191,-124,-193,-247,-292,-319,-344,-395,-443,-464,-472,-471,-492
2018-05-16,10:47:07.145,664,393,105,11,-27,-33,-85,-92,-119,-143,-186,-229,-257,-295,-308,-335,-372,-385,-379,-386,-403,-362,-296,-234,-94,118,280,382,400,413,384,342,347,311,276,254,210,185,182,167,134,97,68,48,22,28,44,63,-32,-115,-100,-70,-4,69,90,110,99,92,111,126,178,308,-154,-1949,-2837,60,1450,1017,772,507,94,-201,-220,-223,-312,-343,-339,-385,-440,-489,-520,-544,-568,-572,-593,-586,-564,-523,-437,-286,-146,-26,-43,-72,8,208,380,473,530,555,565,544,520,501,464,433,377,351,319,288,277,236,192,173,156,100,116,42,-59,0,30,63,139,173,177,158,106,80
2018-05-16,10:47:08.695,82,91,219,-158,-1869,-3593,-1046,1168,1074,841,667,274,-40,-76,-96,-161,-216,-263,-279,-282,-306,-336,-343,-363,-388,-423,-438,-460,-457,-448,-429,-423,-369,-279,-137,116,320,453,533,574,577,548,466,384,328,247,192,197,166,111,85,64,64,9,-56,-63,-82,-52,-6,-79,-79,13,77,146,267,332,278,215,131,40,28,71,296,-88,-2155,-4064,-914,1071,1006,891,822,463,243,211,159,114,87,59,28,-15,-52,-64,-116,-196,-242,-269,-320,-369,-391,-417,-401,-373,-337,-271,-137,26,164,236,284,334,369,381,376,356,345,303,274,242,190,133,90,78,76,69,56,45,40,42
2018-05-16,10:47:09.732,45,-65,-104,-58,-28,21,91,99,95,82,59,43,29,83,266,-241,-2168,-3116,-25,1389,978,763,560,135,-151,-203,-262,-276,-328,-369,-384,-405,-429,-479,-469,-451,-421,-405,-435,-416,-348,-293,-306,-363,-397,-300,-111,98,293,428,512,561,599,599,567,508,480,438,389,386,367,327,282,235,231,229,195,129,114,89,0,-31,17,21,61,150,173,118,87,75,52,9,18,103,-568,-2568,-2992,148,1286,946,695,529,140,-90,-139,-182,-214,-241,-260,-266,-299,-308,-276,-277,-303,-324,-378,-422,-438,-452,-477,-469,-387,-305,-201,-19,173,339,477,543,557,497,390,331,266,234,209,201
2018-05-16,10:47:10.769,199,158,110,67,42,31,9,10,-21,-38,12,65,12,-16,43,101,223,306,243,117,0,-16,-3,3,53,395,108,-1858,-4179,-1501,841,934,852,805,540,309,229,197,163,102,74,57,-10,-66,-106,-141,-160,-183,-212,-266,-359,-393,-417,-489,-479,-429,-376,-251,-114,39,167,238,315,351,368,384,383,365,334,279,242,203,173,156,132,135,135,150,220,198,166,182,111,7,41,74,94,151,142,154,142,104,101,97,96,242,57,-1472,-3371,-993,1498,1159,906,675,285,-137,-243,-262,-319,-370,-402,-407,-397,-389,-432,-512,-473,-410,-427,-429,-407,-383,-395,-437,-436,-395,-310,-160
2018-05-16,10:47:11.807,70,288,410,446,504,585,581,524,515,506,465,408,340,298,287,287,227,166,132,105,60,61,79,3,-53,-6,6,4,94,139,144,109,85,41,-6,-4,70,-301,-1818,-3029,-517,1363,1026,735,543,178,-136,-171,-167,-247,-305,-329,-339,-338,-346,-352,-354,-374,-382,-397,-422,-454,-481,-473,-450,-403,-308,-165,-29,128,322,464,533,517,466,397,339,308,278,219,199,196,177,130,87,56,38,13,23,26,16,40,-57,-174,-59,55,104,213,306,304,248,176,105,44,37,163,208,-898,-3305,-2419,654,1101,895,787,563,233,133,109,67,36,-10,-20,-73,-139,-172,-199,-234,-304
2018-05-16,10:47:12.844,-375,-395,-422,-460,-463,-450,-440,-415,-349,-226,-62,132,299,379,409,390,377,352,333,324,312,269,242,202,147,128,106,93,75,78,75,75,82,49,-76,-104,-50,-21,24,102,154,125,98,114,107,127,257,478,-397,-2943,-3168,693,1433,1100,891,623,73,-181,-202,-232,-259,-296,-354,-394,-433,-461,-463,-456,-534,-585,-540,-500,-485,-458,-388,-244,-139,-131,-99,100,181,294,378,466,546,582,583,557,522,490,447,399,377,338,297,276,244,204,175,160,143,140,32,-34,9,33,104,173,173,169,143,120,88,57,92,133,-450,-2131,-2586,262,1357,902,580,338,-27,-239,-259,-282
2018-05-16,10:47:13.881,-307,-321,-332,-363,-382,-390,-392,-424,-457,-482,-519,-527,-504,-487,-468,-416,-348,-274,-185,-23,177,357,482,553,587,600,534,427,314,262,215,164,143,160,141,132,118,39,15,12,-16,-22,-85,-207,-218,-153,-93,49,155,261,244,269,310,182,128,166,77,-1175,-3335,-1792,978,1080,840,706,431,107,38,34,23,-16,-79,-99,-122,-142,-210,-234,-211,-260,-334,-362,-406,-454,-449,-408,-412,-376,-288,-155,-17,149,298,393,439,409,330,302,262,224,206,199,189,179,173,167,144,105,82,78,78,65,78,14,-72,-65,-50,3,89,132,147,159,131,114,116,140,402,251,-1685,-4293
2018-05-16,10:47:14.918,-1279,1428,1279,1097,940,444,8,-88,-119,-164,-224,-271,-308,-323,-342,-412,-473,-520,-563,-594,-623,-668,-608,-516,-418,-268,-145,5,246,597,548,477,439,475,512,520,504,477,460,422,377,321,299,301,255,215,208,178,165,158,157,73,-79,-98,-84,-57,39,112,162,195,198,165,134,140,268,188,-1091,-3113,-1627,1219,1204,835,590,242,-137,-220,-204,-194,-202,-250,-284,-282,-298,-354,-385,-411,-437,-452,-460,-486,-499,-485,-461,-425,-322,-222,-88,129,328,488,595,663,653,635,570,499,428,326,257,223,174,161,129,116,108,95,61,5,-8,-118,-224,-180,-172,-185,-61,55,115,145
2018-05-16,10:47:15.955,160,132,125,169,202,0,-1213,-2896,-1092,1224,1078,763,597,318,12,-41,-2,-57,-104,-134,-158,-180,-217,-231,-255,-285,-306,-323,-394,-458,-470,-457,-428,-357,-254,-141,-42,174,267,293,417,490,464,394,337,283,234,188,153,128,128,101,92,81,60,79,76,30,1,-104,-145,-99,-82,-47,57,114,123,120,121,99,92,152,424,3,-2117,-3673,-234,1466,1180,1003,858,375,-14,-144,-207,-235,-254,-284,-313,-333,-343,-420,-486,-535,-605,-667,-720,-735,-701,-685,-638,-463,-259,-45,198,445,652,748,761,730,671,613,564,524,481,446,415,356,335,291,250,214,182,176,169,150,125,-38
2018-05-16,10:47:16.993,-93,-49,-24,-8,54,76,43,30,55,73,86,221,462,-439,-2869,-3200,231,1328,1069,807,503,13,-165,-201,-220,-243,-270,-302,-312,-302,-297,-322,-368,-405,-431,-454,-504,-542,-555,-523,-473,-411,-311,-161,30,234,411,523,601,641,645,633,586,548,523,475,424,368,305,213,97,15,-15,-15,29,27,-124,-182,-153,-161,-112,-10,1,-14,-35,-70,-22,29,104,222,-323,-2118,-2363,814,1667,1084,721,468,74,-118,-134,-141,-168,-206,-226,-232,-249,-284,-331,-339,-381,-485,-562,-590,-588,-589,-561,-511,-460,-371,-272,-67,211,387,519,572,524,547,558,549,502,444,313,166,124,115,47,18
2018-05-16,10:47:18.030,20,6,10,30,-23,-126,-116,-79,-50,-2,38,44,47,48,41,49,53,166,202,-831,-3032,-2039,1135,1305,1036,878,669,250,123,88,12,-100,-201,-260,-318,-406,-438,-466,-484,-517,-580,-647,-694,-727,-781,-784,-698,-583,-421,-208,-5,274,502,668,763,842,875,934,764,540,438,351,295,265,249,226,220,212,210,144,93,132,57,-55,-50,-59,-35,90,101,107,101,77,67,66,119,496,269,-1866,-4112,-1380,1081,1106,1024,912,524,171,98,54,-28,-110,-243,-300,-345,-427,-417,-388,-419,-440,-464,-474,-519,-558,-560,-527,-475,-409,-309,-88,139,310,423,524,585,595,585,567,535,484
2018-05-16,10:47:19.067,452,393,351,355,348,301,279,242,188,136,74,-19,-172,-268,-246,-195,-93,-1,26,9,-44,-65,-65,-71,-31,-23,-678,-2513,-2526,1037,1889,1342,1008,783,296,20,-60,-128,-195,-241,-282,-304,-318,-331,-333,-352,-352,-393,-472,-493,-535,-564,-531,-500,-440,-343,-191,8,194,313,424,504,566,611,628,622,586,537,484,414,350,325,304,249,158,77,14,-49,-75,-180,-243,-205,-190,-126,-10,28,51,64,36,-6,-18,33,112,-533,-2217,-2448,488,1347,935,716,576,187,-21,-17,-56,-113,-147,-163,-186,-193,-220,-311,-443,-588,-735,-791,-805,-848,-800,-685,-590,-520,-405,-247,-72,123,321,405
2018-05-16,10:47:20.104,499,542,586,623,635,529,541,652,736,718,739,553,189,124,157,136,113,99,91,69,79,92,71,71,137,41,17,32,32,35,-3,47,67,36,-8,-116,-40,-64,-100,-69,-19,-64,-157,-220,-233,-256,-245,-200,-166,-249,-295,-228,-175,-150,-170,-129,-35,36,64,146,189,-8,-158,-169,-99,-219,-284,-245,-231,-167,-80,-39,-35,-37,-20,7,55,246,-29,-1864,-3877,-1002,1364,1282,1083,1001,620,301,190,48,-78,-198,-302,-350,-404,-407,-421,-438,-474,-531,-581,-597,-637,-640,-601,-520,-407,-242,-45,45,159,522,721,739,575,416,395,490,303,302,471,325,175,189,242,182,141,132
2018-05-16,10:47:21.141,168,192,185,192,141,-8,-31,2,1,95,140,165,189,129,104,113,189,468,321,-1371,-3444,-1048,1440,1246,1074,905,491,65,-94,-152,-208,-266,-302,-343,-352,-345,-382,-406,-437,-477,-557,-647,-706,-718,-710,-657,-563,-446,-308,-63,191,422,579,641,664,710,719,666,614,550,519,505,435,368,313,251,163,57,-13,-3,-18,-155,-226,-152,-127,-84,-19,2,-29,-36,-56,-60,-80,-55,-24,-513,-2168,-2308,847,1825,1228,919,606,79,-188,-208,-203,-214,-224,-240,-259,-294,-326,-327,-355,-397,-466,-505,-561,-606,-621,-621,-587,-533,-400,-253,-59,167,417,602,686,753,774,740,693,613,537,496
2018-05-16,10:47:22.179,440,395,406,334,203,100,-1,-48,-90,-199,-221,-165,-132,-72,-21,-6,6,-5,-29,-52,-53,63,176,-797,-3184,-2693,974,1366,1017,834,611,187,45,17,-25,-71,-89,-105,-153,-169,-205,-260,-298,-409,-524,-618,-695,-784,-823,-801,-714,-593,-459,-293,-52,173,308,416,489,538,559,579,564,623,621,626,642,409,313,350,275,58,14,28,-19,-116,-87,-51,-56,10,70,115,105,93,77,81,103,398,314,-1575,-4305,-2280,771,1035,986,970,739,443,384,376,330,203,106,52,6,-45,-98,-134,-223,-330,-475,-596,-685,-767,-824,-779,-699,-605,-461,-263,-31,206,369,470,518,537,538,522
2018-05-16,10:47:23.216,480,428,400,364,325,283,252,237,212,192,203,119,28,55,54,12,60,106,94,71,61,21,-54,-61,34,-411,-2069,-2730,423,1775,1233,820,466,-6,-273,-303,-369,-376,-384,-367,-343,-292,-248,-308,-261,-181,-183,-540,-815,-819,-744,-668,-583,-501,-404,-217,-15,178,352,480,512,561,573,573,566,526,509,480,409,395,384,382,531,552,161,53,29,8,32,47,87,187,227,198,176,97,-39,-68,25,52,-787,-2848,-2630,682,1350,917,654,457,57,-141,-164,-206,-256,-252,-262,-289,-304,-303,-331,-375,-416,-445,-477,-522,-569,-612,-605,-564,-494,-399,-243,-66,158,392,501,481,453,468
2018-05-16,10:47:24.253,502,467,425,361,281,243,224,185,126,92,66,55,51,-26,-116,-29,52,172,256,272,292,223,144,80,8,32,345,6,-2058,-3943,-886,1071,940,821,743,429,186,162,183,114,58,34,31,1,-19,-60,-122,-139,-179,-286,-369,-424,-375,-369,-468,-375,-325,-389,-220,23,214,360,391,402,444,440,418,388,353,326,307,255,197,141,99,70,33,30,56,7,-50,-8,3,20,119,156,138,103,111,124,118,205,394,-350,-2664,-3124,457,1518,1161,961,730,219,-95,-117,-142,-191,-254,-308,-339,-359,-424,-468,-510,-558,-594,-686,-726,-731,-708,-644,-545,-453,-301,-108,94,253,382,498
2018-05-16,10:47:25.290,582,627,619,602,550,525,518,481,416,384,345,305,287,265,239,216,136,4,18,43,27,82,227,274,255,266,281,258,220,310,-78,-1695,-2619,44,1483,1118,777,467,29,-249,-266,-299,-385,-431,-419,-390,-400,-439,-461,-454,-465,-507,-545,-587,-625,-628,-595,-516,-427,-341,-221,-23,192,371,504,591,642,625,632,620,554,478,372,267,201,142,93,67,39,51,34,14,-93,-193,-187,-174,-157,-66,-28,0,26,24,41,75,139,234,-326,-2089,-2847,413,1792,1197,781,523,87,-125,-131,-146,-168,-208,-189,-223,-256,-256,-279,-279,-300,-337,-392,-464,-484,-471,-479,-455,-411,-355,-281,-133
2018-05-16,10:47:26.327,100,322,493,585,613,598,621,533,466,416,324,233,180,138,88,55,49,12,-12,-14,-122,-205,-156,-116,-83,-1,42,58,76,80,93,109,177,438,-42,-2304,-3737,-443,1395,1244,1066,890,497,232,212,194,128,46,-49,-124,-229,-343,-410,-489,-574,-582,-588,-695,-781,-800,-777,-736,-664,-534,-356,-131,114,352,547,695,763,754,776,836,756,601,455,338,264,244,211,158,133,124,131,148,82,-38,-69,-48,23,116,158,133,111,112,114,93,121,322,48,-1684,-3432,-573,1390,1170,1002,833,462,142,56,-2,-69,-128,-210,-313,-382,-433,-464,-502,-540,-566,-616,-636,-640,-631,-627,-647
2018-05-16,10:47:27.365,-578,-508,-415,-226,22,245,405,520,600,615,622,604,557,524,483,437,395,365,334,285,246,196,148,111,7,-180,-175,-113,-136,-86,-17,21,18,19,-13,-59,-81,-68,-345,-1459,-2595,-448,1709,1320,863,523,246,19,-21,-117,-228,-317,-360,-396,-394,-379,-381,-386,-385,-398,-426,-476,-509,-537,-539,-510,-434,-356,-274,-169,-3,215,384,470,541,575,546,551,587,631,592,490,384,287,285,320,300,168,98,90,-8,-223,-289,-245,-229,-176,-77,-47,-36,-26,-42,-44,-28,106,103,-1065,-3375,-2046,1119,1328,1006,843,531,147,58,47,15,-14,-32,-87,-123,-148,-163,-186,-253,-339,-457,-585
2018-05-16,10:47:28.402,-680,-727,-753,-726,-656,-571,-462,-302,-105,134,309,379,429,451,448,457,438,363,357,417,437,475,474,457,453,406,286,168,72,6,-133,-143,-107,-81,-20,53,76,64,30,25,25,40,232,438,-836,-3752,-2984,653,1127,1020,980,769,335,144,115,105,89,39,0,-36,-89,-117,-160,-260,-384,-479,-580,-680,-743,-748,-697,-612,-484,-356,-212,-29,120,255,401,505,540,557,559,517,440,378,347,331,319,299,278,271,283,257,223,219,142,-20,12,46,10,61,99,23,-46,-49,-47,-41,-18,7,-412,-1782,-2410,282,1738,1197,757,415,-14,-272,-356,-323,-244,-210,-174,-133,-174,-244
2018-05-16,10:47:29.439,-315,-376,-424,-475,-508,-605,-648,-635,-594,-531,-440,-324,-224,-82,110,266,402,504,565,580,600,565,496,465,413,330,270,251,278,262,238,188,157,143,27,-65,-61,-35,-17,24,31,-8,-32,-61,-95,-85,-34,76,-292,-1822,-3185,-240,1602,1157,811,600,213,-53,-104,-115,-150,-171,-182,-190,-192,-207,-227,-246,-284,-311,-339,-384,-434,-483,-497,-478,-439,-426,-371,-256,-89,103,272,393,460,493,488,450,400,337,283,203,160,153,161,128,79,144,202,241,316,268,217,228,129,20,29,44,58,26,-3,-40,-28,94,369,-342,-2849,-3648,-206,1071,941,863,746,371,237,219,160,101
2018-05-16,10:47:30.476,72,23,-64,-141,-188,-193,-187,-212,-275,-337,-405,-470,-528,-549,-541,-520,-479,-373,-227,-40,138,288,388,439,467,505,466,419,387,371,348,320,274,224,209,186,153,124,144,104,-5,-20,10,23,96,177,165,124,125,156,136,125,228,203,-983,-3222,-1854,1326,1466,1099,809,387,-114,-247,-264,-314,-371,-391,-394,-386,-385,-425,-462,-402,-381,-398,-400,-381,-353,-345,-416,-440,-397,-323,-225,-69,118,289,440,511,531,547,523,503,494,454,416,404,353,311,296,272,224,177,166,70,-96,-77,-5,33,113,185,198,161,113,112,82,58,98,-132,-1329,-2881,-944,1451,1146,767,538,207
2018-05-16,10:47:31.513,-121,-191,-190,-232,-281,-324,-374,-383,-378,-379,-383,-388,-415,-442,-445,-458,-448,-435,-393,-335,-282,-235,-124,22,218,358,435,479,500,478,381,310,277,255,238,247,216,170,143,93,32,1,3,-44,-196,-211,-128,-43,87,223,306,304,317,252,189,64,160,123,-1056,-3290,-2076,838,1080,858,741,501,196,140,107,55,-14,-43,-52,-92,-149,-166,-152,-184,-258,-308,-371,-453,-465,-444,-427,-415,-380,-320,-230,-62,102,178,243,302,328,332,286,239,230,242,256,245,231,215,177,142,119,95,74,67,-37,-105,-71,-42,10,96,139,158,161,154,153,149,239,528,-103,-2632,-3826,127
2018-05-16,10:47:32.551,1575,1310,1127,872,324,-25,-115,-177,-250,-290,-289,-247,-291,-347,-384,-438,-487,-555,-612,-641,-681,-643,-569,-464,-344,-191,-15,208,462,614,587,568,555,533,519,496,473,451,401,361,301,289,276,238,247,259,256,184,38,-16,-25,-5,54,118,107,105,120,135,174,180,296,294,-770,-2781,-1709,1078,1224,907,689,349,-56,-194,-229,-277,-339,-365,-393,-413,-383,-382,-396,-407,-461,-487,-510,-545,-536,-498,-449,-386,-300,-222,-137,21,214,359,487,533,529,543,532,499,455,388,327,301,212,132,76,43,24,-24,-32,-55,-166,-189,-154,-139,-73,-25,-26,-35,-39,-33,-12,-51,-13,-44
2018-05-16,10:47:33.588,-1043,-2885,-1045,1735,1546,1153,865,435,6,-97,-138,-196,-207,-229,-257,-262,-249,-264,-298,-336,-365,-392,-424,-457,-459,-440,-408,-361,-333,-278,-170,-39,84,210,341,435,474,484,471,435,359,313,289,251,218,142,47,13,-21,-36,-35,-112,-203,-149,-99,-64,51,101,95,96,86,68,66,111,318,2,-1798,-3515,-715,1364,1189,998,896,526,236,183,144,106,49,-18,-87,-148,-236,-337,-415,-487,-544,-594,-637,-668,-662,-629,-595,-518,-421,-340,-180,19,224,380,481,482,509,576,604,608,612,611,591,531,446,339,236,161,127,85,65,-32,-159,-129,-74,-84,7,101,108,113,65,42
2018-05-16,10:47:34.625,56,52,331,99,-1727,-3623,-913,1122,973,837,778,478,187,113,68,0,-51,-100,-138,-178,-251,-333,-408,-467,-542,-576,-620,-630,-625,-575,-526,-472,-387,-301,-151,43,222,361,464,534,565,552,518,504,482,449,404,386,377,307,257,237,200,183,148,20,-22,-34,-40,12,64,55,13,15,-8,-30,-8,40,-145,-1143,-2566,-749,1717,1348,857,506,109,-223,-253,-226,-196,-204,-151,-140,-236,-306,-361,-430,-494,-530,-567,-569,-607,-567,-513,-481,-406,-325,-243,-123,62,225,374,449,480,502,506,473,419,395,406,393,376,337,305,264,207,166,119,34,-129,-208,-197,-198,-183,-100,-82,-98
2018-05-16,10:47:35.662,-69,-34,13,48,118,199,-615,-2776,-2598,760,1452,1100,868,576,143,-22,-28,-32,-54,-70,-89,-96,-107,-140,-186,-227,-280,-330,-382,-462,-502,-507,-537,-510,-460,-417,-315,-118,84,258,369,419,448,413,363,328,298,275,220,190,239,264,273,327,298,272,294,183,0,-45,-61,-89,8,74,48,17,20,19,26,81,370,142,-1875,-4170,-1282,1182,1107,1001,943,626,344,227,158,111,37,2,-24,-63,-94,-151,-201,-249,-296,-394,-479,-561,-631,-654,-646,-584,-472,-323,-129,77,252,366,443,495,508,515,528,461,383,345,313,299,278,230,194,163,170,161,134,-5,-27,-23,-35,7
2018-05-16,10:47:36.699,67,83,99,115,148,130,54,77,-109,-1403,-2896,-715,1699,1397,956,619,154,-250,-336,-338,-383,-391,-393,-417,-461,-379,-291,-241,-210,-236,-332,-416,-432,-515,-493,-417,-353,-273,-196,-73,99,278,436,527,641,611,572,570,550,480,440,369,376,379,313,265,187,158,134,0,-207,-228,-169,-133,-27,0,-15,1,-28,-38,-30,19,76,-422,-1975,-2329,805,1821,1255,846,575,153,-97,-173,-245,-318,-382,-382,-370,-393,-412,-416,-424,-444,-482,-513,-479,-483,-481,-523,-457,-383,-286,-169,26,150,315,495,526,521,523,455,365,279,217,183,144,105,76,13,-49,-26,-19,-24,-106,-163,-49,63
2018-05-16,10:47:37.737,137,291,390,355,279,209,157,102,130,168,-430,-2445,-3156,22,1285,1018,862,669,220,70,67,13,-53,-103,-129,-170,-230,-196,-222,-282,-327,-363,-463,-551,-605,-592,-559,-524,-435,-343,-247,-122,25,166,307,385,414,427,394,392,365,339,347,349,360,343,313,275,218,190,116,-48,-92,-94,-118,-76,-2,37,50,63,73,108,127,312,365,-976,-3666,-1994,1366,1397,1144,993,656,165,-27,-119,-227,-297,-319,-340,-348,-356,-394,-408,-492,-589,-624,-672,-692,-669,-580,-489,-346,-173,59,304,567,623,483,369,525,556,383,355,392,425,413,288,269,330,193,132,185,185,115,34,35,71
2018-05-16,10:47:38.774,51,108,173,172,139,152,202,221,253,408,122,-1488,-2876,-413,1394,1119,876,659,288,-38,-136,-216,-267,-303,-320,-376,-391,-367,-431,-487,-494,-509,-545,-597,-635,-633,-618,-531,-436,-329,-183,5,193,302,437,549,605,583,554,527,469,383,332,324,300,243,194,95,26,8,-1,-119,-149,-116,-89,-44,23,26,7,-12,-43,-75,-60,11,39,-682,-2662,-1926,1367,1557,1070,690,395,7,-116,-78,-170,-243,-241,-232,-199,-274,-276,-248,-281,-349,-386,-406,-444,-481,-479,-410,-330,-269,-208,-109,50,212,345,493,559,615,555,479,438,366,318,287,225,155,95,80,3,-66,-31,-159,-230,-151
2018-05-16,10:47:39.811,-82,-42,52,102,119,112,95,55,18,97,256,-564,-2943,-3063,431,1346,1109,987,749,339,188,160,125,51,1,-24,-71,-151,-183,-221,-329,-488,-639,-673,-664,-657,-606,-577,-540,-477,-413,-303,-109,91,270,409,508,588,601,599,597,599,582,599,520,366,302,218,88,136,139,-33,-133,-99,-77,-85,-5,81,99,101,86,112,93,115,376,182,-1650,-3794,-986,1146,1013,946,849,560,301,217,170,88,6,-79,-115,-151,-232,-347,-455,-539,-603,-656,-717,-736,-731,-680,-592,-453,-312,-144,17,155,278,392,471,535,549,528,503,512,474,430,402,369,337,282,251,250,233,126,50,49
2018-05-16,10:47:40.848,9,0,88,99,71,33,5,-5,-24,17,-25,-668,-2125,-1648,1174,1666,1062,644,274,-193,-362,-332,-318,-315,-313,-281,-245,-206,-260,-351,-390,-454,-549,-617,-664,-692,-649,-558,-469,-398,-283,-157,-12,150,287,399,468,517,490,451,456,410,383,367,347,310,293,261,225,216,203,97,-22,-36,-26,-12,51,82,70,18,-54,-106,-123,-71,71,-325,-1983,-3258,-127,1615,1217,860,665,240,-50,-90,-117,-151,-192,-230,-227,-221,-233,-269,-311,-342,-449,-528,-512,-506,-486,-418,-363,-283,-220,-81,59,209,378,469,458,453,508,522,499,448,374,316,259,208,163,145,132,113,7,9,56,104
2018-05-16,10:47:41.885,133,135,187,223,198,146,87,43,-34,-104,-106,-114,-115,-107,-110,-90,-73,-75,-70,-49,-44,-57,-54,-51,-56,-79,-29,-16,-46,-64,-69,-78,-106,-76,-19,0,9,-26,-23,19,-35,-79,-79,-131,-217,-243,-263,-256,-185,-104,-62,-79,-92,-55,1,149,-62,-1460,-3119,-825,1348,1188,912,759,411,121,74,80,42,7,-22,-47,-64,-69,-71,-85,-106,-146,-201,-267,-320,-352,-408,-456,-405,-351,-281,-214,-135,-52,34,143,241,306,322,292,283,254,242,222,192,139,202,260,244,256,213,192,97,-31,-39,-29,-21,47,104,107,88,77,86,78,123,272,-172,-1919,-2625,386,1381,986
2018-05-16,10:47:42.923,852,671,290,28,5,-5,-74,-98,-113,-150,-193,-222,-266,-317,-359,-382,-449,-573,-675,-732,-757,-750,-691,-565,-369,-138,75,286,438,515,528,521,531,495,421,345,295,247,229,214,224,230,205,193,167,47,-47,-33,-6,48,145,176,164,160,141,124,121,197,4,-1317,-3251,-1353,1532,1516,1067,722,264,-181,-307,-327,-364,-381,-375,-418,-369,-301,-269,-236,-246,-257,-277,-316,-438,-555,-598,-600,-552,-469,-365,-209,-3,189,324,458,535,547,555,554,537,532,491,466,429,407,326,255,223,198,82,-80,-68,8,30,54,103,116,106,63,58,58,52,216,-40,-1735,-3825,-1211,1438,1288
2018-05-16,10:47:43.960,971,790,259,-30,-75,-96,-91,-76,-112,-161,-179,-195,-206,-252,-310,-349,-389,-447,-516,-525,-487,-444,-398,-303,-173,-23,197,391,523,586,609,593,488,392,375,344,295,280,233,194,141,53,23,-73,-215,-191,-129,-52,64,163,221,260,255,225,157,128,175,-136,-1555,-2909,-514,1331,982,684,539,321,90,19,-7,-46,-95,-146,-191,-218,-233,-217,-232,-297,-366,-429,-492,-552,-548,-490,-438,-382,-295,-177,-36,147,312,394,404,374,320,274,244,210,169,140,112,100,113,110,139,166,59,-53,-79,-55,-45,29,83,107,115,107,126,154,208,282,-405,-2388,-2418,817,1453,1081,878,667
2018-05-16,10:47:44.997,233,27,-58,-176,-261,-313,-357,-373,-379,-394,-447,-501,-547,-646,-728,-761,-777,-762,-737,-674,-492,-287,-62,185,402,559,668,697,673,628,581,541,504,432,349,300,264,230,218,195,196,119,8,5,35,22,63,140,147,133,117,131,148,204,468,-236,-2723,-3705,-144,1244,1043,889,700,294,119,90,32,-45,-137,-205,-260,-278,-294,-342,-374,-411,-445,-469,-516,-577,-566,-494,-422,-380,-296,-171,-25,172,352,479,569,617,613,612,595,573,508,491,467,386,341,304,251,211,157,-53,-152,-164,-142,-58,39,71,78,64,44,16,-11,57,-236,-1698,-3269,-759,1796,1428,1020,821,462,185
2018-05-16,10:47:46.034,104,21,-79,-136,-190,-261,-261,-286,-344,-395,-441,-468,-502,-504,-572,-595,-571,-528,-441,-312,-187,-13,163,325,452,516,563,592,572,546,530,518,482,420,354,298,238,173,132,-3,-166,-188,-175,-163,-87,-16,-14,-33,-24,26,25,37,122,-409,-2078,-2522,486,1520,1048,716,453,68,-109,-100,-105,-132,-146,-169,-193,-242,-276,-309,-358,-420,-466,-522,-598,-633,-638,-602,-605,-558,-480,-331,-118,104,269,392,457,471,433,402,372,308,229,206,225,264,253,298,294,279,251,86,26,2,-45,-19,49,29,2,27,45,24,59,243,3,-1643,-3473,-995,1328,1158,946,831,488,188,87,51
2018-05-16,10:47:47.071,-8,-49,-51,-61,-95,-150,-224,-334,-433,-505,-571,-644,-672,-664,-664,-636,-584,-466,-295,-74,190,414,576,670,708,689,651,588,500,438,407,348,280,250,239,219,198,185,174,167,144,158,154,143,157,151,136,142,114,81,35,-59,-98,-145,-161,-176,-156,-168,-174,-185,-177,-146,-158,-161,-157,-159,-180,-176,-128,-61,55,154,294,125,9,48,74,-119,-104,-98,-167,-229,-188,-88,-154,-305,-248,-206,-148,-70,-47,-3,5,32,51,136,314,-402,-2727,-3210,211,1118,1003,962,835,516,347,277,213,148,100,19,-55,-135,-236,-289,-333,-386,-411,-417,-397,-408,-376,-320,-299,-288,-248,-224
2018-05-16,10:47:48.109,-185,-149,-90,21,185,309,371,381,389,396,410,391,359,336,345,315,281,247,236,207,91,33,72,70,82,67,26,32,8,-2,4,8,17,-225,-1164,-2352,-508,1730,1340,786,443,115,-191,-258,-221,-198,-183,-261,-296,-349,-417,-483,-520,-555,-598,-664,-678,-716,-720,-681,-649,-563,-436,-311,-124,118,294,448,562,637,661,652,610,569,548,511,467,443,395,355,307,239,167,128,15,-86,-92,-94,-94,-29,11,-19,-27,-7,1,23,100,193,-610,-2832,-2783,871,1538,1133,873,567,143,32,52,16,-29,-54,-58,-89,-102,-106,-106,-165,-251,-313,-341,-389,-421,-459,-498,-557,-587,-553
2018-05-16,10:47:49.146,-474,-306,-65,163,316,420,483,492,438,369,271,199,204,227,256,289,308,309,294,348,327,185,113,49,-8,59,100,89,60,11,-4,-8,26,336,-171,-2450,-3823,-532,1201,1083,967,875,467,205,142,83,25,-31,-63,-72,-79,-98,-111,-141,-189,-253,-330,-423,-484,-490,-506,-500,-467,-424,-347,-207,-14,166,313,425,467,503,488,458,418,367,302,249,255,242,218,213,184,134,-3,-31,-6,21,99,126,148,167,157,138,110,88,173,14,-1223,-2971,-792,1583,1163,851,581,247,-94,-221,-245,-288,-343,-370,-364,-374,-399,-469,-461,-415,-398,-404,-437,-416,-404,-434,-434,-403,-354,-252
2018-05-16,10:48:00.533,35,44,83,52,-72,-653,-2397,-2983,400,1786,1264,759,456,76,-158,-110,-73,-86,-122,-206,-212,-262,-390,-318,-241,-286,-394,-525,-530,-588,-576,-643,-654,-480,88,331,-649,-469,119,331,506,757,963,1052,1570,945,-60,-157,-508,-478,-174,-55,-44,-156,-168,100,719,997,2040,-582,-1663,-471,-908,-811,-162,452,937,-353,-2411,-2300,46,942,984,812,658,322,270,355,273,62,-101,-249,-321,-343,-353,-400,-435,-540,-702,-714,-769,-812,-765,-639,-451,-343,-231,-1,291,488,613,699,779,888,1028,900,823,869,738,627,638,471,304,195,39,-181,-276,-261,-23,728,681,-267,-646,-554,-332,-26,228,493
2018-05-16,10:48:01.845,320,-184,-2095,-1617,103,610,632,329,60,-29,501,900,528,-252,-1180,-1353,-715,-453,-342,211,332,-64,16,-988,-1676,-1104,-487,-234,-206,-210,-45,242,527,841,990,741,538,493,444,314,205,179,172,150,168,59,-65,-63,-9,-90,-115,-35,-2,136,260,313,383,356,350,271,246,321,-58,-1537,-1909,1153,2442,1679,1042,514,-92,-500,-570,-612,-505,169,113,-743,-138,-397,-1182,-988,-637,-464,-404,-489,-318,336,-409,-1581,-1277,-669,-421,-260,6,422,1304,1768,899,-797,-287,430,-340,608,1301,284,-112,34,-775,-622,-193,74,92,-5,41,50,16,243,287,216,184,84,-260,-1073,-2311,-690,2044,1837
2018-05-16,10:48:02.882,967,309,-87,-358,-381,-377,-365,-317,-323,-302,-273,-207,-252,-273,-323,-379,-395,-415,-411,-344,-175,-50,13,-21,-100,-104,-17,141,187,259,381,820,961,638,238,-345,-467,47,386,401,306,475,924,-75,-578,493,39,-895,-734,-179,5,348,1344,2029,907,-932,-1835,-3838,-3728,-103,1186,1567,1336,463,-41,55,-357,-592,-338,-188,-126,-134,-43,4,-136,-290,-483,-622,-723,-854,-835,-758,-781,-691,-486,-327,-160,96,353,592,728,778,821,759,790,806,724,681,603,535,603,674,647,484,490,602,451,308,254,230,29,-107,-113,-35,223,288,-933,-2075,-2514,-582,1185,1224,938,837,698,748,1292,-640
2018-05-16,10:48:03.919,-1754,-1021,-482,-420,-429,-220,1045,999,-159,-1412,-2068,-1709,-1090,-786,-451,754,521,-94,852,-363,-1386,-369,422,665,697,742,839,893,1005,976,658,397,262,169,43,-65,-74,-43,-153,-207,-154,-146,-188,-167,-124,-181,-205,-70,14,72,134,90,135,186,146,166,262,266,271,316,509,483,311,120,-117,-256,-411,-468,-456,-398,-327,-68,210,-2,-305,-374,-469,-417,-238,17,761,276,402,588,-843,-1522,-833,-331,-175,31,-380,-2137,-3067,780,1766,-637,-875,117,-310,-273,783,1652,72,-542,-1194,-852,-344,-253,-80,-9,-104,-92,-61,-56,-23,-188,-361,-404,-393,-344,-265,-198,-87,6,49,155,231,248
2018-05-16,10:48:04.957,340,331,271,208,266,412,458,461,529,543,390,252,243,290,298,431,553,657,542,412,372,263,169,-288,-1984,-3537,-168,2046,1792,1393,709,-214,-578,-207,114,229,471,656,1277,219,-1744,-1407,-727,-592,-630,-646,-652,107,644,554,-892,-2977,-1792,-499,-194,1148,1491,-60,-574,-260,-71,131,415,597,563,353,387,515,519,542,317,139,69,-2,-20,-3,-26,-51,-62,-9,-58,-89,-199,-728,-2033,-1624,1197,1757,1246,908,603,239,0,-39,-39,-73,-48,-57,-57,-115,-150,-226,-204,-346,-548,-785,-1006,-1061,-1029,-1062,-735,-536,-470,-536,-267,121,392,593,1287,2296,1048,-313,-175,-124,-88,69,126,92
2018-05-16,10:48:05.994,-20,0,678,1109,861,-568,-1532,-800,-210,-120,34,566,530,301,-482,-2981,-3146,240,1207,1083,1024,986,639,517,493,233,-44,-123,-121,-270,-389,-409,-396,-405,-513,-631,-657,-685,-827,-827,-752,-598,-556,-435,-165,186,470,738,987,1079,1186,1245,1161,978,756,843,846,612,537,305,-79,-175,-158,-191,-125,-74,292,501,150,57,116,-343,-427,-882,-2723,-1896,1357,2168,1368,805,-63,-749,-447,-130,-92,-135,207,516,325,556,482,-1236,-1332,-1219,-1229,-824,-567,-502,-276,-143,-452,-423,-198,76,299,514,640,865,903,772,539,380,206,57,27,14,-22,-34,-134,-301,-296,-227,-140,30,20,39,99,179
2018-05-16,10:48:07.031,315,304,357,211,-604,-2009,-321,2094,1837,1274,850,519,169,-72,-179,-220,-348,-523,-556,-765,-877,-543,-290,-645,-832,-747,-801,-707,-609,-193,-236,526,87,-1534,-1569,-560,37,208,272,307,348,492,836,1261,950,513,-677,-807,-192,-399,-195,-101,-70,39,181,218,185,228,181,192,282,450,-82,-2083,-2759,930,2527,1660,904,431,-119,-402,-399,-451,-446,-411,-377,-350,-387,-357,-409,-417,-395,-374,-450,-471,-477,-458,-375,-195,-60,77,199,348,559,834,938,786,731,715,492,303,261,132,188,100,236,198,-493,-796,-276,169,282,411,1063,1107,-254,-234,609,-92,-476,-994,-2716,-1678,1346,1774,1195,1116
2018-05-16,10:48:08.068,356,-74,-614,-895,-513,-453,-323,-69,-62,-137,-93,-53,-134,-231,-377,-501,-527,-427,-352,-401,-312,-174,-208,-156,29,183,219,278,307,259,286,281,292,273,234,226,336,371,249,254,271,271,315,353,384,331,439,463,478,446,324,-294,-2040,-1166,1798,1612,956,663,325,402,-474,-584,-528,-725,-708,-521,-257,-124,-101,312,164,-462,-552,-1015,-1007,-780,-731,-724,-339,-31,-157,-144,-560,-906,-443,15,116,309,614,409,253,431,-57,-434,-4,221,86,33,97,209,364,322,318,309,191,142,124,126,3,-579,-1842,-1997,671,1757,1209,643,230,-196,-369,-412,-394,-346,-310,-188,-158,-79,-101,-126
2018-05-16,10:48:09.105,-146,-162,-184,-200,-172,-254,-293,-340,-319,-300,-238,-231,-219,-46,130,263,299,243,572,776,577,322,-644,-389,119,244,80,-20,316,300,-280,-344,-187,-149,-39,447,954,572,398,146,-1469,-3964,-2508,268,569,659,754,543,125,-128,-87,-41,38,141,198,156,-25,-256,-439,-498,-589,-678,-748,-793,-822,-783,-730,-670,-566,-391,-181,14,293,607,808,779,749,792,805,835,798,724,588,501,481,424,380,502,529,540,506,486,443,207,27,-42,128,452,-438,-3112,-2866,888,1405,822,715,985,1591,200,230,813,-1324,-1823,-889,-473,-460,-478,-499,-501,-492,-235,466,627,-638,-1434,-1330,-836,-504,-343
2018-05-16,10:48:10.143,-221,25,210,431,549,620,683,699,643,678,588,391,254,110,-24,-143,-101,-68,-79,-70,12,84,87,59,69,104,265,174,-855,-2656,-750,2356,2217,1718,1239,695,145,-31,-18,0,69,72,-64,-185,-277,-319,-358,-537,-701,-728,-570,191,-890,-1715,-1270,-1028,-846,-398,95,723,594,1681,913,-1244,-1024,22,299,259,205,229,701,1234,381,-248,1082,-128,-747,134,128,-283,175,-464,148,368,210,-69,-1736,-3015,-432,1336,1418,1333,1139,767,298,-13,-108,-162,-300,-379,-391,-356,-423,-503,-487,-509,-583,-686,-631,-599,-586,-450,-252,-211,-94,142,351,557,718,853,885,948,940,944,946,945,689,541
2018-05-16,10:48:11.180,379,122,-204,-334,-267,-282,-47,213,262,-23,-359,-248,13,152,386,669,-434,-2591,-930,788,296,-24,52,-57,-187,176,1226,798,-217,188,-1375,-1632,-836,-361,233,-346,-1025,-1157,-876,-742,-619,-515,-524,-468,-263,-207,51,287,258,318,411,463,257,137,130,163,160,143,142,103,-5,2,49,165,189,152,142,230,325,442,375,-275,-1776,-1187,2232,2689,2018,1669,1093,194,-262,-251,-244,-462,-682,-740,-712,42,222,-1163,-1415,-1136,-1022,-916,-836,-711,-253,168,-427,87,129,-1371,-1289,-314,123,189,219,313,921,1753,1665,361,-1203,-673,307,-296,-527,-114,178,-72,-98,-269,-192,63,310,400,282,267
2018-05-16,10:48:12.217,327,520,315,-1111,-2827,-630,2027,1600,859,531,171,-234,-428,-427,-365,-411,-373,-320,-349,-454,-518,-444,-329,-278,-231,-156,-252,-366,-244,-123,43,174,346,465,497,439,514,587,381,218,120,35,63,431,7,-268,-52,-108,-303,-336,106,898,463,283,594,-386,-1028,-499,-108,16,85,-794,-2519,-581,1520,28,-185,15,-609,-418,367,293,201,487,-840,-1381,-604,12,-22,-162,-147,-202,-325,-394,-440,-565,-697,-656,-481,-231,-165,-94,95,257,356,375,381,386,419,402,393,426,362,373,377,304,337,425,464,455,527,568,522,498,561,654,759,575,-17,-1403,-1999,954,2105,1254,813,270,79,-272
2018-05-16,10:48:13.254,-776,-990,-526,-569,-623,-347,-188,-233,569,526,-1158,-1494,-646,-1024,-1247,-834,-394,-40,61,60,46,-50,80,-310,-528,-475,-92,190,558,988,414,40,368,362,150,43,140,253,199,448,658,554,316,250,152,21,-35,-368,-1499,-2038,712,2054,1374,770,463,85,-89,-77,10,42,58,70,69,37,-66,-92,-146,-281,-207,-146,-141,-186,-292,-346,-375,-411,-481,-291,-249,118,326,439,381,285,-68,-108,258,465,463,1001,1683,28,-1023,-71,14,-810,-559,-108,0,499,1242,165,-40,227,-99,-1572,-3713,-2347,922,1167,900,380,211,110,-8,33,63,60,-36,-81,-77,-133,-281,-360,-486,-558,-591,-614
2018-05-16,10:48:14.291,-728,-754,-654,-598,-584,-496,-324,-119,122,376,570,654,738,838,907,863,822,841,813,752,664,462,394,301,367,467,588,651,576,406,138,11,-26,39,-977,-2832,-2346,826,1502,516,-8,162,59,62,400,547,510,331,-1062,-1596,-803,-401,-464,-530,-416,-77,748,388,-472,-1629,-1669,-1151,-872,-458,-172,15,198,370,505,587,610,679,731,668,604,644,562,243,62,14,-118,-136,-90,-45,-30,-51,-39,-40,-54,-21,-213,-955,-2096,-498,1969,1766,1286,956,603,180,5,-41,7,21,-18,-57,-3,-27,-79,-152,-411,-705,-815,-878,-915,-763,-718,-652,-445,223,403,146,-253,-210,254,542,599,992
2018-05-16,10:48:15.329,1536,439,-823,-646,-302,-265,-307,-3,614,916,1253,-551,-2215,-1468,-433,-284,-105,581,731,-397,-1888,-3322,-1057,783,853,882,901,718,430,380,420,215,-85,-166,-120,-164,-336,-403,-436,-466,-565,-687,-751,-724,-692,-606,-516,-461,-364,-143,81,382,679,865,872,930,1014,835,701,716,733,714,572,354,308,253,185,205,130,85,251,877,-45,-1008,-737,-362,-543,-1918,-3494,-247,2032,1558,1226,960,-374,-1078,-709,-256,-164,-254,-300,40,985,168,-443,268,-858,-1362,-972,-316,-918,-1164,-695,-304,-295,-273,-105,92,357,403,487,702,709,780,909,727,445,221,71,8,-156,-263,-235,-205,-188,-58,22,2
2018-05-16,10:48:16.366,55,148,212,225,176,-102,-1098,-1721,828,2294,1736,1281,803,448,189,113,80,50,-69,-139,-223,-457,-623,-713,-739,-859,-759,-747,-631,-1100,-999,-762,-667,-476,82,500,866,1298,102,-1251,-1001,-82,201,124,47,81,463,459,367,1198,-449,-393,-1344,-1577,-546,-353,-318,-91,2,30,65,364,200,-1670,-3704,-808,1867,1869,1644,1206,413,-58,-120,-186,-235,-234,-265,-267,-300,-376,-367,-379,-390,-409,-475,-629,-687,-556,-434,-315,-149,-26,145,326,549,823,892,1058,1111,1062,980,796,691,633,502,203,-81,-101,122,643,27,-740,-711,-572,-222,111,359,963,1985,888,-2731,-4673,-1207,824,852,672,530,197
2018-05-16,10:48:17.403,340,996,1043,198,-712,-1055,-713,-244,112,-61,-494,-465,-200,4,-100,-267,-190,-65,-89,13,180,229,445,694,727,478,346,307,268,293,340,162,44,40,53,-55,-91,-35,51,109,189,239,307,392,470,456,488,470,-130,-1611,-878,2179,2276,1648,1165,711,285,-27,-127,-341,-529,-535,-667,-541,-788,-519,-491,-986,-814,-676,-522,-199,-223,796,-355,-1865,-1394,-566,-435,-336,-67,663,1029,1571,596,-1009,-963,-340,-70,43,83,39,18,218,303,-86,-105,219,377,447,345,289,273,130,-131,-1343,-2898,-203,2454,1931,1110,583,65,-237,-232,-216,-207,-183,-164,-158,-140,-159,-343,-329,-288,-232,-239,-203
2018-05-16,10:48:18.440,-258,-311,-254,-174,-52,38,256,474,509,654,742,684,484,330,186,133,240,163,275,31,-1032,-1080,-615,-535,-200,65,250,349,1026,381,-818,-652,-243,-297,-1664,-3487,-935,2018,1522,1600,406,-1047,-978,-658,-271,116,190,-125,-92,157,-369,-567,-252,-54,-126,-297,-429,-481,-397,-410,-440,-374,-287,-160,-74,34,102,176,210,210,160,132,135,165,131,149,238,81,36,201,381,508,548,531,548,503,579,574,536,462,-252,-1542,-86,2144,1659,856,245,-194,-623,-916,-754,-786,-872,-568,-505,-908,-604,-279,-341,242,787,-419,-1521,-1307,-1113,-1036,-813,-624,-225,707,163,-171,255,-290,-523,-362,-125,99
2018-05-16,10:48:19.477,268,435,100,42,216,168,103,95,122,195,392,360,345,470,259,111,189,166,-614,-2318,-1861,1688,2149,1347,848,415,-40,-114,-78,-93,-191,-227,-190,-140,-54,20,32,-5,-57,-117,-245,-275,-206,-90,30,111,192,131,123,282,295,240,268,78,-384,194,300,-285,-221,-212,-220,123,284,171,311,1078,524,110,-422,-904,-519,-114,-61,79,519,627,-1558,-2358,229,573,758,634,127,-413,-268,301,-5,-430,-184,107,138,99,124,184,89,-227,-320,-251,-285,-411,-426,-303,-313,-275,-217,-132,0,158,280,316,308,341,369,403,341,357,457,538,509,451,439,449,457,556,598,583,652,684
2018-05-16,10:48:20.515,621,464,262,-450,-2178,-1560,1359,1398,684,334,-74,-571,-529,-375,-915,-1058,-602,-355,-314,102,1141,43,-1923,-1374,-1340,-1299,-958,-841,-786,-616,-186,249,-379,-586,281,-549,-779,6,283,245,247,292,287,212,257,205,201,321,248,97,65,168,213,215,222,153,113,93,29,-610,-2266,-2387,1050,2115,1505,1096,781,258,-37,-82,-73,-11,33,41,107,44,-108,-204,-215,-184,-152,-177,-297,-345,-282,-215,-203,-258,-340,-29,875,276,-757,-564,-172,-379,-217,111,352,644,258,824,1056,-1041,-1044,-160,-353,-485,-199,-35,-21,71,707,821,307,650,-1183,-3916,-1681,883,858,941,857,393,127,214,192,165
2018-05-16,10:48:21.552,128,170,399,314,150,36,-177,-455,-642,-798,-828,-781,-735,-736,-532,-394,-443,-361,-122,66,245,393,405,481,611,597,618,664,724,683,519,387,369,475,630,798,815,638,514,408,395,295,94,-427,-1924,-2865,26,1165,369,192,67,-231,-150,253,621,43,-952,-426,-179,-1162,-1243,-713,-603,-614,-526,82,257,-777,-803,-264,-1153,-1046,-642,-365,757,589,-657,-341,-206,157,581,585,671,570,298,272,149,61,-37,-44,0,51,205,210,105,65,76,65,168,-13,-1390,-3108,-127,2336,1915,1444,988,425,111,136,209,274,277,319,352,339,321,220,150,92,-137,-300,-316,-348,-360,-468,-539,-322
2018-05-16,10:48:22.589,-107,-404,-1147,-1218,-889,-158,238,312,665,1292,276,-223,387,-198,-605,-372,-207,-105,302,790,244,-30,418,-480,-443,987,619,-31,-1551,-2575,-169,691,792,935,689,398,348,300,189,204,216,258,194,-68,-242,-279,-232,-428,-722,-799,-784,-818,-736,-636,-557,-406,-266,-93,132,348,539,662,744,832,929,829,761,806,738,637,545,565,482,421,422,442,419,164,-60,-94,-166,96,363,-582,-3298,-1741,1075,917,536,544,1044,1486,-90,-1298,-508,-491,-1607,-1339,-888,-732,-228,95,-549,-373,-997,-1471,-1370,-1270,-1215,-300,206,-364,-632,-838,-690,-152,-26,229,450,474,445,352,362,239,237,175,-66,-134
2018-05-16,10:48:23.626,-45,106,201,77,79,60,27,-35,-17,28,-384,-1963,-3031,234,2115,1559,1191,1006,535,224,197,208,276,263,219,233,268,124,136,78,-86,-200,-303,-604,-792,-751,-697,-620,-472,18,-142,3,420,172,-486,-239,335,624,511,412,666,486,-232,-293,384,-29,-721,-525,342,676,-164,-265,684,811,-98,-488,-1141,-2929,-1682,962,1349,640,415,382,242,194,147,119,163,308,567,567,210,240,112,-331,-566,-561,-699,-785,-727,-651,-462,-357,-387,-307,-111,121,285,333,337,457,579,656,716,680,601,580,365,304,492,507,561,703,746,636,572,544,324,95,34,-664,-2636,-2679,801,1566,1202,953
2018-05-16,10:48:24.663,-377,-452,-334,-487,-482,-114,450,27,53,20,-1021,-1647,-1274,-760,-649,-666,-545,-273,6,338,353,-687,-1155,-643,-387,-247,169,401,501,546,551,535,555,522,541,415,188,333,370,117,90,261,404,386,293,143,96,4,-280,-1610,-3086,125,2344,1736,1164,912,505,227,241,263,257,299,245,166,90,23,-13,38,5,-3,-66,-166,-269,-272,-356,-592,-627,-361,-190,-323,-752,-495,-187,-75,-59,180,808,1063,160,295,485,-782,-1129,-604,-215,-184,-72,298,1153,849,1069,-80,-1700,-749,-310,-2498,-1473,2001,1008,762,860,-85,-898,-426,65,145,108,116,276,287,210,305,66,-339,-566,-627,-759,-892
2018-05-16,10:48:25.701,-915,-863,-728,-584,-496,-448,-262,-47,161,332,455,533,558,553,582,620,552,495,369,352,427,471,607,772,648,617,548,432,207,14,-199,-904,-2661,-2386,1041,1662,1734,1091,422,-319,-1080,-952,-503,-264,-230,-333,-287,-447,-790,-679,-312,-790,-1619,-1101,-715,-702,-113,-792,-1757,-1374,-421,-855,-1120,476,935,-278,-583,-279,-164,-37,144,219,315,183,157,473,410,307,307,200,106,91,138,109,107,110,-472,-2144,-2013,1520,2262,1490,1031,730,109,-86,-32,76,109,223,267,340,302,126,-16,19,-43,-27,54,105,-5,-64,-85,-82,-161,-319,-164,41,351,642,1060,42,-247,323,213,183,509,1154
2018-05-16,10:48:26.738,1826,483,-1006,-446,-570,-690,-356,-152,-119,-64,242,1191,518,-355,-340,-2459,-2186,-107,1188,1927,996,-125,528,241,-1169,-696,-149,97,185,145,140,192,385,293,-16,-354,-609,-733,-735,-730,-661,-601,-509,-276,-148,-21,127,167,3,-36,86,170,266,368,449,476,404,395,375,365,555,624,653,632,704,576,406,315,-196,-1604,-2419,322,1737,910,606,-61,-528,-454,-331,33,-124,-729,-774,-628,-468,268,940,1058,-1153,-2834,-1884,-912,-829,-881,-835,-755,-663,-421,326,1339,487,-227,-113,-76,491,-35,-396,-252,47,-141,37,149,141,180,143,325,530,221,75,98,-42,-95,-55,-589,-2224,-2298,1641,2289
2018-05-16,10:48:27.775,1280,744,397,-118,-211,-181,-208,-216,-79,29,53,52,70,0,-7,-128,-196,-284,-284,-181,-131,-6,25,18,33,133,347,298,269,304,29,263,186,-407,-530,-408,-364,-249,270,722,242,914,166,-1492,-1250,-317,3,19,18,154,258,-483,-1383,347,1787,-396,-638,743,601,-196,0,520,-51,-667,-467,-376,-49,47,-24,41,57,-270,-434,-465,-625,-733,-681,-464,-373,-331,-248,-159,2,151,206,224,289,276,186,171,228,372,420,405,447,506,559,665,717,826,752,703,753,862,564,-64,-1340,-1299,1319,1772,1016,541,85,-287,-720,-517,-389,-572,-95,-95,-890,-931,-417,-196,-727,-529,333,-812
2018-05-16,10:48:28.812,-1338,-370,-1092,-1500,-1079,-715,-130,1484,1654,145,-1071,-519,-187,-995,-127,582,306,227,377,-302,-420,-15,186,327,593,961,928,441,339,175,-77,-264,-1204,-2665,-604,2317,1935,977,501,-18,-304,-264,-172,-152,-189,-230,-149,-45,-17,19,5,-85,-154,-182,-281,-311,-209,-39,153,336,262,217,425,600,558,429,352,228,241,43,-20,86,41,214,529,18,-247,-196,43,333,324,472,708,151,-100,-429,-404,-1053,-2732,-1022,1939,1969,1763,-414,-1784,-709,22,-63,-293,-334,2,-74,-384,-721,-431,-196,-138,-161,-217,-130,-100,-170,-258,-415,-576,-510,-376,-204,-80,-5,60,40,30,37,76,43,68,117
2018-05-16,10:48:29.849,22,18,207,373,463,567,652,672,607,629,696,656,528,108,-1155,-886,1845,2287,1467,790,176,-374,-547,-541,-630,-421,-349,-312,-462,-836,-859,-748,-464,-71,-117,-232,-691,-1914,-1585,-1255,-1071,-850,-671,-212,481,518,329,117,-60,-67,-444,-496,43,476,444,-52,-339,-67,-307,-214,264,353,305,410,887,1015,756,52,-2005,-3145,628,2649,1821,1022,490,-129,-284,-223,-202,-159,-163,-181,-67,-190,-335,-340,-292,-210,-148,-131,-100,-77,-38,0,137,236,305,382,635,808,812,743,720,577,364,278,972,1385,-520,-1141,-510,-481,-400,-9,343,460,357,402,744,414,202,-2,-1206,-3299,-2100,768,1026,1500
2018-05-16,10:48:30.887,2413,1481,-197,-1061,-1000,-589,-506,-26,427,175,-197,-782,-725,-127,-90,-126,-108,-67,-115,-241,-193,-83,-70,-129,21,264,330,256,211,134,29,27,81,93,46,-33,11,80,141,278,461,618,685,694,705,673,668,494,-228,-1359,767,2972,2225,1503,974,477,-186,-584,-681,-759,-801,-985,-760,-600,-1000,-1215,-1004,-1028,-945,-836,-688,-459,-34,491,-465,-1959,-1656,-769,-342,-169,-20,295,776,944,1130,932,-331,-269,-495,-1386,-697,389,212,1,299,-24,-228,379,421,58,345,736,-406,-3390,-1798,2213,2094,1230,759,169,-284,-378,-411,-493,-490,-364,-289,-288,-250,-235,-216,-357,-539,-571,-574,-501,-345,-242
2018-05-16,10:48:31.924,-143,-45,47,339,599,823,1025,1031,905,783,726,626,417,211,-50,-272,-166,-98,69,298,-7,-628,-587,-516,-208,266,498,233,-1125,-2248,-267,796,1237,799,-193,-443,-239,-80,149,766,1276,269,-669,-443,-953,-1313,-726,282,-42,-840,-1015,-1028,-308,-113,-88,-151,-172,237,444,555,606,389,245,158,84,-25,-133,-263,-388,-392,-276,-124,-9,40,142,257,366,392,454,493,573,105,-1405,-1082,1996,2536,1921,1515,952,331,-51,-36,-34,-156,-240,-414,-632,-747,-661,-175,-288,-1398,-1589,-1647,-1597,-1181,-803,-550,118,571,86,-186,-648,-932,-605,-47,161,121,187,517,1208,1037,-137,-616,-580,-299,-471,-39
2018-05-16,10:48:32.961,343,156,30,221,-59,91,530,-263,-3202,-3125,1149,2187,1724,1363,693,34,-73,-5,-112,-286,-330,-383,-398,-427,-412,-455,-468,-548,-613,-695,-757,-711,-657,-494,-249,-63,126,309,556,787,890,924,943,913,810,595,549,360,148,-53,-215,-293,-232,-172,493,199,-256,11,-525,-542,-462,-1776,-2637,-63,1124,790,646,517,645,516,-919,-1562,-917,-461,-429,-234,972,1366,49,-1191,-2277,-1762,-1169,-971,-614,-447,-328,-298,-304,-172,106,454,841,1012,942,946,928,575,238,37,-145,-325,-264,-181,-167,-159,-35,94,166,99,108,128,128,152,-471,-1906,-557,2486,2606,2103,1675,1166,643,419,341,352,271,240
2018-05-16,10:48:33.998,205,209,110,-46,-241,-430,-524,-542,-955,-735,-962,-1268,-756,-624,-620,-228,352,852,595,1204,1134,346,-312,-596,-185,85,59,-33,28,414,541,107,1291,770,-787,-557,-124,-86,208,322,-1445,-3154,-318,1632,1436,1317,1189,913,965,917,471,298,185,-123,-291,-259,-262,-355,-418,-536,-646,-677,-685,-675,-655,-574,-445,-294,-129,-2,219,537,708,852,924,954,916,908,970,837,676,743,712,458,494,486,485,231,29,-43,91,156,-129,-1150,-2669,-301,1909,1209,126,-20,81,-4,-130,15,499,-127,-1530,-1266,-989,-1216,-1075,-940,-879,-410,405,88,-703,-1928,-2233,-1712,-1022,-516,-90,454,-150,-797,-677,-151
2018-05-16,10:48:35.035,172,322,258,165,237,91,-134,-61,-31,-88,-48,26,-68,-77,0,-110,-331,-503,-1312,-2540,-405,2240,1754,1067,703,436,90,46,41,64,64,96,168,173,151,230,267,100,-94,-211,-354,-528,-586,-568,-647,-649,-443,-262,-85,246,36,12,-158,-180,120,372,599,692,1197,1281,-225,-1333,-994,-175,184,151,61,58,297,1104,1294,373,-3191,-3003,541,1113,788,1235,1104,70,-278,-371,-415,-115,142,91,-66,78,373,372,36,-149,-354,-640,-747,-703,-563,-551,-550,-413,-226,48,257,417,449,406,465,485,456,480,476,479,487,484,598,705,764,872,971,856,770,726,613,417,-513,-1848,217,2006
2018-05-16,10:48:36.073,1194,691,490,-5,-214,-1,25,-104,-12,-299,-1007,-1070,-635,-450,-628,-578,-54,-502,-1134,-871,-1049,-1136,-904,-356,477,386,-95,-886,-926,-1,218,12,250,1031,897,-688,-740,-104,78,89,257,443,705,831,717,643,528,298,-318,-1746,-2509,684,2003,1151,494,108,-315,-406,-339,-356,-282,-310,-339,-225,-128,-45,-39,-37,-92,-91,-46,-212,-183,-15,-21,-128,66,325,542,660,709,682,488,339,256,224,-19,-251,-265,-364,79,22,-463,-595,-244,276,669,4,-290,848,620,-541,-1443,-4007,-3486,362,1723,1887,1288,-141,-342,-331,-515,-272,306,722,46,-625,-393,-91,-216,-267,-226,-194,-236,-226,9,134
2018-05-16,10:48:37.110,116,103,201,192,122,130,82,113,135,110,14,-7,35,8,-76,-44,37,155,269,385,496,606,582,674,764,596,315,-637,-1148,1420,2773,2043,1474,867,314,-102,-423,-619,-699,-1237,-1071,-336,-1035,-1325,-895,-926,-974,-708,-295,56,628,514,-1672,-2499,-1422,-622,-350,-234,-130,44,396,471,482,832,1121,-545,-1543,-860,-531,-91,590,580,20,-245,-306,166,289,332,446,-27,-1879,-1748,1962,2659,1729,912,211,-304,-521,-642,-750,-733,-750,-787,-663,-676,-671,-593,-556,-507,-579,-517,-445,-353,-201,-100,34,251,508,673,824,1167,1281,1171,1153,1060,962,826,595,322,193,16,-116,-592,-679,-258,-949,-554
2018-05-16,10:48:38.147,-656,-619,-280,-166,-1226,-3206,-1218,2088,232,-907,35,437,196,74,42,313,992,882,472,-34,-959,-855,-762,-701,-47,-162,-676,-562,-608,-665,-378,-173,6,267,580,1169,1300,785,574,379,105,150,342,233,-57,-140,-149,-173,-76,71,116,83,93,184,246,237,-34,-1042,-1650,1270,2849,2280,1816,1340,766,338,315,435,426,286,132,-27,-235,-353,-474,-772,-963,-1052,-1095,-1211,-774,-954,-1317,-1021,-532,-279,32,830,1561,797,613,209,-367,-490,-225,-165,-393,-399,-183,428,705,714,263,-694,-758,-949,-167,220,-118,-859,-2557,-1840,803,1119,947,833,639,281,151,508,655,175,5,-45,-441,-630,-631,-718
2018-05-16,10:48:39.184,-891,-1030,-1122,-1116,-1004,-875,-761,-617,-412,-136,152,440,683,927,1087,1137,1154,1092,1031,995,939,784,737,808,907,872,787,644,546,433,238,64,-32,-213,-1830,-4073,-1749,548,511,268,-45,-220,-67,320,73,359,-673,-1464,-1116,-557,-412,-434,-482,-453,73,333,95,-385,-1451,-1390,-616,-580,-600,-104,373,438,299,326,486,571,615,666,615,713,681,269,298,340,233,241,364,324,105,-17,-109,-422,-1246,-2233,-325,2095,1714,1098,686,343,69,112,233,277,324,326,321,167,38,116,55,-21,33,-48,-238,-421,-436,-456,-612,-657,-553,-303,-346,-240,-2,380,931,1041,65,-926,-524,-98,47,61
2018-05-16,10:48:40.221,240,961,635,-384,-541,-899,-712,-347,17,848,479,-1798,-1497,-196,-140,-275,-403,-163,-82,-87,-100,-117,-25,31,26,-71,8,326,136,-306,-365,-576,-871,-930,-881,-887,-853,-787,-667,-471,-177,110,301,382,505,572,592,667,711,616,546,633,697,676,793,860,872,903,969,931,897,762,339,-1183,-1485,1629,2669,1610,777,251,-343,-932,-1382,-1400,-1155,-753,-369,-766,-1331,-1181,-801,-537,-456,-435,283,450,-1184,-1914,-1650,-1134,-750,-515,-296,-32,158,374,402,109,150,236,275,248,156,185,240,352,429,623,1095,1281,988,830,700,295,-351,-1568,-2321,327,2278,1506,66,-1357,-2881,-3125,-2356,-1612,-1064,-590
2018-05-16,10:48:41.259,-286,-280,-185,-82,-109,57,239,285,211,153,44,-6,609,290,-871,-500,300,753,940,1035,934,658,409,163,54,30,-371,-838,-1032,-1137,-1118,-890,-651,-249,407,302,45,306,671,328,-1381,-1169,1529,2441,1477,709,660,546,286,347,453,1001,623,-170,-465,-737,-443,-101,-56,-152,-191,-222,-118,156,313,247,60,91,153,182,244,257,277,275,166,112,187,163,-43,-201,-159,-64,35,185,378,500,576,675,758,799,900,560,-974,-1392,1884,3178,2309,1729,1125,433,-83,-297,-368,-532,-596,-678,-850,-843,-1311,-1658,-1488,-1320,-1185,-962,-775,-1189,-1280,-876,-377,-87,577,805,-287,-907,-533,-377,-233,31
2018-05-16,10:48:42.296,171,6,446,872,368,-1001,-1486,-987,-672,-276,0,22,-30,-11,121,89,-885,-2266,-341,2243,2257,1641,1056,364,-182,-363,-374,-399,-524,-680,-830,-842,-827,-786,-795,-807,-772,-642,-545,-432,-252,-19,178,354,572,824,980,1107,1063,1138,1015,831,803,878,850,512,196,62,65,58,131,357,334,307,311,513,921,611,-780,-2156,-856,1584,1644,1159,1083,1617,701,-852,-1035,-944,-1008,-756,-580,-485,-13,591,-75,-1029,-1322,-1092,-1120,-1203,-976,-667,-526,-411,-252,9,173,327,431,613,839,692,337,231,186,84,3,41,22,14,21,97,168,210,246,274,289,410,400,-802,-2879,-504,2656,2449,2033,1740
2018-05-16,10:48:43.333,1161,599,462,469,447,387,370,272,78,-83,-270,-446,-578,-768,-934,-1008,-848,-1137,-1368,-1218,-812,-16,254,185,243,-20,197,618,1039,748,1414,874,-845,-716,-555,-557,-252,-6,168,432,574,719,223,-239,-485,-1427,-2822,-2303,794,1371,1091,861,648,331,287,655,874,750,487,110,-241,-460,-582,-673,-815,-1009,-1120,-1111,-1084,-1017,-887,-721,-496,-341,-70,138,357,502,680,790,908,1073,1098,1077,941,795,776,728,695,602,589,586,544,450,330,66,-195,-659,-1964,-2931,-43,1436,905,808,452,-138,-434,-272,-689,-476,-257,-651,-682,-18,62,-684,-1065,-1439,-1464,-1233,-963,-360,20,-186,-371,-301,-1179,-980
2018-05-16,10:48:44.370,-690,-526,94,448,315,165,263,379,342,169,304,484,330,151,112,44,24,85,192,178,30,-280,-1553,-3094,-322,2328,1712,1139,905,356,25,13,80,61,168,216,207,142,36,61,61,-157,-277,-332,-353,-306,-327,-318,-196,-20,40,26,106,-132,-534,-435,-276,150,515,342,-330,-511,-75,246,327,359,659,134,-709,-923,-701,-372,-143,122,-54,-1347,-2203,-196,798,597,262,258,172,16,-35,-47,-47,-38,115,504,705,623,313,103,-322,-778,-913,-877,-804,-789,-734,-633,-439,-262,-89,23,53,75,79,97,149,240,386,445,460,581,718,841,912,910,943,910,793,644,613,704,413,-805
2018-05-16,10:48:45.407,-1906,601,2027,1173,581,265,208,-127,-336,-477,-657,-738,-504,-57,16,-795,-884,-616,-604,-490,-317,-386,-797,-915,-567,-897,-1085,-504,330,333,460,-58,-729,-400,235,-50,27,548,407,-587,-915,-491,-33,195,422,482,405,382,589,621,758,-453,-3045,-1680,2126,2148,1242,596,-30,-441,-426,-325,-269,-257,-252,-267,-232,-165,-130,-110,-131,-152,-121,-136,-199,-105,19,48,224,432,581,772,868,825,851,789,579,397,367,-408,-861,-708,-489,-264,99,124,-1,-45,-203,-217,-9,369,1084,108,-2174,-2844,-561,361,468,656,627,483,695,980,588,-76,-1117,-1167,-616,-431,-241,-137,-162,-257,-244,-274,-275,173
2018-05-16,10:48:46.445,337,152,84,78,7,53,216,387,247,15,-158,-305,-323,-272,-291,-369,-184,-30,103,244,340,482,568,637,725,849,903,586,-578,-1429,1260,2614,1826,1374,914,407,-43,-404,-588,-630,-719,-801,-697,-612,-635,-834,-868,-550,-473,-828,-1272,-1748,-1506,-1149,-1032,-952,-732,-361,-444,-250,448,-55,-590,-74,595,207,-845,-474,-268,-737,-891,-631,-468,-450,-282,-132,-98,-62,87,406,-409,-3157,-2220,1843,2229,1416,800,260,-61,-135,-303,-416,-419,-458,-482,-477,-433,-424,-487,-418,-371,-409,-476,-493,-350,-177,-22,200,485,751,924,1199,1313,1311,1305,1253,1229,1255,1105,859,695,631,448,205,138,-42,94,-401
2018-05-16,10:48:47.482,-739,-432,-173,60,-364,-2090,-1142,2017,2494,1074,-186,-278,-75,12,38,10,12,307,858,541,266,185,175,-148,-402,-438,-686,-541,-70,108,-91,59,379,595,747,1056,1138,805,814,741,419,230,276,324,112,46,24,-27,50,99,161,128,129,189,249,289,176,-797,-1489,1065,2605,2009,1584,1239,796,427,298,299,245,202,96,-7,-51,-174,-386,-504,-649,-931,-1127,-1277,-1454,-1416,-1400,-1151,-742,-790,-707,-244,212,473,499,1233,847,-824,-1328,-752,-349,-229,-223,-167,62,566,638,700,954,-728,-1148,-370,-13,-844,-3164,-2540,657,1164,1045,934,725,358,320,137,-280,-246,-415,-648,-562,-358,-371,-574
2018-05-16,10:48:48.519,-786,-895,-994,-1018,-962,-875,-639,-484,-276,69,352,503,595,746,907,965,996,1037,1017,925,739,546,540,580,558,543,552,430,318,295,215,40,-23,-607,-2567,-2986,427,1646,917,200,86,-177,-819,-701,-303,-194,-208,-117,-136,-373,-487,-75,-463,-1336,-1257,-838,-652,-577,-235,-26,59,327,-208,-70,-386,-351,49,43,-33,-93,-118,21,130,142,126,50,151,298,226,247,294,79,25,209,145,-543,-1755,-1104,1437,1649,881,375,-65,-449,-528,-427,-392,-328,-272,-184,-124,-50,-30,-26,5,-31,-122,-197,-200,-134,-14,10,103,192,320,394,459,477,271,114,75,-196,-355,-256,-219,-56,346,-242
2018-05-16,10:48:49.556,-758,-370,95,225,289,433,978,387,-584,-403,-982,-3637,-2836,683,1298,1338,1342,465,-626,-658,-316,83,194,450,692,-468,-764,-439,-276,-164,-206,-360,-465,-329,-210,-331,-544,-642,-464,-86,293,594,790,746,427,195,40,7,83,41,15,122,183,271,377,476,576,621,672,705,804,896,483,-846,-808,2164,2924,2155,1604,1153,572,80,-89,-135,-306,-376,-418,-624,-832,-900,-750,-635,-525,-521,-637,-765,-689,-517,-236,41,195,226,341,425,695,676,160,547,-183,-1078,-707,-282,-265,-294,191,621,-102,-204,-551,-1072,-698,-336,-97,335,183,-1053,-2212,-1295,-134,378,627,548,314,143,321,523,633,617
2018-05-16,10:48:50.593,221,-435,-776,-754,-775,-964,-1147,-1272,-1325,-1315,-1297,-1212,-1059,-884,-519,-116,290,546,604,689,824,918,946,1002,1047,973,809,911,897,830,817,876,875,673,607,672,549,470,232,-914,-2923,-1614,1181,693,255,48,-304,-689,-498,-332,-382,168,-91,-674,-694,-458,-224,-167,-277,-313,22,-479,-957,-1057,-949,-835,-461,499,620,-194,-890,-651,-365,-136,129,202,207,161,18,-18,18,98,240,400,698,1038,1109,997,901,671,440,-863,-3244,-1883,1634,1641,801,333,-86,-448,-539,-486,-439,-388,-347,-327,-283,-267,-266,-272,-200,-170,-176,-122,1,152,222,383,567,691,899,962,1061,1051,987,890,681,479
2018-05-16,10:48:51.631,379,94,-131,70,240,-211,-482,-442,-363,-341,-187,161,493,707,824,306,-1359,-1342,1155,1276,432,141,-2,-317,-331,-140,-37,395,-444,-1300,-1111,-978,-872,-605,-436,-477,-898,-1025,-1326,-1144,-924,-786,-332,-330,-611,-377,-81,60,337,637,513,295,390,320,-101,-401,-431,-388,-383,-351,-385,-445,-467,-504,-522,-478,-369,-456,-1583,-3105,-510,1892,1423,1069,953,549,246,300,323,268,231,230,169,47,-25,-100,-155,-249,-370,-544,-646,-582,-493,-544,-507,-340,-176,-398,-530,-491,-386,-320,-307,-189,109,244,179,0,-6,19,-12,-42,61,225,431,743,856,812,357,44,-588,-2580,-2402,1281,2039,1282,816,586
2018-05-16,10:48:52.668,120,-33,85,382,457,399,580,470,193,-4,76,124,92,-1,129,45,-200,-148,-95,61,285,519,636,681,670,642,520,317,183,168,177,119,103,204,288,405,535,645,773,857,931,934,897,902,487,-772,-531,2369,2833,2103,1680,1211,636,359,254,176,100,-82,-302,-453,-446,-594,-804,-852,-954,-1049,-1093,-1102,-980,-832,-725,-617,-417,-153,363,474,810,351,-280,-282,-447,-149,193,244,114,61,81,85,125,215,258,227,231,231,216,446,509,-959,-3552,-1778,803,986,989,894,650,470,496,545,530,392,139,-140,-307,-459,-635,-797,-879,-853,-806,-774,-695,-614,-497,-349,-187,-12,132,203
2018-05-16,10:48:53.705,287,349,284,309,399,467,483,482,346,174,184,256,392,559,628,647,648,654,602,550,434,-345,-2359,-2850,676,1320,547,155,-182,-610,-680,-625,-610,-569,-612,-681,-711,-736,-711,-670,-657,-656,-629,-555,-458,-351,-247,-178,-97,55,216,336,372,396,397,385,418,423,429,379,257,122,62,27,43,110,189,220,182,206,237,296,377,186,-1000,-2195,90,1501,1137,929,731,458,253,217,201,133,72,1,-24,-124,-159,-197,-192,-201,-266,-374,-523,-654,-774,-889,-920,-854,-686,-473,-366,-247,-167,-98,-58,-46,-29,-2,5,-68,-80,-77,-108,-76,9,84,117,111,88,92,153,213,-527,-2400
2018-05-16,10:48:54.742,-1312,1737,1674,1212,870,480,55,-70,-128,-206,-286,-361,-424,-480,-539,-601,-680,-742,-813,-903,-911,-863,-813,-759,-717,-578,-357,-140,3,119,159,165,202,227,230,224,290,290,316,455,479,414,465,526,501,459,462,475,433,566,292,-1842,-4291,-878,1470,1294,1000,845,385,98,52,36,15,7,-20,-40,-46,-87,-126,-186,-266,-332,-397,-433,-390,-411,-402,-342,-238,-75,87,201,242,244,223,215,190,150,152,146,51,24,85,173,266,341,310,196,74,-16,-68,-44,-96,-1002,-2533,-742,1542,1269,833,572,235,6,3,-23,-84,-168,-198,-235,-275,-325,-363,-415,-472,-534,-586,-608,-561,-519
2018-05-16,10:48:55.779,-448,-331,-172,40,212,345,409,420,396,341,320,288,269,242,139,34,62,89,90,181,227,216,201,161,149,168,109,-358,-1610,-942,1436,1484,987,585,159,-217,-361,-360,-358,-366,-402,-432,-453,-464,-505,-539,-564,-611,-612,-581,-509,-433,-347,-255,-136,0,140,264,339,398,400,378,343,330,311,302,269,131,86,111,132,197,259,247,191,137,126,117,191,74,-1063,-2643,-631,1278,1033,692,429,61,-149,-186,-237,-274,-293,-289,-304,-328,-346,-373,-394,-398,-403,-451,-529,-589,-631,-651,-616,-454,-254,-76,67,143,183,211,216,239,267,303,356,299,240,281,295,323,414,445,423,368
2018-05-16,10:48:56.817,306,256,325,594,-414,-3394,-3135,690,1489,1161,904,473,60,-30,-77,-129,-210,-291,-345,-413,-463,-515,-564,-606,-671,-722,-820,-862,-787,-697,-581,-392,-144,102,298,402,430,435,417,391,342,301,283,241,105,27,37,47,82,138,162,130,80,65,29,49,-9,-937,-2382,-448,1874,1607,1105,742,287,0,-57,-101,-129,-148,-158,-154,-167,-176,-187,-212,-284,-348,-377,-411,-416,-408,-367,-260,-105,83,258,384,460,496,504,507,477,427,368,319,207,80,71,73,88,152,193,169,125,85,42,53,102,-321,-1710,-1547,925,1302,847,529,199,-142,-238,-247,-281,-317,-336,-350,-379,-415,-451,-499
2018-05-16,10:48:57.854,-591,-693,-778,-844,-881,-885,-846,-738,-581,-339,-106,60,170,236,255,269,267,252,216,190,191,87,-13,12,47,83,204,279,290,285,282,282,398,536,-285,-2293,-1288,1507,1629,1181,879,520,291,276,250,230,175,158,135,119,98,59,47,9,-41,-76,-99,-134,-93,-20,84,274,555,787,927,998,1021,965,988,989,936,914,856,804,633,544,559,545,556,643,616,576,545,542,532,721,907,-607,-3447,-1667,1551,1764,1439,1176,705,449,440,397,315,217,179,84,27,-15,-97,-226,-318,-373,-463,-522,-587,-619,-610,-534,-352,-55,122,204,285,277,217,141,183,51,-9,-7,-99,-280
2018-05-16,10:48:58.891,-336,-298,-293,-216,-149,-112,-98,-200,-200,-150,-17,-376,-1956,-2444,428,1399,852,441,42,-362,-499,-492,-498,-543,-572,-649,-644,-676,-739,-740,-812,-894,-947,-923,-952,-958,-922,-816,-675,-439,-202,-64,-11,31,68,66,51,41,23,-3,-17,-126,-217,-181,-159,-109,-63,-41,-59,-86,-91,-95,-77,-101,-719,-1911,-688,1259,1041,574,216,-148,-310,-304,-294,-316,-353,-350,-367,-375,-387,-397,-408,-457,-510,-519,-495,-469,-421,-348,-214,-35,165,321,430,467,466,458,435,406,376,333,300,276,171,107,122,135,189,269,290,275,238,224,233,361,347,-659,-2112,-327,1523,1231,867,582,219,88,80,30
2018-05-16,10:48:59.928,-26,-59,-107,-159,-185,-198,-235,-288,-351,-396,-463,-508,-507,-490,-446,-345,-190,12,169,281,339,345,353,337,305,258,186,155,89,-44,-50,-34,-20,97,187,203,189,183,182,262,619,232,-1964,-2932,362,1549,1210,892,504,275,251,210,142,58,-3,-48,-85,-113,-144,-180,-223,-262,-308,-356,-395,-396,-358,-289,-152,15,189,317,354,337,312,275,234,190,137,96,83,-44,-129,-107,-95,-28,87,135,116,87,72,58,213,425,-580,-2820,-1590,1404,1452,992,669,243,3,-44,-74,-114,-156,-180,-213,-242,-274,-304,-332,-369,-433,-496,-526,-550,-527,-453,-319,-115,132,292,395,458,480,471
2018-05-16,10:49:10.258,295,163,107,117,215,100,-36,-16,54,63,226,518,567,876,795,525,630,708,15,-1733,-885,1710,1838,1465,1131,789,350,112,-102,14,141,242,59,-611,-959,-977,-895,-1037,-931,-960,-1176,-1380,-1448,-1403,-1326,-1172,-892,-503,-367,-388,-306,-231,-113,-19,-86,-130,-125,-63,-157,-261,-222,-144,-33,151,259,318,368,404,440,546,716,43,-1880,-940,2046,2039,1516,1145,631,-331,-1498,-1420,-1289,-1197,-1137,-996,-738,-619,-710,-668,-524,-517,-434,-261,-190,-296,-322,-429,-453,8,539,808,942,1015,1017,924,774,690,555,434,578,832,823,892,1003,1075,1206,1202,1072,804,610,437,361,377,-2,-1880,-2674,-579
2018-05-16,10:49:10.620,340,70,-274,-597,-1201,-1320,-1293,-1325,-1321,-1258,-1168,-1153,-1103,-961,-901,-901,-915,-866,-810,-708,-659,-634,-559,-378,-112,94,257,363,440,521,606,658,717,774,779,823,815,737,730,754,752,711,637,637,597,433,166,-56,-163,-443,-1431,-1653,1160,1851,1167,718,337,-40,-113,-160,-184,-140,-104,-69,-87,-31,35,102,166,198,117,57,59,122,203,468,766,1156,1579,1856,1981,2055,1802,1425,1305,1152,901,645,469,221,-51,-216,-422,-483,-452,-498,-527,-371,-307,27,23,-485,-767,-1699,-2957,-1298,369,516,424,209,-135,-311,-279,-236,-293,-302,-247,-232,-220,-224,-271,-360,-422,-452,-489,-502,-458,-417
2018-05-16,10:49:11.657,-316,-83,200,427,601,678,732,802,868,868,708,501,346,246,169,-73,-295,-361,-383,-354,-219,-166,-179,-175,-190,-234,-148,47,-925,-3523,-2542,839,1371,1032,825,446,345,469,569,526,334,166,117,87,245,249,204,287,259,337,545,486,261,147,135,139,129,105,74,-52,-201,-303,-376,-473,-514,-576,-674,-712,-786,-899,-914,-855,-793,-684,-579,-504,-374,-278,-173,-68,143,139,-914,-1191,637,1236,1051,879,597,226,79,69,15,-29,-34,-44,-19,0,3,-12,-60,-144,-221,-197,-164,-195,-199,-119,68,243,311,375,396,398,416,432,347,180,147,185,179,103,-163,-382,-372,-265,-80,84
2018-05-16,10:49:12.694,125,195,277,278,315,468,409,-608,-2063,-31,1890,1557,1132,791,484,312,368,568,523,642,750,769,777,597,277,-59,-194,-265,-505,-586,-582,-726,-787,-743,-625,-475,-398,-350,-421,-495,-501,-445,-432,-531,-728,-788,-737,-794,-958,-908,-688,-631,-367,-172,-175,-128,-104,-69,85,388,-258,-2423,-1925,780,1274,1036,778,427,210,187,170,147,141,151,169,197,181,161,70,11,-3,-83,-175,-316,-395,-404,-481,-511,-427,-278,-199,-176,-143,-122,-132,-150,-109,-135,-124,-45,-116,-265,-291,-280,-267,-33,289,553,604,750,725,793,1085,542,-1627,-2377,685,1953,2048,1872,1637,1473,1248,1038,723,589,417,134
2018-05-16,10:49:13.732,-205,-369,-505,-834,-1006,-1056,-1157,-1320,-1389,-1394,-1396,-1305,-1128,-1005,-874,-701,-496,-404,-297,-199,-154,-66,55,55,-5,2,-63,-53,72,100,196,305,351,325,302,302,320,413,382,-464,-1314,442,1747,1384,1058,743,320,103,12,-101,-230,-334,-359,-434,-637,-812,-922,-1010,-1046,-1085,-1093,-1013,-905,-807,-703,-506,-253,-24,134,237,321,519,601,584,500,368,388,581,740,638,559,542,544,597,626,808,916,904,858,1020,1203,1605,783,-1641,-1358,1179,1375,1064,744,322,-124,-344,-381,-357,-424,-620,-662,-624,-828,-997,-971,-1015,-1069,-1095,-1140,-1176,-1171,-1086,-985,-824,-595,-348,-158,-28,59,126,150,143
2018-05-16,10:49:14.769,139,152,126,147,116,-10,5,35,96,250,371,362,301,277,335,448,770,582,-1344,-2564,591,1971,1611,1238,795,245,-39,-212,-343,-451,-517,-528,-472,-603,-757,-856,-941,-994,-1044,-1125,-1127,-1073,-1019,-847,-556,-204,49,253,488,658,808,929,988,906,809,836,863,913,873,1008,1103,1234,1435,1501,1585,1602,1379,1229,1146,1058,851,-319,-1867,-451,905,740,548,314,-101,-394,-423,-574,-678,-738,-784,-820,-869,-948,-952,-971,-983,-868,-844,-1010,-1218,-1261,-1079,-815,-555,-305,-89,62,171,234,262,238,224,195,155,154,154,28,-74,-3,142,240,310,296,311,325,292,294,417,470,-221,-1830,-817,1524
2018-05-16,10:49:15.806,1114,575,216,-198,-469,-591,-699,-730,-712,-815,-940,-961,-918,-829,-766,-729,-690,-661,-664,-585,-496,-364,-49,308,694,919,1029,1034,1103,1003,934,1021,1015,1093,980,978,974,792,742,687,534,487,480,398,264,121,109,48,333,24,-1716,-2631,-256,823,738,289,55,-309,-670,-890,-921,-874,-771,-685,-640,-575,-537,-553,-581,-602,-643,-632,-594,-567,-526,-446,-267,-32,178,315,424,531,567,559,550,542,610,678,736,706,547,475,512,517,447,320,185,75,-45,-180,-278,-132,-56,-1359,-3532,-1622,752,620,226,-206,-545,-577,-550,-447,-372,-300,-236,-192,-110,82,290,276,217,199,-33,-149,-2,-15
2018-05-16,10:49:16.843,147,444,662,969,1227,1412,1575,1642,1373,1072,965,744,618,293,187,33,-264,-249,-432,-456,-384,-476,-383,-505,-582,-648,-558,-316,-648,-1937,-1255,125,76,-80,-163,-393,-523,-458,-363,-296,-263,-244,-240,-266,-309,-327,-352,-439,-521,-570,-567,-531,-502,-433,-243,25,345,641,843,914,858,713,580,467,396,321,165,28,-37,-222,-307,-183,-250,-457,-574,-647,-798,-844,-617,-431,-256,-150,-1069,-2424,-207,1645,1207,778,529,333,318,467,558,531,545,541,503,517,691,768,680,916,1039,1159,964,688,603,413,264,232,199,218,280,161,83,-11,-184,-329,-441,-485,-510,-349,-456,-590,-640,-978,-1110,-1024
2018-05-16,10:49:17.880,-763,-598,-517,-454,-340,-215,173,223,-1467,-2807,-375,1130,1118,893,633,276,98,66,25,-18,-14,-21,0,31,-24,-160,-131,-48,-53,-42,-8,-6,-31,-34,76,217,283,274,213,120,58,-14,-118,-218,-274,-321,-335,-517,-790,-693,-394,-239,-56,123,240,163,65,66,87,293,539,-257,-2265,-1009,1990,2218,1839,1513,1349,1155,1194,1190,1147,1182,1165,995,675,429,389,152,-59,-306,-475,-640,-817,-832,-774,-314,-28,-395,-295,-734,-1156,-1158,-948,-779,-658,-451,-377,-386,-334,-217,-405,-404,-204,-110,-30,69,56,31,0,-23,-14,72,145,-418,-1519,-305,1612,1462,1028,666,283,-9,-96,-130,-182,-327
2018-05-16,10:49:18.918,-508,-755,-1016,-1304,-2324,-2628,-2282,-1988,-1711,-1491,-1237,-945,-780,-707,-490,-284,-101,27,155,290,270,249,228,201,153,257,542,774,763,781,928,965,1070,1194,1253,1351,1439,1342,1357,1646,1748,552,-1422,-59,1645,1650,1476,1031,402,97,531,151,-442,-781,-829,-828,-879,-569,-610,-809,-640,-674,-1032,-1205,-1165,-1024,-994,-834,-521,-228,-207,-129,-22,35,58,54,65,84,58,19,48,13,-139,-143,-63,13,170,244,233,254,241,231,229,405,328,-1221,-3018,-488,1411,1129,610,70,-803,-1608,-1307,-1091,-1021,-1048,-1052,-1047,-1077,-1055,-1055,-1064,-1018,-985,-965,-867,-842,-835,-788,-594,-290,149,606,849,953,1085
