2018-05-14,14:26:10.933,-391,-1170,290,3958,4454,2523,908,-153,-799,-887,-795,-739,-687,-631,-574,-533,-501,-470,-439,-420,-436,-448,-456,-471,-456,-404,-326,-235,-160,-68,1,49,66,87,115,131,152,162,144,144,139,134,126,127,147,153,143,143,166,176,152,132,121,116,182,241,253,282,261,167,153,159,151,136,112,93,-240,-1131,-596,2713,4820,2997,1247,75,-744,-1010,-919,-855,-809,-752,-684,-648,-627,-575,-530,-515,-514,-521,-529,-531,-532,-516,-452,-382,-291,-205,-118,-49,-11,-1,32,57,60,76,82,81,69,59,55,55,52,61,75,81,89,104,105,99,77,68,93,164,179,195,187,108,62,79
2018-05-14,14:26:11.508,90,91,79,82,-71,-912,-1081,1506,4747,3808,1946,653,-222,-610,-534,-444,-379,-286,-176,-63,36,117,205,274,306,344,349,323,281,263,259,269,291,314,343,340,305,265,225,181,128,86,53,12,-24,-57,-108,-114,-102,-112,-121,-114,-106,-129,-150,-166,-187,-221,-212,-143,-105,-76,-51,-110,-174,-125,-77,-89,-117,-117,-178,-757,-1433,173,3931,4042,1816,364,-614,-1262,-1308,-1193,-1124,-1068,-1003,-954,-906,-840,-787,-751,-733,-729,-745,-767,-769,-737,-691,-623,-518,-428,-325,-242,-188,-143,-105,-80,-70,-43,-19,-5,7,18,35,52,71,82,107,129,144,166,189,189,185,170,169,226,336,378
2018-05-14,14:26:12.545,429,421,331,339,389,429,462,497,521,305,-528,-207,2780,5296,3944,2200,1018,246,37,263,471,643,790,908,985,1028,1035,1034,1014,965,890,788,666,555,484,441,405,386,385,395,392,357,309,275,239,103,-422,-693,-694,-640,-588,-539,-474,-331,-28,290,541,728,838,883,874,845,812,761,751,772,732,694,614,458,351,291,215,115,12,-53,-285,-1123,-1141,1255,3667,2454,903,-160,-935,-1317,-1289,-1234,-1206,-1179,-1155,-1143,-1114,-1082,-1053,-1034,-1025,-1020,-1048,-1060,-1059,-1054,-1013,-934,-854,-766,-679,-614,-588,-591,-567,-555,-551,-539,-531,-523,-532,-544,-528,-513,-504,-491,-478,-451,-429,-427,-408,-385
2018-05-14,14:26:13.582,-382,-384,-391,-360,-269,-220,-145,-86,-104,-38,107,172,177,178,155,-32,-792,-1064,948,3832,3256,1567,198,-725,-1174,-1146,-1086,-1063,-1031,-1002,-982,-970,-944,-944,-929,-929,-935,-942,-956,-964,-955,-919,-859,-786,-699,-606,-543,-505,-480,-457,-432,-413,-396,-377,-366,-363,-357,-344,-319,-306,-302,-280,-238,-210,-199,-172,-152,-155,-145,-148,-161,-157,-78,-21,-12,16,-19,-89,-61,-34,-53,-74,-72,-112,-659,-1337,-128,3101,3932,2334,785,-291,-959,-1023,-911,-863,-818,-770,-715,-659,-623,-589,-563,-526,-522,-526,-530,-531,-517,-492,-438,-366,-279,-184,-101,-50,-30,-4,32,65,86,86,73,55,54,43,22,25
2018-05-14,14:26:14.619,38,34,39,53,50,53,63,81,70,46,35,17,54,114,127,150,121,37,18,38,28,0,-31,-66,-348,-1236,-885,1964,3956,2575,1085,28,-732,-1011,-931,-852,-796,-749,-704,-652,-591,-534,-482,-463,-449,-434,-427,-436,-433,-404,-347,-256,-161,-71,24,88,116,138,181,203,224,245,267,278,273,262,278,282,278,281,294,291,291,292,292,309,303,281,256,239,220,297,346,357,377,345,280,286,288,281,273,263,214,-277,-1017,-15,3150,4298,2736,1184,104,-632,-761,-663,-623,-579,-519,-463,-430,-408,-369,-333,-320,-308,-306,-321,-342,-341,-316,-252,-190,-124,-36,40,91,106,111,124
2018-05-14,14:26:15.657,131,145,143,130,112,95,83,85,77,70,67,64,72,95,101,100,121,125,122,89,63,45,118,173,168,185,151,81,83,83,65,69,64,39,-415,-1241,-473,2675,4281,2830,1176,-8,-800,-1018,-917,-837,-791,-739,-690,-649,-599,-563,-539,-519,-499,-511,-543,-560,-539,-509,-453,-379,-310,-216,-133,-68,-43,-17,11,28,41,56,62,57,51,33,34,29,24,24,25,34,48,52,62,74,85,71,38,7,12,37,108,128,140,149,64,20,56,57,41,34,34,-90,-838,-1198,740,3830,3425,1794,517,-385,-921,-936,-848,-811,-771,-721,-683,-636,-590,-563,-540,-512,-522,-543,-532,-533
2018-05-14,14:26:16.694,-526,-501,-442,-375,-271,-152,-88,-47,-20,9,19,36,52,56,48,35,22,-3,-10,-12,7,14,18,39,43,58,70,81,66,47,49,22,22,105,152,156,173,110,38,50,62,46,32,33,-43,-637,-1361,-144,3354,4788,2918,822,-461,-1060,-1033,-965,-921,-880,-822,-777,-737,-695,-650,-623,-599,-572,-577,-595,-622,-621,-601,-553,-484,-389,-282,-167,-74,15,84,162,201,215,216,211,181,168,158,130,117,115,123,132,137,139,140,142,142,143,118,103,73,50,96,150,148,186,159,76,51,70,50,1,-14,-27,-253,-1065,-1140,1165,3824,3032,1542,371,-518,-984,-945,-862,-810,-769
2018-05-14,14:26:17.731,-737,-668,-605,-534,-487,-457,-438,-452,-479,-498,-512,-508,-467,-390,-295,-204,-124,-47,-18,-7,15,40,59,66,71,72,69,56,50,63,73,75,75,91,100,95,111,100,91,95,56,17,-5,34,117,153,186,183,96,60,86,72,29,22,18,-120,-921,-1232,989,4310,4061,2206,516,-613,-1050,-986,-910,-876,-820,-757,-704,-671,-628,-622,-567,-544,-528,-519,-536,-527,-510,-469,-407,-333,-258,-180,-106,-59,-22,21,59,75,82,93,113,120,125,126,108,103,106,86,81,94,88,93,102,109,99,77,62,50,88,143,150,161,137,52,34,57,35,12,0,-15,-172,-902,-1007,1253
2018-05-14,14:26:18.768,3897,2603,1251,343,-431,-877,-853,-779,-740,-701,-677,-640,-595,-562,-525,-497,-476,-476,-479,-492,-495,-473,-417,-367,-291,-187,-96,-49,-49,-63,-81,-97,-88,-83,-82,-72,-65,-54,-42,-37,-25,-22,-23,-14,-6,5,5,12,10,-9,-28,-42,-49,14,72,85,98,56,-6,2,23,9,-1,0,-38,-423,-1135,-336,2660,3700,2087,927,-6,-763,-990,-886,-818,-780,-728,-671,-618,-589,-548,-503,-467,-460,-463,-467,-479,-464,-421,-364,-282,-191,-85,9,53,39,12,12,16,20,34,47,51,76,84,77,96,104,114,124,135,146,142,143,155,168,152,127,106,111,177,212,235,251,202,132
2018-05-14,14:26:19.806,149,152,143,146,139,52,-539,-1143,280,3557,3869,2200,870,-98,-783,-894,-801,-757,-710,-655,-612,-571,-518,-489,-458,-427,-411,-418,-423,-438,-429,-405,-362,-286,-191,-97,-12,29,37,54,64,62,68,82,84,92,94,80,75,77,78,86,91,89,124,128,128,141,127,100,76,66,113,194,214,233,221,149,119,137,133,113,93,89,-134,-1081,-1186,1415,4884,4247,2036,299,-746,-1018,-931,-891,-844,-785,-720,-657,-607,-560,-514,-477,-472,-481,-495,-517,-522,-524,-489,-427,-339,-233,-133,-31,74,162,249,324,380,436,469,493,553,694,798,805,781,752,721,683,648,614,593,557,532,489
2018-05-14,14:26:20.843,442,387,355,405,442,435,448,383,277,252,259,225,187,157,129,-218,-1135,-765,2276,4952,3669,1647,144,-804,-1136,-1069,-1034,-982,-919,-868,-816,-771,-726,-695,-672,-657,-654,-667,-680,-679,-661,-620,-549,-452,-357,-280,-216,-162,-131,-103,-66,-49,-56,-61,-64,-75,-84,-102,-112,-102,-100,-97,-97,-88,-71,-71,-64,-22,108,255,364,446,494,579,602,605,584,467,376,356,306,257,207,167,67,-591,-1161,332,3578,3982,2397,947,-17,-638,-713,-604,-557,-524,-498,-452,-419,-375,-350,-334,-360,-386,-426,-484,-555,-615,-671,-691,-681,-645,-603,-552,-470,-433,-415,-390,-349,-348,-340,-356,-340,-314,-330,-346
2018-05-14,14:26:21.880,-351,-342,-328,-313,-296,-273,-263,-238,-227,-219,-218,-239,-245,-242,-190,-131,-112,-65,-86,-159,-179,-158,-167,-176,-171,-191,-344,-1211,-1540,1044,4242,3447,1733,367,-635,-1192,-1225,-1134,-1081,-1002,-949,-903,-838,-779,-739,-710,-687,-672,-674,-664,-641,-588,-518,-446,-352,-252,-165,-114,-106,-104,-87,-75,-73,-55,-38,-13,-17,-19,-1,15,44,69,97,109,105,107,128,112,93,90,85,68,39,66,149,182,227,228,144,86,96,111,99,79,76,-18,-737,-1415,528,4168,4044,2249,836,-176,-838,-954,-870,-808,-758,-703,-640,-574,-512,-464,-422,-391,-363,-337,-288,-253,-192,-75,36,134,226,295,337,344
2018-05-14,14:26:22.917,302,290,280,272,269,246,255,248,234,213,200,193,186,191,206,224,237,255,273,280,284,269,251,268,336,383,407,429,382,300,281,303,303,286,285,270,-1,-914,-636,2683,5005,3395,1733,612,-228,-640,-623,-556,-532,-514,-470,-427,-425,-406,-397,-387,-391,-406,-425,-440,-422,-390,-344,-285,-214,-141,-92,-68,-73,-68,-59,-51,-43,-28,-6,15,22,33,85,142,225,316,380,424,432,436,419,387,359,327,288,258,280,320,321,360,349,260,222,252,283,296,304,289,197,-506,-994,1264,5041,4906,2817,1305,263,-478,-651,-617,-598,-587,-569,-546,-540,-544,-546,-566,-586,-614,-649,-690
2018-05-14,14:26:23.954,-717,-690,-666,-604,-484,-319,-151,0,129,233,325,358,326,263,223,188,151,128,101,67,45,20,15,5,-12,-29,-38,-175,-489,-589,-593,-597,-545,-449,-408,-316,-192,-148,-127,-74,-40,-53,-83,-155,-517,-1385,-1794,56,3209,2715,1052,-98,-909,-1467,-1466,-1346,-1269,-1180,-1085,-932,-627,-295,-117,-53,-46,-52,-80,-111,-128,-125,-85,-12,88,211,363,494,592,680,746,768,762,720,605,498,385,282,206,153,119,163,340,510,540,522,489,458,407,341,268,220,238,258,218,199,121,13,-28,-61,-104,-125,-163,-210,-584,-1318,-715,2085,3691,2359,913,-68,-745,-927,-794,-698,-635,-601,-578,-572
2018-05-14,14:26:24.992,-554,-531,-528,-533,-565,-605,-637,-682,-721,-720,-690,-632,-545,-468,-388,-309,-253,-207,-176,-152,-134,-116,-115,-128,-139,-146,-147,-155,-171,-171,-159,-140,-24,98,158,151,98,34,-14,-9,33,38,60,33,-60,-101,-92,-98,-133,-159,-179,-357,-1203,-1372,776,3674,3135,1496,213,-638,-1083,-1064,-990,-947,-886,-846,-811,-778,-743,-711,-695,-682,-659,-669,-680,-668,-665,-627,-589,-526,-436,-365,-301,-257,-221,-205,-193,-183,-164,-161,-181,-207,-228,-250,-271,-300,-320,-342,-362,-386,-395,-401,-400,-424,-425,-434,-437,-416,-323,-271,-236,-224,-260,-300,-275,-244,-194,-159,-145,-206,-772,-1508,-354,3025,4255,2482,719,-362
2018-05-14,14:26:26.029,-1064,-1114,-1012,-945,-814,-596,-321,-179,-156,-167,-197,-235,-278,-327,-384,-448,-493,-494,-458,-425,-373,-293,-223,-168,-114,-63,-8,40,83,103,133,181,247,284,323,360,385,399,396,381,376,360,362,364,351,349,355,371,443,523,531,556,515,403,355,343,310,265,221,186,-50,-976,-1170,1173,4628,4358,2122,348,-686,-1092,-1021,-954,-891,-821,-769,-722,-688,-669,-650,-656,-654,-670,-688,-727,-762,-766,-749,-699,-641,-575,-511,-429,-347,-275,-230,-183,-150,-134,-131,-158,-177,-196,-211,-225,-223,-230,-230,-217,-198,-186,-179,-163,-139,-136,-140,-160,-173,-172,-114,-50,-39,-11,-23,-94,-102,-82,-82,-92
2018-05-14,14:26:27.066,-85,-76,-199,-977,-1331,605,3856,3657,1891,464,-470,-1038,-1069,-974,-929,-870,-830,-782,-716,-670,-640,-586,-553,-528,-526,-529,-520,-510,-465,-404,-318,-227,-138,-45,20,59,101,132,162,187,204,196,182,166,164,157,155,167,182,193,208,212,217,237,243,240,230,213,193,176,208,279,294,324,364,352,374,459,517,516,480,444,337,-290,-985,343,3835,4528,2697,964,-128,-804,-875,-813,-801,-774,-726,-692,-672,-633,-584,-556,-540,-540,-559,-573,-583,-589,-554,-505,-444,-368,-279,-199,-138,-78,-20,19,37,49,73,66,62,54,38,35,17,14,16,25,35,45,55,54,55,79,74,45
2018-05-14,14:26:28.103,31,16,24,92,131,131,133,78,25,48,56,37,32,19,-35,-548,-1315,-306,3006,4506,2840,1005,-204,-964,-1059,-973,-940,-897,-830,-774,-729,-681,-643,-626,-600,-585,-571,-573,-575,-581,-556,-511,-455,-368,-270,-188,-114,-31,15,64,94,111,127,119,103,88,89,76,69,69,71,70,74,89,95,101,116,120,117,105,83,57,37,96,135,135,185,149,74,58,73,79,64,53,38,-142,-934,-1029,1218,4034,3379,1738,433,-465,-947,-929,-865,-824,-767,-727,-678,-616,-580,-541,-522,-500,-487,-480,-493,-514,-513,-476,-417,-343,-254,-165,-97,-43,-4,22,52,83,90,90,86,81,84,88
2018-05-14,14:26:29.141,74,74,86,94,103,105,109,118,126,139,154,149,135,118,95,91,161,221,226,244,197,114,110,118,106,81,77,68,-172,-1067,-946,1689,4401,3452,1667,295,-633,-1002,-948,-883,-854,-809,-759,-706,-667,-636,-595,-574,-561,-546,-549,-562,-564,-554,-527,-458,-378,-295,-200,-120,-56,-12,30,60,88,105,101,105,110,110,103,91,75,76,78,88,99,101,114,117,111,119,120,99,81,57,53,126,168,173,184,137,83,101,98,78,68,71,35,-415,-1341,-603,2736,4732,3227,1297,-76,-909,-1056,-977,-923,-858,-810,-763,-716,-658,-618,-596,-562,-541,-537,-548,-566,-583,-560,-528,-470,-383
2018-05-14,14:26:30.178,-289,-189,-103,-41,20,72,110,140,149,161,158,146,126,120,109,101,99,113,123,120,117,126,144,149,138,132,107,71,56,121,185,196,232,198,113,111,126,117,110,108,90,-110,-958,-1064,1383,4450,3696,1955,516,-449,-963,-940,-863,-817,-755,-677,-634,-584,-547,-504,-451,-410,-389,-388,-376,-369,-334,-278,-215,-131,-40,54,127,167,197,232,262,270,278,285,288,279,273,258,242,230,226,222,216,212,212,242,240,227,233,226,195,160,148,191,222,212,226,173,84,85,93,84,79,81,77,-145,-936,-813,1737,4143,3018,1525,445,-356,-743,-684,-620,-605,-563,-518,-504,-508
2018-05-14,14:26:31.215,-476,-439,-396,-376,-370,-374,-395,-405,-406,-389,-328,-251,-177,-105,-16,73,113,127,128,125,113,103,63,37,20,0,5,12,29,29,41,51,58,71,76,79,67,53,52,37,76,255,407,480,488,404,319,301,254,209,167,127,46,-583,-1227,138,3393,3753,2177,792,-202,-881,-1011,-940,-904,-860,-807,-761,-722,-688,-659,-639,-624,-616,-625,-640,-644,-617,-563,-511,-446,-364,-300,-272,-261,-245,-227,-180,-125,-97,-98,-114,-164,-247,-377,-487,-532,-542,-539,-504,-463,-419,-367,-323,-272,-230,-175,-92,39,180,342,435,447,455,411,309,272,252,211,168,118,71,-179,-1060,-1037,1493,4336,3222
2018-05-14,14:26:32.252,1479,145,-763,-1195,-1138,-1069,-1046,-1018,-973,-922,-872,-833,-795,-750,-724,-708,-702,-690,-680,-651,-578,-429,-236,-44,110,197,216,209,258,361,504,582,539,473,432,371,309,274,232,194,174,148,130,120,127,127,122,99,68,35,5,15,146,248,325,339,240,160,149,125,92,62,46,-15,-562,-1245,24,3463,4684,2933,1044,-230,-976,-1050,-1005,-1014,-1001,-966,-930,-893,-846,-793,-744,-701,-691,-675,-667,-671,-684,-672,-618,-544,-447,-332,-214,-118,-33,41,98,132,162,178,174,163,146,135,142,145,160,181,181,188,209,223,264,321,349,341,327,307,334,403,429,454,439,364,325,327
2018-05-14,14:26:33.290,328,308,287,264,157,-587,-1235,418,4133,4968,2946,905,-394,-1024,-1038,-1012,-1012,-982,-939,-896,-842,-800,-762,-712,-633,-571,-570,-586,-609,-636,-648,-613,-560,-499,-423,-335,-273,-206,-133,-71,-30,-5,-8,-11,-22,-31,-49,-80,-101,-99,-105,-112,-114,-90,-88,-82,-69,-68,-71,-83,-101,-107,-65,3,34,76,72,-10,-51,-25,-13,-36,-39,-54,-157,-816,-1270,480,3693,3374,1806,552,-332,-935,-993,-868,-816,-768,-709,-675,-640,-586,-553,-523,-498,-492,-482,-487,-491,-489,-449,-395,-313,-216,-134,-69,-34,1,27,45,74,95,106,118,109,81,77,77,70,71,66,59,56,68,72,75,86,107
2018-05-14,14:26:34.327,105,79,57,41,97,171,191,218,215,158,153,174,166,156,149,122,-149,-1019,-954,1610,4665,4045,1953,248,-743,-971,-897,-899,-894,-871,-824,-797,-789,-780,-754,-743,-739,-744,-767,-772,-775,-765,-723,-661,-585,-485,-372,-261,-159,-80,-19,35,79,89,83,83,85,62,41,34,42,44,45,51,56,49,57,68,67,76,72,62,37,1,11,84,104,128,149,81,22,39,57,64,53,43,-18,-557,-1297,-233,3028,4459,2990,1120,-172,-923,-1015,-937,-897,-841,-783,-732,-674,-635,-579,-553,-532,-521,-519,-535,-549,-554,-524,-474,-402,-316,-226,-122,-22,45,107,159,206,216,229,222,210,207
2018-05-14,14:26:35.364,191,172,162,138,120,122,128,143,147,131,135,140,139,132,111,90,73,96,157,176,189,184,100,59,93,103,78,57,57,-30,-701,-1329,257,3705,4307,2627,921,-222,-924,-1041,-974,-923,-868,-822,-776,-720,-660,-635,-600,-570,-558,-550,-542,-540,-527,-487,-432,-364,-261,-153,-70,-19,20,58,83,98,102,115,112,109,108,109,93,90,98,96,88,99,110,117,116,132,123,122,105,79,56,59,134,161,169,174,115,52,65,88,81,68,45,15,-404,-1191,-298,2914,3875,2273,1020,81,-666,-928,-865,-813,-771,-726,-684,-631,-575,-531,-497,-467,-443,-438,-437,-430,-421,-389,-341,-279
2018-05-14,14:26:36.401,-187,-105,-42,11,35,37,39,32,49,71,74,68,76,86,81,70,65,67,76,74,79,102,108,126,138,138,133,111,106,106,177,223,227,258,233,160,153,173,178,175,169,157,-88,-909,-738,1901,4491,3333,1697,454,-429,-833,-768,-706,-661,-609,-538,-493,-454,-390,-352,-314,-284,-270,-279,-298,-302,-282,-253,-183,-101,-16,67,132,162,190,231,256,279,296,308,309,318,321,320,317,320,351,380,387,400,396,396,403,406,406,408,406,408,434,551,639,621,615,510,351,288,262,216,164,110,64,-253,-1155,-972,1814,4625,3611,1647,167,-813,-1197,-1143,-1097,-1063,-1015,-954,-892
2018-05-14,14:26:37.438,-849,-801,-750,-692,-642,-618,-605,-601,-600,-584,-530,-448,-354,-238,-147,-80,-42,-21,-11,3,-5,-16,-25,-55,-91,-136,-184,-216,-235,-262,-265,-259,-254,-259,-271,-265,-253,-255,-267,-291,-309,-246,-160,-155,-139,-167,-250,-268,-252,-251,-249,-258,-265,-430,-1304,-1592,681,4183,3874,1849,167,-886,-1383,-1353,-1281,-1233,-1156,-1095,-1029,-970,-917,-882,-850,-822,-820,-806,-797,-791,-774,-748,-682,-614,-510,-404,-333,-265,-206,-163,-125,-83,-57,-56,-69,-70,-92,-98,-102,-96,-92,-76,-59,-43,-28,-20,-4,12,11,2,-7,-31,14,82,86,107,102,17,-9,7,-4,-11,-27,-24,-167,-908,-1126,959,4062,3274
2018-05-14,14:26:38.476,1603,393,-464,-985,-1010,-942,-899,-831,-785,-734,-673,-605,-527,-470,-419,-393,-381,-376,-373,-363,-349,-298,-240,-155,-73,-4,46,74,113,127,131,130,140,139,125,107,98,86,72,64,73,84,85,96,114,117,128,122,109,99,92,172,246,252,285,264,181,184,210,209,188,178,160,-190,-1061,-625,2327,4864,3684,1648,180,-706,-885,-804,-766,-728,-689,-649,-602,-560,-528,-499,-476,-474,-479,-500,-515,-513,-508,-485,-433,-366,-296,-216,-126,-44,29,83,127,141,154,152,144,114,69,24,-18,-44,-75,-94,-102,-108,-108,-108,-97,-109,-118,-104,-85,-39,81,138,185,219,179,141,191,211
2018-05-14,14:26:39.513,208,201,190,142,-496,-1290,90,3746,4950,3134,1126,-171,-883,-955,-896,-879,-832,-789,-746,-697,-665,-633,-600,-585,-563,-562,-562,-577,-569,-533,-489,-424,-343,-251,-165,-98,-37,22,73,117,171,212,224,245,254,255,234,230,228,212,205,205,203,203,200,181,182,172,151,154,171,242,254,270,275,193,144,170,153,143,123,91,-6,-717,-1363,308,4058,4617,2700,862,-310,-956,-988,-898,-864,-833,-773,-720,-690,-660,-626,-595,-564,-551,-555,-557,-544,-527,-513,-472,-391,-314,-233,-144,-89,-34,26,85,137,188,208,206,186,146,114,92,63,41,19,13,11,14,9,2,7,-18,-42,-63
2018-05-14,14:26:40.550,-84,-54,11,27,57,43,-40,-59,-44,-52,-59,-67,-87,-249,-1016,-1194,977,3848,3135,1541,299,-572,-1121,-1142,-1058,-1029,-982,-928,-877,-804,-767,-720,-677,-646,-624,-604,-600,-583,-558,-507,-445,-382,-298,-202,-139,-86,-60,-25,2,16,30,50,73,74,67,74,74,75,76,81,85,92,106,127,136,142,135,120,114,91,112,180,198,226,229,150,108,139,140,112,101,96,-28,-768,-1116,734,3823,3602,1937,590,-310,-881,-942,-865,-806,-771,-732,-685,-636,-582,-541,-502,-476,-437,-429,-445,-442,-431,-397,-347,-278,-190,-96,6,80,105,124,136,154,166,172,171,160,145,134,128,121,115
2018-05-14,14:26:41.587,127,128,134,146,156,166,154,159,176,197,197,214,266,251,261,256,176,126,133,120,96,84,90,-13,-777,-1243,621,4193,4300,2478,919,-107,-706,-713,-664,-647,-593,-528,-472,-423,-411,-423,-432,-439,-452,-474,-491,-491,-483,-476,-444,-379,-332,-212,-94,-50,-46,-11,74,115,117,127,131,134,120,112,99,85,104,116,108,98,105,114,113,87,65,55,37,5,41,118,113,140,111,41,11,26,18,-3,-29,-21,-163,-923,-1473,275,3992,4645,2512,505,-658,-1188,-1142,-1074,-1018,-954,-900,-879,-861,-810,-762,-727,-704,-694,-693,-685,-687,-673,-635,-599,-533,-446,-349,-254,-169,-93,-38,6
2018-05-14,14:26:42.625,47,92,122,128,113,92,88,109,97,86,95,107,118,106,95,85,88,86,68,47,35,55,144,163,171,164,78,22,43,26,4,-12,-10,-83,-795,-1474,67,3711,4739,2769,757,-464,-1116,-1132,-1041,-1007,-954,-893,-840,-799,-752,-699,-677,-639,-613,-609,-614,-645,-629,-590,-525,-453,-362,-273,-181,-97,-24,45,101,137,159,168,170,169,179,165,116,112,94,68,53,31,37,24,23,35,39,6,-31,-6,41,115,153,154,189,154,73,65,90,63,14,21,10,-314,-1202,-736,2218,4375,3047,1382,238,-533,-838,-753,-697,-654,-613,-573,-533,-490,-471,-464,-408,-368,-379,-394,-384,-398
2018-05-14,14:26:43.662,-369,-333,-277,-218,-147,-90,-13,13,30,42,68,84,82,95,88,58,20,18,11,-2,-12,-2,11,8,-15,-19,-15,-12,-3,-4,0,17,72,88,112,116,34,-20,6,15,4,-12,-26,-136,-828,-1213,493,3583,3372,1816,590,-345,-1007,-1026,-850,-743,-712,-610,-517,-478,-467,-453,-449,-435,-460,-592,-601,-430,-362,-388,-356,-230,-217,-114,61,88,83,57,96,128,115,75,52,87,93,70,43,35,38,49,65,63,70,98,88,74,52,53,35,14,46,141,136,142,148,81,77,79,72,54,96,121,-101,-940,-988,1334,4196,3600,1885,493,-410,-887,-875,-811,-762,-721,-676,-614
2018-05-14,14:26:44.699,-575,-531,-500,-462,-438,-424,-431,-416,-407,-421,-396,-339,-287,-216,-145,-86,-47,-17,-1,-17,-24,-18,-21,-26,-50,-41,-42,-58,-39,-22,4,10,-6,32,55,83,109,118,83,58,32,57,114,128,153,159,91,45,59,65,62,54,40,-78,-883,-1457,230,3949,4720,2723,724,-479,-1062,-1066,-989,-942,-881,-820,-751,-724,-694,-653,-632,-622,-587,-575,-572,-589,-585,-552,-507,-458,-379,-286,-185,-112,-34,43,107,149,180,191,189,166,137,121,95,89,85,73,75,72,66,65,54,57,61,79,67,40,44,97,158,164,182,167,113,108,135,132,121,120,101,-165,-1134,-1194,1428,5001
2018-05-14,14:26:45.736,4290,2022,308,-726,-1094,-1027,-978,-927,-873,-816,-770,-722,-663,-636,-601,-563,-555,-555,-553,-550,-538,-508,-469,-398,-312,-230,-140,-51,8,67,127,173,202,215,202,182,172,146,124,124,114,107,108,116,113,117,139,142,140,135,114,86,111,196,206,220,218,143,110,139,128,115,112,106,-19,-749,-1156,681,3986,3948,2135,655,-287,-884,-922,-830,-776,-724,-674,-632,-576,-522,-491,-449,-423,-403,-402,-397,-405,-384,-347,-316,-251,-171,-89,-18,43,99,129,154,199,214,218,211,203,205,203,184,180,177,178,190,209,204,205,208,217,221,211,181,155,156,223,259,272,291,238,159
2018-05-14,14:26:46.774,173,205,181,162,157,109,-367,-1047,-8,3088,3842,2266,979,80,-600,-817,-740,-679,-646,-594,-546,-514,-490,-449,-417,-415,-392,-374,-372,-375,-367,-350,-291,-245,-181,-103,-41,1,28,30,36,36,39,61,58,70,94,74,63,51,44,47,49,87,110,117,128,118,105,133,128,82,44,108,145,145,168,124,16,-8,-1,-19,-27,-38,-79,-435,-1355,-896,2092,4298,3030,1217,-71,-933,-1159,-1085,-1043,-1017,-957,-903,-866,-833,-791,-755,-718,-689,-675,-680,-678,-688,-677,-640,-585,-507,-409,-333,-268,-201,-134,-86,-48,-18,8,10,5,12,12,-1,-14,-21,-5,-3,5,31,39,34,40,50
2018-05-14,14:26:47.811,50,30,13,24,92,118,130,122,49,9,22,17,11,5,-12,-92,-684,-1371,-121,3252,4457,2712,826,-364,-1046,-1071,-988,-948,-890,-811,-735,-658,-608,-561,-516,-475,-455,-435,-434,-454,-448,-424,-393,-341,-278,-203,-122,-45,12,71,115,135,148,154,137,108,86,63,39,18,8,3,0,5,26,32,62,121,132,95,47,4,0,56,57,66,75,14,-53,-32,-41,-61,-84,-97,-133,-590,-1396,-551,2678,4407,2906,1044,-214,-985,-1152,-1069,-1015,-972,-910,-852,-799,-749,-700,-655,-626,-598,-589,-585,-585,-577,-558,-506,-446,-381,-291,-195,-110,-61,-9,35,77,94,119,117,105,114,98,85
2018-05-14,14:26:48.848,84,90,102,110,110,117,131,121,123,122,102,88,69,83,169,197,224,223,154,101,114,97,74,61,48,-3,-571,-1267,105,3557,4276,2556,897,-214,-896,-964,-883,-846,-808,-749,-698,-660,-619,-575,-526,-494,-502,-486,-484,-487,-476,-457,-421,-359,-283,-202,-121,-61,-9,41,74,85,83,105,114,116,118,122,113,118,125,126,118,131,134,163,172,171,165,150,123,115,169,226,224,239,201,122,126,148,134,105,88,74,-166,-931,-693,1925,4036,2589,1194,207,-571,-910,-837,-778,-748,-708,-653,-611,-580,-552,-519,-488,-473,-465,-459,-470,-468,-463,-438,-381,-328,-247,-161,-105,-66,-43
2018-05-14,14:26:49.885,-37,-20,0,8,6,18,24,15,0,10,24,27,22,31,52,56,62,73,61,40,27,20,82,144,145,161,124,48,41,58,55,47,40,3,-319,-1047,-453,2363,3716,2216,960,65,-651,-883,-786,-733,-701,-660,-607,-567,-522,-492,-469,-444,-431,-424,-427,-428,-429,-414,-383,-338,-268,-188,-105,-42,-13,-3,8,31,46,43,45,46,40,45,36,35,29,29,49,56,58,65,70,72,72,59,39,55,135,160,179,184,111,52,80,86,79,69,54,-20,-694,-1250,373,3743,3979,2197,623,-417,-950,-936,-868,-832,-773,-738,-690,-635,-602,-565,-531,-506,-490,-493,-496,-500,-493,-486
2018-05-14,14:26:50.922,-448,-382,-309,-227,-154,-95,-26,36,82,108,135,147,139,134,114,107,96,87,81,79,82,80,89,97,95,95,93,74,48,96,163,173,198,169,90,88,107,95,77,61,40,-204,-1052,-967,1632,4447,3529,1632,205,-726,-1017,-928,-880,-833,-781,-732,-682,-635,-591,-568,-535,-510,-503,-516,-513,-509,-508,-486,-448,-377,-293,-211,-138,-60,-6,45,84,117,141,160,146,130,117,100,89,82,77,82,92,102,114,118,110,96,91,77,86,165,197,211,217,147,92,115,119,106,92,81,-25,-700,-1157,555,3784,3925,2138,591,-417,-941,-922,-854,-817,-759,-700,-648,-596,-567,-534,-498
2018-05-14,14:26:51.960,-473,-460,-446,-453,-443,-432,-417,-379,-315,-230,-150,-72,-8,51,106,152,187,205,207,211,215,215,199,184,189,184,201,216,228,229,235,249,255,235,224,212,281,334,345,367,317,237,246,272,264,251,240,207,-164,-887,-138,2872,3877,2343,1099,225,-452,-649,-578,-529,-502,-447,-400,-376,-335,-310,-280,-245,-230,-238,-234,-243,-239,-233,-195,-140,-86,-11,70,124,155,174,208,223,245,252,248,241,225,223,220,217,218,196,187,188,183,183,177,163,148,128,113,132,197,199,223,200,101,63,54,25,-5,-40,-75,-351,-1183,-987,1621,4031,2945,1200,-60,-913,-1183,-1117,-1078,-1040
2018-05-14,14:26:52.997,-1000,-952,-911,-865,-824,-799,-777,-747,-733,-733,-745,-749,-736,-705,-655,-585,-491,-400,-324,-256,-205,-160,-145,-143,-136,-136,-156,-172,-194,-198,-211,-222,-219,-220,-212,-202,-198,-182,-177,-169,-183,-200,-171,-81,-25,5,64,63,21,9,-11,-41,-91,-118,-198,-870,-1534,-58,3352,4083,2330,577,-544,-1115,-1098,-1013,-963,-904,-837,-781,-727,-671,-630,-591,-552,-529,-530,-536,-542,-521,-512,-489,-431,-349,-266,-184,-98,-21,40,97,134,147,152,134,125,135,143,131,114,110,113,116,109,131,142,152,162,151,133,104,103,138,167,179,166,91,6,0,15,6,-13,-43,-114,-649,-1236,105,3313,3598
2018-05-14,14:26:54.034,1916,572,-321,-960,-1038,-958,-902,-847,-800,-743,-678,-631,-581,-527,-478,-443,-429,-413,-377,-339,-293,-222,-141,-38,119,248,316,331,362,385,396,413,421,429,442,442,451,477,500,505,506,506,498,508,525,525,526,528,518,500,484,525,583,586,613,593,515,492,487,466,452,439,422,153,-570,-231,2305,4113,2857,1516,656,-23,-382,-343,-315,-313,-288,-250,-210,-133,-70,-45,-27,-10,-4,26,52,58,40,41,128,213,189,185,190,219,211,138,45,-9,-53,-82,-121,-90,-76,-110,-147,-173,-192,-231,-263,-299,-336,-363,-373,-378,-381,-405,-457,-625,-768,-699,-643,-588,-514,-529,-598,-583
2018-05-14,14:26:55.071,-555,-559,-564,-518,-671,-1418,-2007,-555,2642,3117,1525,142,-787,-1360,-1377,-1266,-1208,-1144,-1072,-1010,-958,-907,-849,-782,-711,-684,-690,-696,-546,-461,-480,-453,-387,-291,-186,-105,-35,31,92,130,156,166,187,194,173,174,170,161,143,148,149,159,181,208,282,381,453,440,416,423,430,432,450,489,488,517,525,444,346,356,374,366,333,257,116,-626,-1265,387,3916,4309,2320,491,-619,-1131,-1092,-972,-937,-927,-904,-861,-821,-816,-811,-797,-775,-752,-748,-759,-766,-766,-747,-632,-638,-622,-556,-464,-372,-304,-230,-123,-74,-77,-74,-96,-112,-114,-136,-174,-320,-417,-381,-339,-302,-265,-243,-211,-181,-156
2018-05-14,14:26:56.109,-122,-119,-98,-87,-76,6,49,83,110,67,-15,-1,30,34,20,8,-33,-488,-1262,-392,2837,4566,2937,1042,-179,-941,-1036,-944,-903,-846,-766,-676,-629,-615,-600,-582,-572,-579,-622,-663,-665,-637,-597,-542,-466,-395,-302,-200,-76,37,153,238,271,267,265,262,247,233,204,200,200,203,221,248,268,281,301,315,307,306,280,256,226,168,135,163,197,178,194,154,59,46,47,37,21,14,-8,-267,-983,-663,1859,3675,2418,1115,174,-540,-906,-841,-770,-730,-660,-579,-502,-436,-393,-341,-308,-307,-301,-286,-285,-285,-279,-261,-234,-177,-112,-54,0,39,43,48,27,8,5,0,-23,-32
2018-05-14,14:26:57.146,-61,-76,-88,-86,-77,-67,-52,-56,-54,-55,-47,-36,-31,-29,-40,-56,-84,-72,-11,8,34,43,-10,-44,-20,-14,-26,-36,-40,-126,-741,-1159,447,3382,3268,1726,525,-330,-904,-940,-852,-826,-790,-741,-687,-636,-601,-571,-529,-500,-411,-315,-282,-291,-301,-295,-264,-220,-160,-90,-28,12,41,63,69,76,87,107,118,115,112,100,91,80,70,74,81,87,91,94,112,123,124,126,127,105,76,70,143,180,197,215,174,106,112,132,120,112,104,65,-299,-1178,-604,2478,4409,2962,1177,-43,-828,-962,-864,-833,-794,-728,-671,-610,-570,-520,-483,-455,-436,-440,-455,-469,-494,-500,-483,-448
2018-05-14,14:26:58.183,-388,-298,-199,-95,-8,48,101,145,164,167,160,150,132,110,83,62,61,55,59,56,60,68,80,90,103,102,83,57,30,48,129,152,172,199,142,77,92,106,97,70,56,9,-456,-1265,-392,2836,4594,3027,1088,-185,-931,-1012,-930,-896,-858,-796,-742,-697,-652,-622,-597,-569,-554,-540,-550,-551,-552,-533,-504,-447,-377,-301,-212,-114,-35,28,95,128,163,180,192,182,159,142,132,123,121,108,106,101,100,108,121,134,130,109,96,79,67,96,169,173,195,188,112,64,82,72,60,45,40,-73,-756,-1087,818,3822,3544,1874,517,-387,-922,-922,-843,-817,-768,-714,-670,-624
2018-05-14,14:26:59.220,-594,-551,-510,-475,-462,-460,-471,-470,-461,-433,-391,-313,-237,-149,-78,-35,-6,35,61,83,87,102,112,107,107,112,106,118,123,141,155,176,192,198,193,184,173,137,114,95,132,181,169,196,179,83,72,95,86,55,34,24,-151,-911,-832,1557,3746,2575,1258,288,-467,-870,-841,-779,-753,-703,-654,-613,-588,-554,-507,-471,-452,-441,-440,-453,-454,-426,-401,-348,-280,-201,-120,-53,-18,0,10,23,29,41,55,63,55,48,34,41,43,31,42,47,62,71,81,90,96,96,71,53,53,112,153,170,199,148,77,77,104,93,80,78,39,-362,-1146,-381,2723,4320,2760,1072
2018-05-14,14:27:43.020,381,429,482,521,579,622,618,618,601,583,560,533,498,438,409,385,340,306,289,264,251,225,151,73,-30,-137,-194,-199,-181,-162,-142,-114,-104,-107,-106,-110,-109,-93,-73,-47,-4,18,50,50,36,38,42,40,43,36,63,75,54,-1,-74,-157,-189,-177,-145,-99,-51,-55,-478,-1014,45,3057,4199,2339,806,-87,-749,-928,-879,-872,-899,-924,-976,-1020,-1033,-1034,-1031,-1034,-1030,-1031,-1022,-995,-995,-983,-957,-910,-793,-632,-504,-418,-341,-258,-183,-119,-32,82,195,281,380,440,497,553,587,628,636,628,615,613,600,573,551,532,496,480,446,434,467,469,469,452,374,272,240,243
2018-05-14,14:27:43.882,262,246,169,41,-384,-1193,-728,2115,4005,2392,869,40,-600,-924,-775,-675,-651,-601,-532,-454,-420,-396,-385,-389,-402,-405,-386,-384,-379,-326,-297,-283,-250,-222,-173,-115,-101,-82,-45,0,27,42,75,95,96,115,102,66,26,-5,-25,-35,-52,-56,-87,-163,-234,-326,-432,-509,-511,-444,-400,-353,-299,-320,-346,-329,-356,-406,-419,-361,-328,-663,-1304,-358,2933,4215,2440,981,84,-594,-769,-661,-557,-480,-393,-305,-206,-136,-99,-83,-83,-81,-95,-113,-146,-166,-171,-174,-155,-98,-38,11,65,102,103,113,127,141,160,98,31,8,37,79,103,101,117,142,147,129,123,92,46,35,34,7
2018-05-14,14:27:44.919,34,125,162,189,178,81,17,14,-2,-4,-4,-22,-93,-627,-1382,-272,3322,4595,2605,959,-64,-780,-1033,-972,-934,-877,-812,-759,-705,-665,-588,-521,-508,-515,-533,-544,-528,-522,-484,-417,-390,-385,-409,-413,-382,-359,-336,-283,-237,-189,-174,-182,-200,-224,-212,-154,-110,-54,-2,30,70,107,153,196,226,255,292,329,389,449,462,462,392,272,250,257,243,204,178,170,7,-823,-1232,1097,4819,4418,2091,546,-350,-983,-1170,-1093,-1013,-939,-873,-797,-744,-702,-633,-546,-481,-454,-410,-379,-366,-318,-243,-168,-101,-41,3,22,13,-27,-79,-131,-167,-229,-271,-291,-295,-283,-246,-218,-207,-146,-85,-19
2018-05-14,14:27:45.956,49,105,144,154,145,126,104,107,143,164,221,204,133,136,169,207,196,160,174,99,-584,-1110,663,3845,3519,1805,507,-268,-799,-1039,-989,-940,-918,-887,-864,-811,-708,-574,-484,-415,-357,-317,-289,-236,-174,-114,-38,42,123,184,235,231,197,163,144,95,67,53,27,13,8,-4,-11,-4,2,18,5,-2,-15,-31,-51,-57,-28,54,121,115,127,55,-125,-194,-142,-94,-66,-20,28,-27,-512,-696,884,3230,2362,808,279,-108,-486,-653,-543,-480,-505,-515,-490,-441,-347,-270,-240,-246,-266,-300,-336,-337,-313,-266,-178,-84,-12,54,104,105,79,51,31,5,26,33,33,-9,-50,-74
2018-05-14,14:27:46.993,-44,-30,-48,-106,-182,-261,-349,-417,-452,-450,-414,-322,-222,-197,-183,-214,-309,-336,-282,-237,-169,-103,-49,-74,-515,-666,1003,3700,2799,1308,671,214,-220,-439,-398,-347,-317,-279,-218,-183,-154,-138,-129,-117,-100,-94,-78,-40,-7,45,100,166,233,257,248,203,113,23,-49,-105,-138,-165,-188,-210,-231,-232,-240,-233,-206,-191,-173,-169,-166,-159,-130,-96,-51,54,113,126,142,81,23,-1,-21,-30,-57,-103,-168,-456,-1088,-648,1858,3484,1881,609,4,-420,-776,-749,-636,-595,-544,-452,-379,-314,-268,-253,-256,-276,-260,-230,-220,-225,-249,-300,-379,-429,-421,-403,-376,-377,-402,-453,-491,-527,-586,-573
2018-05-14,14:27:48.031,-472,-355,-247,-162,-89,-47,12,75,132,176,207,238,253,256,330,411,435,457,458,402,365,372,362,336,308,284,203,-427,-950,627,4176,4169,2105,774,-13,-624,-923,-847,-773,-749,-712,-664,-642,-612,-534,-463,-396,-323,-264,-231,-194,-163,-136,-80,-8,48,107,150,148,103,75,24,-25,-57,-78,-102,-127,-166,-198,-256,-306,-347,-380,-374,-363,-315,-222,-127,-62,-29,7,78,143,194,242,226,196,154,125,115,93,53,29,-98,-745,-1191,216,3051,2719,1004,114,-435,-919,-1106,-1014,-952,-940,-958,-953,-913,-780,-597,-426,-319,-244,-184,-124,-47,12,67,148,217,278,354,406,431,386,325
2018-05-14,14:27:49.068,266,216,181,163,150,119,96,76,44,39,25,16,-6,-18,-12,-3,-15,0,11,16,25,37,112,167,166,170,105,27,8,30,41,39,34,11,-267,-858,-348,2201,3493,1658,415,-73,-427,-693,-622,-525,-491,-479,-451,-439,-452,-453,-460,-489,-514,-510,-444,-376,-305,-213,-134,-46,25,82,128,126,113,56,11,-5,-15,-7,-11,-41,-49,-50,-72,-106,-172,-262,-371,-473,-525,-526,-513,-498,-458,-416,-415,-458,-482,-420,-297,-173,-31,48,48,74,151,233,260,271,303,228,-386,-674,1250,4464,3767,1728,682,61,-448,-602,-504,-442,-433,-418,-369,-342,-305,-260,-244,-240,-230,-205,-189,-175
2018-05-14,14:27:50.105,-145,-87,-18,30,57,48,31,-8,-48,-68,-98,-90,-74,-76,-71,-100,-117,-142,-164,-154,-139,-119,-86,-67,-67,-48,-25,-36,-56,-27,-18,-28,-42,-51,-37,-35,-74,-62,-38,-65,-64,-7,67,91,88,90,14,-568,-963,637,4010,3882,1915,625,-164,-736,-910,-805,-763,-780,-820,-890,-954,-991,-969,-928,-884,-803,-730,-686,-649,-601,-573,-527,-492,-385,-255,-106,14,80,115,132,150,171,185,205,215,200,196,182,169,185,204,230,243,243,252,264,271,271,263,255,241,228,181,162,168,223,263,276,280,226,104,-13,-113,-178,-157,-138,-106,-199,-690,-566,1505,3590,2311,1022,348,-144
2018-05-14,14:27:51.142,-629,-720,-628,-591,-578,-542,-501,-454,-426,-411,-372,-323,-279,-255,-254,-239,-211,-195,-217,-226,-206,-146,-90,-57,-54,-68,-83,-75,-84,-83,-83,-68,-72,-87,-101,-102,-101,-112,-85,-75,-56,-43,-35,-69,-104,-146,-202,-265,-337,-385,-432,-407,-363,-337,-318,-366,-445,-442,-380,-277,-170,-74,18,19,-433,-719,736,3661,3680,1914,912,267,-323,-580,-505,-447,-421,-389,-348,-313,-266,-256,-239,-215,-205,-188,-170,-159,-143,-90,-27,64,163,209,250,255,185,65,-31,-101,-136,-149,-136,-137,-142,-152,-131,-136,-149,-150,-142,-122,-108,-75,-40,-2,22,38,74,100,123,111,82,41,9,28,37,21
2018-05-14,14:27:52.180,9,-76,-182,-200,-143,-83,-41,-7,17,-40,-550,-855,619,3460,3354,1748,714,-7,-584,-833,-761,-697,-622,-572,-540,-529,-581,-654,-716,-747,-751,-727,-674,-638,-599,-522,-447,-384,-337,-294,-243,-198,-174,-166,-137,-102,-71,-59,-22,41,85,102,97,97,102,115,143,153,166,197,231,252,275,288,283,269,253,237,213,216,274,264,264,257,197,126,96,101,108,85,63,17,-259,-994,-684,1898,3745,2128,765,107,-362,-774,-781,-669,-624,-577,-501,-415,-368,-306,-246,-223,-207,-234,-298,-347,-381,-388,-376,-340,-241,-155,-73,0,40,36,12,-11,-38,-76,-64,-45,-49,-62,-58,-59,-53,-63
2018-05-14,14:27:53.217,-51,-52,-46,-13,16,51,50,28,-19,-113,-190,-286,-354,-413,-398,-329,-308,-270,-245,-311,-380,-399,-397,-345,-236,-114,-29,-250,-886,-294,2545,4288,2683,1318,506,-141,-543,-527,-465,-440,-397,-352,-315,-277,-249,-216,-186,-191,-216,-215,-202,-184,-160,-108,-57,2,91,153,187,193,150,81,53,22,-20,-75,-135,-190,-209,-210,-222,-204,-139,-87,-65,-54,-44,-30,-5,49,99,128,152,170,155,95,45,53,83,63,64,49,-11,-59,-82,-114,-118,-91,-68,-60,-304,-966,-465,2273,3816,2276,1122,303,-318,-771,-794,-729,-699,-634,-570,-510,-465,-444,-420,-471,-581,-680,-764,-830,-848,-793,-658,-492
2018-05-14,14:27:54.254,-397,-322,-291,-309,-330,-348,-320,-269,-193,-122,-51,10,54,101,140,158,165,180,181,193,228,264,294,211,-384,-712,1216,4389,3498,1330,291,-279,-530,-495,-477,-465,-451,-415,-377,-346,-317,-288,-259,-237,-235,-235,-234,-248,-243,-187,-160,-139,-94,-70,-34,-51,-59,-55,-75,-95,-101,-82,-53,-38,-14,17,0,-23,-46,-70,-68,-25,-16,-48,-70,-90,-73,-47,-17,6,18,27,38,49,46,47,55,66,77,131,153,176,191,154,123,114,109,109,76,33,-113,-793,-1354,214,3627,3368,1528,364,-471,-1103,-1389,-1323,-1288,-1279,-1213,-1103,-946,-786,-637,-508,-392,-289,-221,-166,-94,-49,-11,38
2018-05-14,14:27:55.291,113,185,276,345,384,398,370,314,242,179,128,80,51,50,49,29,6,-1,-4,5,7,33,55,68,97,105,99,105,67,19,24,40,48,91,162,159,180,176,95,15,8,38,38,32,50,56,-66,-611,-416,1927,3967,2239,1017,355,-259,-807,-987,-963,-968,-956,-909,-819,-702,-595,-530,-439,-389,-357,-282,-236,-215,-185,-115,-33,44,101,163,159,137,108,102,80,31,-52,-161,-286,-386,-459,-491,-503,-487,-457,-418,-404,-378,-342,-287,-208,-112,-26,57,107,93,76,153,224,240,284,294,245,220,232,239,200,180,180,143,-203,-764,2,2708,3605,1970,968,239,-348,-776,-791
2018-05-14,14:27:56.328,-714,-670,-623,-586,-540,-483,-438,-392,-343,-303,-295,-298,-294,-277,-230,-181,-109,-51,-12,33,59,48,17,-62,-147,-200,-236,-240,-215,-187,-159,-170,-204,-194,-140,-97,-54,-28,-11,-6,-3,-4,-2,-23,-25,-2,46,127,201,229,277,270,183,152,162,141,121,106,89,43,-471,-1052,52,3043,3643,1933,586,-340,-1007,-1301,-1207,-1086,-1025,-959,-885,-833,-805,-828,-839,-809,-742,-673,-596,-506,-392,-247,-95,35,140,231,321,394,417,405,384,353,326,293,268,231,211,173,134,127,127,124,120,103,96,81,77,70,64,60,40,16,-4,11,71,103,132,155,107,10,-26,-47,-38,-6
2018-05-14,14:27:57.366,18,69,-66,-798,-821,1434,4056,3186,1408,287,-481,-931,-890,-808,-784,-750,-706,-658,-609,-555,-512,-494,-477,-454,-464,-481,-470,-447,-383,-307,-197,-103,-19,42,85,94,92,101,122,117,98,79,47,17,-13,-15,-18,-18,8,20,-15,-71,-143,-219,-274,-297,-270,-244,-210,-149,-51,-17,6,35,0,-29,-8,31,70,88,124,141,28,-633,-946,1104,4613,4132,2158,729,-164,-798,-900,-841,-820,-779,-731,-687,-648,-630,-609,-579,-562,-565,-580,-577,-565,-535,-479,-423,-352,-259,-165,-84,-27,34,78,116,117,104,48,-1,-4,0,14,71,106,94,107,128,150,153,154,113,101,101,76,35
2018-05-14,14:27:58.403,41,73,153,200,212,233,177,70,10,-43,-77,-42,18,75,7,-578,-841,969,3949,3452,1871,771,-4,-614,-870,-810,-767,-741,-712,-669,-604,-527,-465,-431,-460,-520,-607,-652,-670,-642,-569,-485,-377,-284,-198,-132,-131,-152,-169,-160,-132,-91,-76,-31,0,31,51,58,60,56,77,92,117,141,164,181,177,173,161,134,110,130,185,191,193,185,91,37,51,65,42,32,25,6,-313,-947,-286,2558,3622,1897,880,180,-398,-786,-806,-689,-666,-615,-542,-486,-437,-381,-342,-330,-293,-269,-291,-284,-254,-223,-195,-164,-121,-78,-31,18,32,7,-56,-109,-177,-239,-266,-296,-334,-319,-272,-227
2018-05-14,14:27:59.440,-151,-78,-40,-7,0,-7,-1,24,12,7,16,40,31,89,112,127,189,190,99,60,26,-21,-104,-206,-253,-403,-1251,-1738,480,4575,4431,2243,577,-448,-1093,-1257,-1155,-1072,-986,-883,-786,-684,-605,-551,-486,-430,-381,-328,-269,-219,-144,-69,-22,57,120,162,191,215,201,164,134,102,86,66,40,28,12,-8,-19,-18,7,16,12,36,56,64,67,66,67,81,95,116,192,213,221,249,193,127,130,149,121,67,29,17,-146,-704,-463,1847,3689,1986,772,232,-236,-706,-783,-700,-683,-701,-687,-666,-661,-615,-545,-491,-411,-346,-295,-261,-240,-206,-161,-99,-44,16,62,99,113,114
2018-05-14,14:28:00.477,53,13,-34,-84,-156,-212,-262,-318,-380,-422,-424,-417,-401,-368,-348,-321,-294,-297,-283,-263,-227,-160,-22,71,158,207,180,155,206,250,271,285,311,299,25,-724,-309,2597,4678,3000,1389,389,-294,-748,-802,-748,-731,-701,-637,-578,-536,-496,-465,-441,-396,-347,-331,-322,-288,-229,-169,-102,-45,-12,21,78,92,74,42,24,9,26,36,43,-4,-51,-74,-91,-90,-88,-91,-82,-66,-44,-31,-30,-40,-45,-49,-59,-3,33,27,57,52,18,43,92,84,75,71,78,-12,-664,-1199,544,4298,4264,2158,758,-124,-763,-992,-926,-857,-830,-835,-838,-843,-848,-837,-796,-744,-681,-629,-584,-548,-505
2018-05-14,14:28:01.515,-449,-392,-317,-219,-107,-8,79,129,119,85,71,70,61,67,56,29,10,29,31,46,68,74,62,68,103,117,115,107,95,91,118,181,206,220,201,118,67,75,79,60,47,44,4,-434,-1166,-66,3635,4610,2129,774,-9,-654,-1050,-1010,-899,-850,-799,-732,-677,-641,-581,-526,-502,-470,-415,-360,-323,-283,-221,-135,-72,-37,-16,0,-20,-61,-126,-186,-234,-245,-234,-230,-210,-165,-112,-68,-47,-28,-11,13,27,33,48,74,74,84,89,95,118,182,215,261,267,203,137,134,121,87,70,44,-4,-419,-1237,-419,3043,4557,2469,886,-15,-638,-1004,-994,-904,-864,-832,-762,-702,-650
2018-05-14,14:28:02.552,-581,-531,-466,-434,-399,-358,-294,-243,-202,-85,3,39,93,163,162,106,53,15,-15,-41,-66,-75,-97,-101,-96,-105,-127,-170,-134,-114,-110,-131,-180,-216,-197,-159,-124,-85,-21,133,189,209,230,209,175,165,146,118,108,95,64,-150,-719,-184,2302,3312,1597,694,224,-263,-688,-709,-720,-761,-769,-781,-740,-666,-561,-435,-342,-302,-240,-230,-222,-184,-136,-74,4,72,141,200,217,178,118,71,32,-21,-70,-105,-144,-192,-253,-330,-413,-463,-472,-459,-429,-383,-355,-331,-292,-234,-151,-84,58,170,204,235,215,127,93,115,138,149,164,197,156,-272,-666,592,3415,3398,1575,718,168,-357
2018-05-14,14:28:03.589,-664,-624,-536,-498,-468,-454,-406,-366,-312,-261,-234,-226,-195,-176,-132,-95,-66,-43,-20,0,15,19,13,-14,-94,-160,-181,-191,-161,-160,-174,-175,-192,-234,-246,-227,-221,-237,-244,-242,-211,-133,-64,-9,16,36,76,133,104,72,21,-65,-103,-46,2,39,76,115,100,-249,-892,-200,2549,3889,2363,923,32,-626,-857,-812,-812,-830,-843,-831,-834,-858,-820,-783,-760,-719,-675,-641,-622,-627,-583,-507,-386,-270,-180,-92,-10,25,32,24,18,54,83,129,180,197,211,231,234,234,261,280,284,295,302,313,304,292,275,268,274,327,344,356,373,311,224,214,225,190,167,157,149,-50
2018-05-14,14:28:04.626,-799,-649,1767,3859,2345,799,6,-565,-888,-796,-714,-703,-681,-642,-626,-586,-529,-455,-376,-318,-291,-264,-253,-266,-289,-276,-219,-166,-115,-109,-100,-233,-174,-147,-116,-89,-75,-51,-24,-4,-15,-29,-36,0,49,105,134,158,165,160,138,124,69,14,8,39,90,96,66,24,-98,-248,-292,-332,-376,-388,-405,-428,-652,-1351,-1070,1460,3814,2565,949,112,-435,-782,-742,-671,-594,-512,-402,-321,-258,-209,-171,-140,-128,-143,-151,-157,-167,-128,-94,-57,-24,18,80,113,135,140,111,69,39,23,14,-14,-38,-59,-49,-22,-26,-108,-187,-180,-125,-71,-18,40,88,119,107,89,95,139,151,201
2018-05-14,14:28:05.663,220,129,58,49,68,66,38,-4,-50,-345,-976,-247,2903,4217,2184,893,65,-658,-1227,-1253,-966,-798,-641,-581,-559,-476,-422,-368,-308,-222,-126,-84,-86,-102,-110,-84,-55,-27,13,53,125,90,6,-70,-158,-239,-305,-370,-430,-466,-480,-472,-487,-443,-399,-339,-298,-233,-164,-115,-63,-13,19,46,99,180,221,232,236,181,140,193,220,232,265,282,277,20,-638,-138,2557,3721,1954,1008,403,-154,-608,-707,-615,-559,-521,-461,-423,-404,-372,-349,-368,-404,-408,-389,-345,-289,-234,-151,-82,4,34,75,98,94,73,45,6,-46,-90,-127,-158,-169,-175,-204,-249,-253,-246,-229,-199,-182,-178,-183
2018-05-14,14:28:06.701,-178,-182,-212,-210,-156,-128,0,88,185,217,176,124,127,137,142,158,178,148,-260,-1043,-279,2967,4272,2437,1201,230,-559,-1079,-1186,-1155,-1157,-1144,-1091,-995,-884,-780,-716,-627,-570,-543,-510,-470,-378,-253,-140,-48,62,153,218,253,269,247,183,126,106,100,104,98,86,81,78,64,43,52,70,74,98,100,93,94,84,67,78,88,140,192,201,207,157,78,55,62,18,-62,-116,-88,-159,-699,-641,1476,3739,2447,974,282,-246,-728,-854,-720,-610,-539,-477,-381,-295,-265,-263,-264,-264,-272,-282,-278,-283,-288,-262,-242,-250,-226,-132,-76,-46,-53,-61,-75,-77,-67,-70,-71,-76,-94
2018-05-14,14:28:07.738,-88,-74,-76,-77,-57,-58,-59,-83,-135,-185,-268,-279,-273,-258,-187,-159,-143,-103,-143,-192,-205,-205,-218,-216,-193,-150,-408,-1003,-336,2288,3374,1816,847,332,-170,-529,-512,-435,-398,-354,-280,-227,-181,-148,-103,-62,-42,-49,-61,-72,-86,-73,-61,-29,20,93,154,206,222,191,129,60,29,-9,-43,-96,-104,-106,-135,-161,-168,-112,-66,-39,-26,15,43,19,-3,-20,-58,-37,92,165,210,246,196,132,113,88,54,23,-7,-69,-337,-1151,-1088,1387,4217,2992,1165,161,-469,-848,-871,-740,-701,-682,-634,-550,-475,-451,-456,-452,-435,-390,-375,-379,-379,-382,-361,-328,-280,-215,-147,-88,-58,-74
2018-05-14,14:28:08.775,-82,-97,-117,-160,-194,-250,-308,-352,-345,-273,-168,-38,46,90,127,147,146,151,158,161,159,176,239,316,338,361,316,223,192,200,186,160,155,158,14,-651,-770,1298,3968,3038,1410,462,-168,-701,-894,-851,-859,-873,-859,-796,-706,-594,-488,-379,-319,-255,-216,-192,-158,-102,-45,42,119,161,197,229,214,154,66,-12,-56,-89,-157,-189,-222,-253,-251,-259,-313,-334,-335,-419,-420,-373,-275,-230,-222,24,82,60,131,183,195,244,282,183,140,146,108,78,99,82,-61,-811,-926,1119,3673,2594,1118,223,-415,-910,-1086,-990,-919,-908,-877,-839,-832,-797,-737,-665,-552,-430,-323,-243,-186,-117
2018-05-14,14:28:09.812,-77,-13,37,61,93,131,174,216,229,241,240,217,180,134,103,80,53,30,20,27,20,18,44,54,54,84,89,65,63,38,78,144,166,181,125,11,-59,-46,-37,-19,12,33,-55,-582,-810,912,3678,2866,1022,264,-247,-726,-814,-674,-609,-566,-516,-464,-424,-401,-390,-366,-364,-381,-404,-417,-430,-465,-453,-374,-269,-174,-69,-7,87,112,42,25,51,31,37,39,18,-8,-25,-55,-61,-53,-48,-54,-51,-38,-48,-79,-93,-121,-149,-152,-96,-61,-49,-27,-67,-164,-171,-141,-102,-95,-92,-72,-163,-829,-877,1329,4200,3275,1434,473,-181,-700,-757,-648,-610,-554,-478,-425,-388,-363
2018-05-14,14:28:10.850,-326,-294,-278,-285,-278,-274,-253,-212,-159,-80,7,62,106,151,178,150,96,69,39,-10,-75,-130,-131,-126,-124,-88,-60,-38,-44,-28,-14,-15,-18,-14,2,19,49,117,172,164,193,197,139,77,56,38,-3,-56,-112,-208,-589,-1082,-186,2372,2710,1265,516,10,-413,-663,-630,-549,-505,-473,-432,-384,-344,-315,-280,-258,-266,-295,-315,-360,-399,-411,-380,-338,-310,-305,-275,-235,-229,-261,-283,-279,-280,-234,-185,-147,-131,-140,-125,-80,-36,6,44,89,131,178,215,222,215,205,237,302,340,361,360,296,232,243,250,234,218,208,189,-170,-873,-251,2510,4009,2393,948,43,-643,-837,-707
2018-05-14,14:28:11.887,-674,-671,-667,-639,-600,-538,-472,-427,-387,-355,-337,-309,-267,-229,-229,-199,-138,-75,-21,15,39,43,21,-13,-30,-41,-80,-129,-196,-256,-291,-314,-339,-333,-282,-219,-132,-70,-16,24,54,54,63,71,95,185,220,242,248,179,123,130,133,149,111,57,-30,-615,-1263,-122,2875,3335,1593,317,-479,-1065,-1227,-1134,-1075,-1048,-969,-851,-738,-590,-456,-364,-280,-196,-172,-184,-170,-147,-115,-56,24,105,178,247,287,308,302,280,245,200,158,101,68,69,47,25,46,54,40,46,68,85,118,144,135,118,116,120,167,174,133,124,105,31,35,50,59,69,53,47,-157,-877,-612,1912
2018-05-14,14:28:12.924,3806,2124,855,197,-395,-834,-828,-742,-701,-674,-628,-566,-569,-572,-579,-577,-539,-476,-438,-406,-383,-349,-296,-251,-176,-115,-42,21,53,62,46,59,74,59,42,0,-22,-17,-38,-33,-16,-26,-36,-20,-7,-22,-39,-78,-109,-158,-184,-151,-168,-182,-170,-162,-157,-64,20,46,51,56,60,-212,-929,-469,2406,4227,2628,1294,424,-250,-698,-725,-664,-638,-603,-537,-506,-476,-414,-385,-368,-367,-369,-374,-361,-363,-342,-272,-193,-108,-40,47,122,138,107,58,14,29,27,-13,-25,-31,-35,-27,-30,-10,3,-1,-18,-16,14,36,67,85,70,77,152,173,165,160,84,-9,-40,-80,-123,-127
2018-05-14,14:28:13.961,-98,-96,-350,-1183,-793,2185,4565,3175,1502,315,-470,-919,-934,-842,-799,-771,-737,-672,-615,-589,-599,-633,-683,-731,-765,-764,-735,-653,-531,-423,-345,-254,-178,-122,-97,-72,-84,-86,-26,19,16,13,11,-4,15,40,53,72,111,159,194,227,248,256,238,241,260,321,334,329,312,233,160,169,196,182,173,155,117,-268,-1134,-501,2817,4830,2966,1282,145,-596,-1027,-1007,-905,-877,-852,-806,-744,-649,-576,-502,-452,-427,-396,-377,-379,-374,-351,-314,-258,-183,-101,-35,10,34,11,-26,-64,-82,-109,-130,-142,-186,-223,-251,-254,-216,-159,-88,-16,38,75,83,107,102,91,106,171,199,253,274
2018-05-14,14:28:14.999,170,109,115,152,144,120,89,-27,-747,-1344,222,3703,3998,2192,673,-335,-1013,-1220,-1138,-1096,-1083,-1039,-960,-853,-755,-659,-564,-475,-422,-410,-397,-366,-319,-266,-192,-126,-49,36,111,160,183,179,182,163,129,101,81,63,57,50,44,41,38,34,32,64,79,95,89,80,79,90,154,183,206,206,131,80,82,80,92,106,105,43,-518,-1163,344,4097,4009,1924,658,-167,-803,-1040,-933,-862,-833,-782,-733,-708,-687,-652,-607,-576,-564,-563,-564,-542,-489,-403,-299,-206,-129,-34,75,134,167,161,132,125,91,69,45,24,15,-18,-17,33,61,69,55,44,11,-56,-137,-171,-150,-91
2018-05-14,14:28:16.036,-61,14,43,-19,-86,-75,-90,-148,-226,-246,-252,-639,-1181,-75,2980,3710,1897,906,291,-257,-629,-646,-564,-517,-463,-406,-365,-320,-278,-262,-242,-204,-183,-188,-188,-201,-169,-101,-30,19,79,139,186,205,158,75,11,-38,-96,-163,-218,-266,-261,-221,-165,-129,-106,-87,-56,-42,-25,-13,-6,28,96,113,139,150,109,79,89,80,53,57,51,-22,-510,-959,380,3229,2724,943,216,-236,-679,-868,-744,-649,-594,-539,-484,-454,-419,-370,-319,-285,-269,-276,-250,-267,-231,-159,-130,-83,-24,3,-4,-23,-70,-135,-190,-225,-260,-260,-261,-267,-282,-293,-278,-237,-171,-104,-57,-46,-44,-7,13,52
2018-05-14,14:28:17.073,184,234,258,304,281,211,204,212,196,174,161,110,-209,-886,-268,2684,4192,2349,1034,213,-421,-847,-872,-801,-738,-679,-633,-568,-499,-472,-441,-407,-357,-319,-316,-314,-317,-318,-240,-138,-50,18,68,105,97,56,-2,-53,-57,-57,-67,-93,-132,-158,-170,-168,-214,-551,-342,1115,2391,1748,617,-366,-787,-683,-477,-429,-388,-326,-277,-235,-202,-172,-124,-95,-79,-69,-41,-65,-63,-33,-23,-11,-36,-89,-165,-270,-373,-407,-405,-387,-339,-288,-266,-232,-205,-179,-187,-179,-175,-143,-86,-16,32,86,168,231,227,256,293,242,190,210,229,220,209,199,129,-289,-632,667,3315,2984,1468,798,224,-339
2018-05-14,14:28:18.110,-661,-642,-578,-541,-509,-473,-414,-357,-322,-308,-290,-267,-244,-248,-262,-254,-198,-122,-52,30,89,111,113,78,0,-74,-144,-179,-206,-210,-169,-123,-108,-98,-88,-72,-89,-106,-109,-122,-144,-187,-244,-285,-256,-173,-112,-35,44,69,31,47,89,124,122,120,93,-280,-911,-130,2779,3808,2181,963,186,-418,-858,-954,-999,-1047,-1059,-1050,-1019,-955,-855,-766,-683,-643,-615,-580,-561,-559,-541,-470,-347,-213,-94,2,94,160,193,204,207,198,192,197,184,179,181,185,181,190,225,268,271,264,278,273,275,296,354,377,380,399,335,239,227,229,218,236,237,99,-606,-921,964,4122,3325,1342
2018-05-14,14:28:19.147,240,-402,-913,-951,-779,-681,-635,-587,-530,-469,-397,-364,-341,-317,-311,-315,-326,-357,-378,-351,-296,-237,-193,-141,-92,-85,-75,-82,-81,-74,-57,-52,-56,-39,-24,-28,-44,-47,-21,17,41,52,74,100,125,125,186,188,141,100,0,-97,-120,-77,-33,-18,-5,-8,-325,-1127,-581,2337,4047,2240,765,26,-514,-882,-860,-758,-692,-632,-558,-483,-413,-362,-338,-296,-256,-228,-172,-139,-97,-69,-29,30,61,63,91,132,143,97,39,0,-26,-43,-73,-113,-109,-91,-101,-107,-115,-128,-157,-148,-152,-150,-140,-111,-18,65,65,83,93,42,0,0,14,30,64,80,-95,-655,-309,1924,3416,1757
2018-05-14,14:28:20.185,682,91,-405,-837,-911,-882,-884,-842,-749,-663,-552,-457,-376,-316,-259,-235,-242,-238,-219,-185,-132,-76,6,69,144,195,198,174,99,-22,-124,-236,-339,-429,-481,-513,-496,-442,-415,-390,-345,-320,-339,-367,-414,-429,-336,-214,-118,-14,39,24,72,145,173,167,167,147,-192,-839,-154,2588,3966,2450,1025,201,-339,-535,-439,-388,-389,-355,-328,-308,-265,-243,-232,-215,-193,-222,-220,-178,-138,-90,-49,-11,-16,-82,-128,-142,-139,-123,-95,-85,-52,-31,-40,-89,-125,-119,-122,-128,-99,-61,-18,35,70,64,37,25,85,152,154,158,140,45,-19,-22,-65,-98,-88,-56,-185,-856,-722,1598,4083,2910
2018-05-14,14:28:21.222,1324,332,-300,-746,-744,-646,-590,-564,-536,-502,-450,-428,-430,-500,-673,-796,-870,-900,-862,-774,-633,-494,-357,-246,-164,-96,-29,-19,-43,-38,-22,-21,-28,-10,22,32,5,-7,28,78,106,92,100,108,-26,72,447,620,547,451,427,345,214,175,195,193,190,174,110,-273,-1047,-250,3178,4609,2416,902,103,-477,-939,-1061,-1048,-957,-861,-776,-632,-511,-426,-363,-337,-277,-227,-178,-112,-62,-44,5,37,63,108,119,98,51,5,-46,-87,-106,-121,-144,-147,-168,-215,-248,-281,-286,-257,-229,-199,-155,-102,-90,-50,13,66,85,128,145,81,43,64,87,105,105,99,-103,-782,-729,1233,3105
2018-05-14,14:28:22.259,1700,522,-202,-697,-1077,-1111,-991,-967,-945,-899,-844,-747,-645,-550,-477,-437,-388,-333,-303,-273,-235,-167,-113,-24,71,188,298,359,388,371,366,359,319,283,272,242,198,183,165,172,169,165,167,164,175,161,145,141,189,213,216,188,80,-95,-144,-114,-86,-43,-3,0,-370,-848,70,2564,2981,1450,525,-34,-504,-589,-455,-430,-434,-440,-473,-481,-449,-426,-434,-438,-414,-394,-372,-331,-294,-258,-218,-182,-110,-38,17,55,66,58,8,1,16,4,-20,-46,-50,-7,-46,-86,-124,-161,-213,-259,-296,-313,-336,-345,-292,-237,-241,-256,-319,-419,-425,-329,-234,-128,-44,-5,-292,-893,-222,2498
2018-05-14,14:28:23.296,3513,1758,709,127,-415,-596,-424,-307,-276,-212,-146,-124,-93,-67,-62,-48,-60,-88,-115,-129,-148,-139,-105,-47,7,61,130,179,204,165,128,74,41,9,-74,-171,-239,-249,-209,-146,-85,-43,19,43,57,68,70,60,59,153,209,216,232,198,132,129,136,120,105,104,10,-524,-998,358,3382,3538,1493,280,-332,-825,-930,-798,-706,-657,-563,-501,-460,-398,-356,-339,-318,-289,-262,-288,-314,-306,-285,-263,-266,-288,-324,-363,-359,-330,-293,-291,-268,-232,-255,-280,-308,-340,-328,-265,-165,-67,25,105,147,175,175,125,106,173,253,297,330,336,295,242,272,357,352,298,265,-25,-905,-537
2018-05-14,14:28:24.334,2596,4714,2945,1407,323,-407,-874,-913,-874,-880,-867,-863,-851,-813,-744,-661,-611,-563,-585,-602,-606,-557,-464,-363,-231,-107,32,142,198,207,147,64,18,12,-12,-35,-47,-82,-123,-264,-426,-294,-65,171,223,163,89,91,123,99,74,317,365,378,379,342,249,205,206,188,140,-230,-1125,-697,2483,4463,3222,1762,560,-260,-809,-971,-930,-883,-820,-764,-722,-691,-658,-627,-578,-568,-547,-493,-415,-340,-288,-232,-123,-23,75,145,195,201,84,-112,-334,-269,-36,-38,-86,-59,-110,-150,-173,-177,-182,-156,-150,-141,-114,-107,-79,-24,22,57,114,75,-11,-60,-57,-25,0,21,8,-441,-1186,101
2018-05-14,14:28:25.371,3717,3590,2004,1017,244,-394,-782,-850,-823,-779,-740,-707,-648,-581,-514,-475,-453,-429,-445,-455,-435,-409,-411,-372,-287,-146,35,147,243,263,189,90,-27,-131,-186,-188,-190,-180,-149,-112,-47,-15,-13,13,69,38,51,111,139,154,119,82,29,-51,-100,-84,-66,-40,-9,18,-302,-1204,-916,2181,4334,3415,1840,578,-285,-889,-1086,-1043,-958,-895,-811,-740,-681,-643,-608,-579,-583,-550,-529,-509,-476,-432,-310,-171,-57,25,83,107,124,93,44,1,-56,-123,-175,-194,-174,-169,-175,-151,-101,-78,-39,-16,-28,-33,22,115,192,211,251,223,141,77,92,118,118,93,72,-101,-767,-462,2762,4116
2018-05-14,14:28:26.408,2155,1204,405,-332,-853,-1029,-1002,-982,-964,-918,-860,-764,-646,-573,-502,-446,-397,-348,-335,-285,-217,-125,-17,91,162,224,274,222,153,65,-32,-79,-132,-182,-190,-184,-177,-175,-166,-155,-146,-124,-116,-119,-141,-126,-95,-57,45,107,99,82,112,127,101,94,88,-47,-786,-1134,1328,4267,3626,2050,805,-59,-720,-1015,-996,-941,-890,-802,-725,-660,-619,-608,-580,-551,-541,-543,-496,-440,-383,-287,-164,-39,74,179,236,237,197,101,33,-8,-27,-36,-48,-51,-71,-75,-59,-48,-19,-35,-33,-4,26,87,154,168,188,204,179,136,158,164,126,88,27,-107,-763,-1294,562,4290,4093,1882,639,7
2018-05-14,14:28:27.445,-563,-813,-794,-769,-718,-692,-656,-587,-532,-509,-496,-464,-418,-366,-341,-315,-285,-280,-294,-266,-225,-217,-196,-158,-142,-202,-255,-303,-384,-424,-413,-355,-272,-187,-112,-83,-59,-53,-52,-12,22,90,159,180,217,240,192,153,175,203,207,227,232,30,-759,-670,1953,4540,3224,1575,492,-232,-797,-912,-824,-758,-703,-649,-593,-537,-525,-562,-623,-657,-649,-630,-568,-473,-378,-290,-195,-86,-4,58,122,143,119,92,78,76,54,7,-43,-95,-143,-176,-196,-214,-218,-235,-287,-309,-261,-146,-12,91,172,209,180,163,183,197,200,195,175,6,-767,-998,1245,4692,4068,2011,621,-266,-951,-1168,-1096,-1076
2018-05-14,14:28:28.482,-1046,-991,-910,-858,-811,-768,-727,-694,-680,-673,-654,-607,-510,-359,-230,-114,-14,74,133,187,194,160,132,116,100,81,98,75,54,56,52,56,70,83,103,113,114,146,222,281,316,336,275,203,185,178,158,175,197,127,-318,-961,139,3398,3774,1705,569,-69,-599,-877,-807,-714,-671,-610,-546,-500,-468,-429,-394,-357,-305,-264,-207,-149,-96,-91,-89,-91,-92,-73,-51,-57,-114,-161,-230,-301,-332,-335,-319,-254,-219,-198,-225,-175,-111,-178,-101,73,113,78,89,148,142,161,164,155,101,99,107,48,-43,-107,-285,-1008,-1284,645,3733,3187,1336,256,-434,-961,-1102,-962,-817,-700,-615,-541
2018-05-14,14:28:29.520,-491,-442,-391,-343,-319,-301,-279,-245,-220,-190,-141,-82,-13,56,128,208,269,275,232,169,105,39,-17,-64,-90,-112,-123,-142,-117,-91,-46,-29,4,32,36,21,70,97,97,144,127,65,55,90,108,100,70,19,-387,-1134,-147,3407,4436,2017,486,-234,-777,-957,-833,-768,-747,-696,-625,-582,-600,-590,-532,-523,-513,-498,-479,-470,-399,-320,-229,-121,-43,6,87,131,171,160,125,102,87,41,-6,-45,-46,-33,-43,-62,-74,-82,-102,-119,-121,-147,-155,-152,-95,-35,-18,-5,-19,-68,-45,26,74,88,75,61,-336,-1002,-60,3159,4352,2398,955,124,-537,-852,-791,-694,-656,-623,-557,-505
2018-05-14,14:28:30.606,-571,-512,-450,-418,-417,-361,-313,-283,-264,-229,-160,-71,12,96,151,184,169,117,40,-52,-125,-155,-198,-226,-229,-215,-201,-172,-133,-93,-67,-50,-39,-41,-37,0,109,164,207,252,222,140,106,93,42,-1,24,-1,-417,-1040,-190,2687,3224,1404,492,-17,-468,-737,-730,-622,-549,-515,-455,-413,-359,-285,-242,-251,-245,-237,-220,-183,-152,-128,-109,-89,-83,-85,-77,-44,-73,-137,-191,-228,-265,-325,-381,-380,-339,-260,-195,-145,-119,-99,-63,-9,24,34,39,41,85,181,209,228,254,187,147,162,189,189,168,154,69,-471,-898,606,3782,3815,1933,696,-103,-712,-947,-856,-783,-735,-675,-623
2018-05-14,14:28:42.995,1759,568,-235,-818,-1267,-1335,-1292,-1272,-1222,-1145,-933,-651,-351,-124,-26,-8,2,0,-40,-63,-108,-167,-180,-106,6,67,-24,-19,-58,-66,-11,13,1,9,24,36,42,40,29,12,-19,-8,-7,-38,-97,-92,12,124,184,267,285,193,161,135,66,70,68,119,47,-451,-79,2479,4145,2257,835,109,-578,-1142,-1289,-1168,-905,-781,-737,-561,-427,-287,-208,-159,-125,-153,-151,-114,-93,-25,14,127,227,235,260,270,246,146,48,-55,-153,-254,-361,-448,-571,-654,-691,-645,-600,-539,-438,-269,-106,48,153,274,317,295,294,215,69,-46,-109,-256,-393,-336,-197,-143,-530,-679,960,3497,2812,1356
2018-05-14,14:28:44.882,579,78,-418,-583,-493,-461,-441,-439,-401,-379,-307,-262,-223,-176,-92,-35,-4,19,-8,-29,14,74,124,226,304,295,221,129,37,-64,-155,-315,-547,-634,-667,-667,-706,-828,-756,-462,-180,58,155,138,151,243,286,272,256,214,137,110,149,112,64,23,-61,-615,-1063,336,3285,3299,1665,473,-398,-1076,-1374,-1298,-1241,-1172,-1056,-837,-532,-299,-193,-148,-141,-181,-221,-275,-246,-213,-182,-201,-198,-70,80,186,291,298,210,99,26,-2,-45,-87,-100,-112,-139,-126,-152,-189,-203,-219,-205,-203,-200,-130,-12,80,198,265,165,39,54,86,96,149,234,236,-176,-518,1023,4131,3576,1327,203,-549
2018-05-14,14:28:45.919,-1212,-1416,-1334,-1174,-978,-808,-612,-380,-260,-232,-222,-275,-318,-282,-88,-9,26,149,219,240,264,272,306,296,264,214,125,25,-79,-219,-224,-253,-319,-417,-509,-601,-641,-633,-554,-351,-125,21,151,217,211,208,152,31,-48,-111,-162,-277,-321,-299,-361,-804,-395,1956,3618,2324,1086,371,-143,-560,-637,-536,-469,-435,-358,-290,-237,-235,-225,-171,-142,-113,-34,16,-15,-33,-55,42,158,245,354,398,325,202,71,-11,-92,-214,-348,-471,-544,-644,-729,-718,-962,-1410,-903,1924,4030,1947,266,-306,-639,-618,-500,-450,-275,-141,-181,-190,-186,-222,-262,-285,-322,-368,-451,-472,-471,-424,-387,-466,-639,-622
2018-05-14,14:28:46.957,-442,-275,-249,-289,-207,-83,40,149,194,213,218,202,212,189,200,204,154,112,103,123,214,256,262,251,238,237,262,301,307,301,294,228,160,167,180,140,97,72,-208,-705,8,2742,3735,1775,610,-10,-521,-867,-830,-666,-517,-409,-354,-293,-219,-184,-182,-199,-238,-316,-424,-515,-564,-533,-393,-256,-148,-4,-43,109,343,382,219,40,-42,-131,-178,-172,-146,-110,-100,-103,-131,-150,-138,-191,-200,-161,-93,-68,-83,-210,-271,-205,-178,-266,-328,-259,-137,-37,-20,24,-318,-845,299,3276,3364,1296,309,-257,-771,-960,-803,-652,-540,-435,-361,-267,-198,-171,-172,-163,-139,-103,-75,-86,-83,-19
2018-05-14,14:28:47.994,61,139,196,229,278,294,284,200,103,5,-87,-141,-152,-189,-291,-312,-240,-134,-22,68,164,195,195,148,22,-79,-163,-192,-186,-191,-199,-122,-41,29,50,91,66,-256,-948,-252,2858,4465,2690,1216,240,-422,-861,-923,-787,-717,-677,-618,-608,-600,-529,-445,-434,-619,-817,-856,-751,-623,-464,-302,-85,127,293,404,438,413,311,187,55,-57,-157,-251,-320,-327,-277,-225,-177,-112,-45,-12,0,9,9,59,150,177,180,208,154,77,56,44,30,24,35,-2,-331,-998,-178,3089,4039,1784,525,-117,-589,-840,-679,-523,-467,-399,-337,-318,-298,-314,-376,-457,-527,-588,-624,-618,-528,-398,-195,-75
2018-05-14,14:28:49.031,-71,-91,65,94,109,162,187,61,-70,-87,-70,-98,-112,-154,-181,-212,-225,-199,-205,-199,-149,-97,-140,-163,-199,-163,-176,-286,-352,-290,-151,-33,59,151,-59,-629,-61,2410,3472,1731,544,-91,-579,-918,-825,-661,-533,-475,-447,-382,-310,-231,-173,-146,-171,-155,-148,-130,-125,-77,6,59,96,140,196,217,203,168,75,-94,-276,-357,-396,-385,-285,-202,-135,-79,-52,7,2,-22,-53,-127,-187,-195,-215,-241,-227,-217,-212,-175,-132,-32,38,84,62,-386,-993,63,3175,3924,2253,973,100,-583,-813,-772,-750,-793,-831,-866,-853,-930,-1013,-979,-867,-796,-722,-572,-437,-349,-271,-149,19,185,294,356
2018-05-14,14:28:50.068,354,272,188,60,-89,-174,-233,-256,-208,-114,-13,56,104,142,163,218,252,274,265,233,276,303,332,336,298,203,207,207,150,127,123,10,-579,-799,927,3588,2849,1030,85,-451,-841,-757,-484,-363,-327,-297,-271,-317,-386,-464,-444,-470,-491,-535,-552,-540,-474,-305,-140,-55,-4,52,140,200,216,139,68,63,6,-112,-187,-143,-184,-223,-241,-237,-218,-67,33,-58,-227,-278,-186,-53,33,81,101,2,-89,-30,42,101,146,125,-168,-1036,-765,2310,4805,2748,1010,90,-542,-995,-960,-798,-717,-684,-623,-554,-501,-470,-454,-439,-420,-399,-361,-303,-258,-195,-97,11,115,172,213,252,266,201
2018-05-14,14:28:51.106,1,-157,-218,-186,-149,-87,-10,91,142,131,138,173,165,115,20,-77,-161,-240,-297,-323,-287,-129,-48,25,107,149,143,132,128,-190,-906,-152,2874,3853,2182,1082,305,-279,-681,-743,-742,-711,-677,-651,-661,-738,-846,-846,-736,-673,-584,-477,-319,-130,59,201,251,315,374,408,345,230,71,-92,-230,-308,-347,-351,-318,-229,-184,-156,-139,-121,-71,-30,5,19,38,60,64,63,57,52,57,18,20,32,59,72,114,143,103,20,-2,15,20,68,110,124,191,225,206,198,205,145,61,-7,-68,-150,-241,-276,-306,-381,-411,-364,-327,-169,-98,-71,59,139,71,34,62,115,118,158
2018-05-14,14:28:52.143,240,228,173,145,98,30,-32,-91,-456,-1172,-537,2567,4336,2502,874,-103,-715,-1206,-1323,-1209,-1062,-901,-714,-624,-592,-519,-464,-405,-398,-433,-414,-428,-454,-410,-358,-273,-88,94,241,342,422,476,478,435,329,188,59,-45,-174,-287,-331,-338,-369,-352,-270,-189,-104,-17,-25,-79,-188,-253,-161,-3,106,154,227,293,302,319,341,237,-360,-701,1179,4538,3487,1374,309,-480,-1114,-1245,-1062,-879,-751,-634,-533,-445,-371,-334,-304,-293,-257,-253,-283,-130,-5,55,115,203,224,176,118,36,32,45,-75,-265,-513,-664,-655,-612,-514,-466,-427,-308,-143,-7,67,83,105,153,246,248,197,172,87,-16
2018-05-14,14:28:53.180,-40,-43,-41,15,63,13,-517,-764,943,3677,3151,1593,672,38,-530,-777,-696,-633,-592,-551,-475,-392,-353,-298,-227,-167,-124,-88,-166,-244,-262,-229,-95,61,200,248,243,245,199,113,-2,-85,-187,-326,-349,-405,-683,-882,-842,-518,-264,-168,-130,-106,-81,87,169,177,167,154,162,248,307,266,197,185,120,-315,-958,-113,2837,3677,1884,817,46,-706,-1310,-1371,-1163,-1020,-1005,-973,-856,-656,-503,-393,-272,-191,-151,-85,-57,-42,-22,20,44,47,74,151,200,207,210,159,67,9,-31,-76,-106,-113,-130,-159,-162,-146,-150,-135,-145,-144,-19,54,65,126,174,99,57,100,64,-8,-68,-133
2018-05-14,14:28:54.217,-456,-1031,131,3732,4516,2168,826,104,-500,-848,-836,-837,-908,-998,-1077,-1026,-983,-830,-449,-226,-233,-215,-213,-162,-201,-167,9,77,136,261,402,443,433,372,294,180,49,-73,-185,-283,-379,-313,-254,-361,-553,-608,-512,-426,-312,-204,-126,5,173,236,205,196,212,210,195,177,39,-594,-981,640,3635,3325,1435,499,-43,-582,-747,-658,-621,-542,-472,-419,-361,-344,-312,-288,-259,-237,-221,-168,-83,5,83,134,201,208,159,149,141,83,-13,-67,-122,-147,-131,-143,-152,-125,-121,-111,-265,-991,-699,2074,3609,1248,-402,-904,-1081,-861,-684,-575,-519,-488,-438,-284,-120,-126,-180,-200,-174,-148,-143,-107
2018-05-14,14:28:55.254,-73,-50,-78,-90,-105,-108,-68,-14,-62,-180,-336,-370,-306,-252,-254,-214,-202,-149,-78,-3,82,199,250,240,222,201,111,29,-33,-73,-30,3,8,54,155,193,177,192,245,223,188,83,-394,-796,578,3519,3279,1442,520,-97,-589,-814,-713,-570,-487,-426,-373,-349,-426,-516,-564,-523,-429,-309,-179,-32,97,165,190,228,298,347,297,230,119,-38,-173,-425,-658,-707,-623,-625,-572,-423,-519,-529,-323,-45,148,88,24,25,89,167,188,232,277,244,154,76,-8,-82,-191,-131,-274,-1245,-1099,1949,4308,2630,999,15,-644,-1071,-1020,-826,-688,-572,-476,-427,-409,-422,-414,-393,-409,-366,-300,-261
2018-05-14,14:28:56.292,-197,-115,-11,89,148,190,230,255,253,226,145,50,-38,-118,-165,-201,-218,-219,-190,-140,-83,-15,-2,-10,-35,-75,-20,-41,-20,71,99,88,143,200,169,159,164,-16,-619,-318,2067,3655,1889,515,-152,-662,-1045,-1085,-975,-740,-740,-590,-335,-235,-144,-136,-167,-162,-150,-121,-77,-27,28,121,179,198,177,162,92,3,-46,-129,-254,-424,-529,-575,-533,-527,-496,-438,-365,-244,-105,4,81,117,153,170,134,125,82,-39,-106,-35,23,34,97,154,54,-553,-467,1738,3823,2362,1084,378,-136,-597,-697,-617,-568,-516,-461,-399,-354,-320,-273,-192,-134,-157,-281,-312,-266,-172,-4,123,196,303
2018-05-14,14:28:57.329,355,366,376,296,159,18,-100,-243,-392,-565,-728,-806,-766,-728,-684,-390,-145,1,63,133,250,313,334,382,342,229,210,201,143,150,152,52,-590,-1065,498,3725,3646,1812,513,-371,-1025,-1279,-1148,-1036,-961,-855,-730,-579,-449,-371,-273,-219,-193,-150,-111,-124,-117,-22,49,145,255,329,411,439,332,175,63,11,-93,-109,-86,-133,-168,-172,-176,-190,-177,-133,-103,-93,-49,31,138,206,271,295,230,140,11,-60,-37,-24,38,-142,-750,-102,2868,4486,2334,856,166,-413,-840,-851,-787,-804,-899,-973,-997,-761,-503,-439,-474,-587,-343,-114,-205,-84,100,151,183,213,234,296,327,251,129,-11
2018-05-14,14:28:58.366,-137,-201,-276,-377,-401,-377,-388,-507,-662,-642,-531,-515,-465,-338,-91,131,231,268,243,158,90,74,35,-5,-21,-25,-266,-1068,-746,1805,3607,2131,900,249,-231,-625,-671,-597,-538,-502,-456,-375,-308,-263,-277,-311,-296,-263,-207,-137,-149,-68,53,145,146,76,73,105,117,93,80,45,-10,-70,-119,-160,-237,-267,-290,-330,-401,-566,-746,-551,-242,-183,-118,-11,32,50,8,-37,17,-131,-158,-130,294,430,-299,-789,896,3879,3285,1492,460,-222,-782,-1116,-1111,-961,-959,-943,-871,-815,-718,-654,-612,-551,-493,-365,-232,-108,36,137,202,284,336,330,275,198,121,9,-110,-166,-195,-228,-241,-244
2018-05-14,14:28:59.403,-261,-242,-240,-164,-115,-113,-49,-40,-54,0,78,123,161,178,126,76,90,136,189,191,163,-52,-888,-910,1863,4878,3027,1130,293,-245,-651,-610,-500,-531,-525,-487,-473,-499,-505,-542,-598,-683,-696,-580,-483,-326,-206,-138,-121,-31,172,317,462,428,286,171,64,-13,-90,-166,-212,-173,-121,-132,-163,-158,-192,-151,-129,-211,-281,-259,-168,-80,6,0,-65,8,133,225,287,294,208,-265,-549,947,3432,2675,976,299,-132,-554,-656,-562,-498,-424,-364,-327,-306,-261,-252,-245,-188,-155,-152,-135,-93,-50,-6,36,75,118,209,257,231,148,70,-23,-132,-318,-459,-452,-449,-403,-284,-199,-182,-148
2018-05-14,14:29:00.441,-70,-37,-7,-7,57,94,21,-22,28,-84,-188,-174,-209,-225,-183,-145,-279,-890,-733,1689,4003,2661,1217,335,-209,-630,-716,-655,-638,-635,-582,-566,-587,-576,-493,-443,-438,-520,-643,-681,-609,-460,-296,-173,-56,78,231,357,410,339,194,71,-45,-159,-256,-321,-385,-363,-310,-291,-259,-163,-71,-32,-23,-7,62,144,147,150,129,72,36,54,56,46,-24,-28,-151,-897,-805,1938,4640,2999,1241,165,-555,-1034,-1070,-867,-694,-563,-452,-356,-306,-234,-208,-234,-236,-273,-276,-282,-267,-287,-281,-348,-327,-212,-61,61,102,48,-58,-201,-85,-24,-30,-100,-129,-141,-163,-160,-125,-85,-87,-94,-106,-120
2018-05-14,14:29:01.478,-141,-38,80,92,-68,-321,-377,-282,-202,-159,-163,-165,-371,-1041,-630,2048,4078,2375,855,225,-281,-747,-749,-654,-664,-641,-566,-487,-394,-308,-239,-177,-147,-145,-121,-102,-65,-42,19,100,171,239,274,274,233,146,64,22,-50,-82,-69,-77,-177,-308,-379,-355,-287,-183,-83,-50,-32,-2,104,213,264,276,230,128,23,-22,-86,-190,-225,-281,-332,-803,-957,759,3304,2482,1018,373,-47,-539,-693,-600,-528,-512,-446,-386,-327,-296,-276,-262,-280,-326,-344,-335,-340,-383,-416,-376,-266,-178,-97,-12,66,46,-48,-85,-67,-68,-66,-67,-108,-137,-141,-143,-173,-169,-153,-115,-51,6,103,205,209,225
2018-05-14,14:29:02.515,229,191,107,101,118,120,110,100,7,-598,-1059,608,3938,3704,1746,653,-32,-548,-783,-677,-571,-563,-637,-658,-601,-509,-457,-357,-249,-129,-82,-43,-23,-3,31,56,55,28,-23,-83,-140,-198,-246,-295,-305,-331,-305,-345,-399,-294,-176,-104,-36,-35,-78,-87,-51,-10,4,21,91,198,230,252,186,149,92,-14,-145,-210,-216,-453,-1247,-709,2552,4868,2940,1150,142,-499,-827,-752,-678,-681,-701,-676,-621,-563,-506,-480,-454,-370,-318,-314,-316,-306,-264,-200,-140,-56,39,94,146,179,136,67,-19,-99,-170,-188,-184,-163,-122,-101,-74,-20,36,42,-4,-63,-48,46,172,271,376,427,372,321
2018-05-14,14:29:03.552,274,199,123,47,-61,-279,-1098,-1288,1327,4823,3715,1564,352,-424,-934,-1003,-926,-877,-857,-734,-503,-460,-472,-427,-403,-381,-347,-330,-318,-283,-282,-305,-193,-103,-82,-39,-29,-114,-210,-290,-322,-314,-310,-308,-263,-210,-131,-7,69,116,103,90,96,78,27,75,88,60,101,107,48,59,97,110,116,111,95,-156,-796,-380,2131,3500,1949,939,170,-433,-870,-819,-650,-541,-450,-380,-362,-325,-275,-293,-332,-306,-246,-158,-60,17,69,138,202,223,213,191,143,6,-180,-348,-468,-573,-672,-645,-547,-479,-424,-365,-282,-212,-160,-141,-148,-148,-95,3,55,66,106,101,44,9,8,-13,-56,-110
2018-05-14,14:29:04.589,-49,-305,-1214,-924,1879,3440,1819,552,-225,-718,-928,-781,-576,-451,-364,-305,-299,-301,-294,-318,-320,-329,-306,-265,-208,-150,-89,-43,38,113,225,291,293,243,145,38,-69,-123,-158,-169,-179,-165,-159,-152,-151,-97,-39,1,-5,-3,39,133,155,144,212,205,109,116,176,245,261,243,212,-138,-840,-92,3045,4158,1938,510,-262,-908,-1290,-1218,-1042,-891,-740,-616,-522,-461,-394,-373,-375,-344,-390,-421,-190,-46,26,90,78,64,111,122,84,-9,-55,-222,-391,-517,-530,-473,-412,-352,-320,-249,-111,11,97,177,192,152,138,127,91,43,23,36,42,28,33,80,141,186,172,164,154,131
2018-05-14,14:29:05.627,115,115,127,107,83,72,68,74,72,78,116,148,174,173,150,101,0,-125,-127,-75,25,116,145,173,164,140,144,135,114,76,79,56,21,-64,-205,-458,-531,-351,-255,-165,-52,-366,-719,545,3256,3054,1380,610,16,-507,-704,-683,-549,-469,-486,-506,-508,-519,-577,-606,-592,-598,-582,-614,-672,-642,-560,-448,-387,-323,-146,106,321,518,547,443,282,166,23,-147,-283,-415,-514,-527,-466,-375,-225,-142,-116,-89,-77,-11,109,195,201,248,260,164,103,112,110,95,61,32,-229,-955,-265,2965,4293,2293,948,25,-654,-1023,-963,-794,-680,-582,-463,-353,-255,-194,-145,-136,-137,-155,-218,-271
2018-05-14,14:29:06.664,-305,-310,-350,-353,-298,-205,-66,51,123,94,25,-25,-93,-100,-81,-108,-127,-149,-157,-149,-101,-45,-29,-27,-3,53,106,117,239,204,-29,-218,-266,-288,-263,-203,-130,-273,-1018,-972,1612,4534,3258,1345,469,-121,-632,-692,-636,-639,-661,-635,-581,-517,-441,-384,-342,-303,-286,-245,-214,-171,-114,-38,41,105,149,210,262,239,186,105,-2,-75,-111,-173,-186,-180,-140,-111,-129,-165,-203,-206,-158,-116,50,190,212,227,238,196,154,147,125,68,29,-16,-234,-895,-674,1684,3241,1556,406,-140,-527,-810,-763,-648,-609,-542,-497,-421,-377,-343,-257,-208,-197,-207,-171,-133,-129,-108,-52,-9,51,64
2018-05-14,14:29:07.701,48,-22,-144,-281,-311,-357,-365,-376,-375,-335,-265,-190,-92,-24,-11,-14,-27,-52,-16,57,37,29,58,52,37,59,102,110,107,140,-11,-732,-695,1683,4203,2937,1377,394,-276,-774,-869,-766,-676,-624,-569,-513,-436,-346,-313,-313,-405,-458,-472,-418,-280,-118,36,157,271,354,398,400,314,162,-17,-188,-273,-328,-405,-511,-644,-652,-606,-523,-412,-354,-315,-240,-136,30,88,125,173,156,103,64,76,64,74,88,15,-592,-945,848,4109,3665,1701,408,-455,-1072,-1275,-1155,-991,-860,-774,-627,-422,-291,-203,-174,-154,-134,-93,-87,-74,-73,-49,4,94,165,222,233,224,168,85,0,-57,-109
2018-05-14,14:29:08.738,-142,-177,-223,-221,-208,-188,-137,-90,-84,-70,11,129,204,253,284,241,184,123,46,13,14,30,-40,-606,-405,1872,3707,1993,705,101,-326,-677,-707,-645,-674,-736,-719,-672,-555,-464,-428,-413,-346,-255,-176,-142,-127,-100,7,94,159,284,330,291,239,154,54,-69,-204,-279,-280,-296,-365,-447,-518,-541,-493,-442,-417,-361,-183,38,141,207,262,226,168,152,177,144,82,3,-357,-1003,-304,2485,3551,1879,709,36,-440,-694,-659,-589,-523,-478,-441,-412,-382,-364,-341,-325,-292,-242,-179,-128,-79,12,95,152,179,202,215,187,120,62,26,16,-22,-79,-92,-117,-161,-225,-291,-299,-323,-342
2018-05-14,14:29:09.776,-307,-291,-259,-185,-158,-117,-31,28,-1,26,31,50,62,12,-106,-875,-793,1707,4426,3200,1474,393,-304,-824,-886,-833,-819,-707,-660,-697,-785,-814,-736,-681,-647,-622,-546,-437,-310,-122,34,133,196,255,258,235,148,11,-69,-105,-191,-337,-479,-923,-561,93,244,418,282,94,21,32,60,149,250,233,256,242,155,75,67,72,81,82,100,-254,-899,153,3387,3766,1580,488,-46,-492,-701,-579,-463,-438,-389,-388,-593,-652,-512,-503,-466,-272,-197,-116,-212,-681,-393,266,392,247,177,204,194,126,51,-6,-76,-204,-304,-373,-367,-368,-376,-384,-377,-355,-377,-386,-396,-337,-229,-132,-76,-67
2018-05-14,14:29:10.813,-84,-118,-48,68,130,125,113,-26,-694,-758,1329,3655,2366,723,-83,-553,-863,-841,-663,-508,-402,-346,-315,-302,-296,-281,-261,-235,-223,-194,-181,-132,-66,16,93,200,292,340,357,355,269,153,76,-4,-92,-217,-282,-284,-223,-130,-52,11,55,88,64,47,21,61,16,-64,-81,-145,-251,-304,-287,-242,-171,-85,-90,-602,-1014,648,4035,3832,1946,748,-58,-711,-882,-811,-776,-740,-684,-630,-592,-562,-568,-601,-607,-608,-595,-593,-610,-577,-488,-343,-217,-79,86,260,353,345,255,166,75,14,-67,-132,-173,-178,-129,-69,-35,-5,20,43,64,86,143,242,270,291,272,196,158,168,162,107
2018-05-14,14:29:11.850,103,101,-253,-772,113,2808,3135,1506,648,129,-339,-663,-644,-564,-467,-363,-261,-188,-123,-105,-114,-110,-109,-139,-176,-237,-231,-223,-191,-199,-216,-181,-117,-53,-40,-94,-178,-204,-205,-227,-246,-269,-230,-186,-216,-206,-169,-104,-81,-68,-66,-42,-27,-70,-77,-112,-169,-223,-277,-338,-379,-378,-405,-739,-1243,-332,2275,2985,1540,566,21,-380,-493,-425,-426,-410,-391,-357,-302,-281,-226,-173,-148,-91,-48,-31,-29,19,85,134,184,228,286,321,311,284,213,128,49,-27,-81,-82,-75,-68,-58,-109,-146,-125,-90,-89,-60,-1,91,190,233,256,246,191,131,100,25,-56,-109,-175,-421,-1141,-878,1595
2018-05-14,14:29:12.887,3467,1953,603,-114,-546,-751,-654,-556,-499,-487,-457,-407,-361,-339,-329,-297,-284,-264,-250,-262,-272,-281,-275,-223,-197,-208,-223,-205,-220,-212,-237,-268,-285,-263,-177,-78,-11,-21,-16,11,23,-24,-114,-130,-103,-57,75,184,215,244,246,190,184,198,194,167,150,99,-389,-984,270,3491,3764,1958,732,-72,-663,-865,-735,-650,-577,-502,-489,-582,-631,-587,-513,-428,-316,-234,-142,-82,-18,54,123,135,132,113,42,-40,-129,-242,-380,-472,-505,-503,-447,-370,-299,-240,-186,-105,-58,-39,24,20,0,94,221,263,275,293,215,130,107,69,12,-46,-88,-183,-883,-1263,512,3448,2726,1057,43,-560
2018-05-14,14:29:13.924,-1013,-1039,-815,-649,-496,-362,-294,-274,-240,-229,-265,-289,-312,-334,-303,-254,-199,-107,21,97,158,204,215,206,157,83,-10,-75,-103,-119,-137,-146,-135,-120,-76,-9,72,105,127,138,113,24,-34,-18,40,56,31,45,110,155,176,171,148,-112,-781,-156,2868,3950,1861,634,-93,-733,-1103,-1090,-1010,-922,-803,-632,-544,-481,-418,-377,-338,-375,-310,-294,-363,-257,-83,13,103,141,171,202,166,97,-18,-154,-207,-176,-209,-335,-448,-471,-443,-361,-280,-226,-162,-130,-71,7,152,325,370,374,342,241,157,99,47,7,10,-9,-164,-797,-619,1866,4044,2553,1201,430,-196,-686,-768,-682,-597,-545
2018-05-14,14:29:14.962,-468,-426,-403,-358,-319,-284,-263,-205,-165,-115,-38,11,13,-33,-36,51,123,117,85,46,-30,-100,-132,-155,-162,-128,-115,-99,-113,-145,-191,-234,-231,-243,-355,-317,-155,-69,-2,69,58,13,42,66,63,60,82,4,-554,-573,1370,3515,2199,1052,456,-110,-588,-710,-621,-579,-593,-648,-670,-641,-592,-532,-468,-410,-381,-352,-283,-159,-19,144,312,399,408,372,332,251,99,-40,-120,-160,-209,-243,-270,-240,-185,-161,-161,-130,-126,-138,-128,-78,-10,64,135,155,163,110,28,47,68,115,147,147,39,-497,-284,1684,2901,1514,537,34,-324,-627,-586,-478,-431,-385,-357,-299,-238,-229,-240,-283
2018-05-14,14:29:15.999,-319,-392,-426,-389,-349,-287,-193,-175,-126,22,36,169,267,199,120,24,-50,-122,-123,-97,-122,-159,-186,-221,-279,-325,-353,-347,-278,-184,-147,-183,-228,-282,-348,-306,-202,-179,-152,-26,41,-295,-813,230,3199,3616,1509,449,-99,-611,-889,-773,-649,-611,-537,-426,-346,-358,-350,-283,-253,-208,-186,-199,-183,-152,-86,5,144,233,301,338,333,286,186,79,-21,-85,-131,-175,-245,-290,-291,-249,-164,-65,28,81,91,94,149,171,140,81,-38,-198,-318,-339,-313,-252,-164,-153,-641,-1209,355,4042,4084,2005,754,-26,-673,-891,-835,-774,-742,-702,-618,-533,-497,-508,-539,-550,-558,-528,-463,-511,-587,-570
2018-05-14,14:29:17.036,-453,-296,-130,0,112,192,242,244,190,129,41,-8,-24,-52,-86,-136,-167,-159,-124,-58,-7,26,105,208,242,284,295,219,187,168,147,117,104,71,-286,-968,-162,2909,3917,2055,876,179,-308,-663,-611,-572,-657,-656,-548,-527,-486,-354,-251,-188,-140,-146,-136,-73,-29,-14,-28,-18,-44,-113,-163,-198,-217,-240,-258,-295,-333,-357,-380,-309,-224,-242,-236,-142,-122,-60,-10,9,113,156,144,139,73,-8,-87,-73,-29,-17,-56,-192,-757,-1364,-359,2545,3007,1281,223,-304,-641,-678,-502,-401,-368,-344,-325,-327,-357,-365,-356,-311,-264,-216,-140,-68,-5,45,84,146,202,229,236,210,166,64
2018-05-14,14:29:18.073,10,-55,-116,-161,-173,-146,-149,-117,-64,-57,-31,-9,-12,-50,-72,-27,-12,33,76,74,83,141,180,194,188,139,-95,-796,-347,2580,4100,1942,441,-338,-888,-1197,-1095,-909,-781,-675,-600,-522,-510,-446,-439,-387,-363,-325,-301,-296,-260,-200,-139,-57,10,56,65,45,52,90,-36,-214,-372,-414,-387,-358,-331,-287,-218,-112,-30,61,84,91,122,242,300,251,235,170,95,93,142,151,142,127,83,-354,-996,220,3687,4293,2176,860,27,-607,-935,-832,-718,-673,-608,-532,-487,-440,-371,-324,-275,-206,-200,-316,-412,-382,-321,-199,-26,134,220,268,240,202,142,40,-33,-121,-197,-274,-326,-333
2018-05-14,14:29:19.111,-359,-470,-482,-395,-295,-214,-137,-44,64,122,152,197,152,80,103,139,169,140,118,-24,-614,-626,1297,3511,2342,1031,296,-188,-717,-979,-916,-837,-788,-721,-666,-603,-550,-454,-330,-206,-49,50,83,140,179,194,105,-24,-20,-12,-10,15,-8,-54,-89,-124,-153,-159,-163,-163,-213,-220,-212,-204,-151,-109,-98,-50,53,155,194,253,285,234,212,165,45,-29,-21,-68,-448,-805,261,2536,2314,1017,323,-76,-406,-499,-411,-359,-342,-412,-427,-436,-467,-527,-502,-456,-419,-372,-294,-248,-180,-83,-26,12,81,146,212,256,259,205,107,4,-102,-177,-250,-305,-314,-287,-247,-273,-366,-456,-523,-501
2018-05-14,14:29:20.148,-426,-275,-196,-131,-84,-84,-68,13,152,276,305,253,28,-620,-424,1815,3573,1951,618,-17,-408,-680,-623,-479,-390,-341,-303,-243,-205,-213,-216,-211,-218,-223,-209,-166,-115,-20,79,176,277,339,369,361,315,113,-167,-371,-436,-436,-386,-302,-187,-125,-52,16,27,40,48,59,16,-23,7,-76,-168,-179,-228,-261,-172,-78,-14,37,57,5,-573,-1193,273,4127,4311,2289,858,-21,-650,-921,-877,-806,-778,-725,-687,-686,-715,-620,-497,-599,-777,-861,-861,-814,-706,-524,-340,-203,-78,58,223,354,395,350,246,135,64,-7,-101,-150,-130,-91,-48,5,29,49,70,71,103,206,262,296,309,265
2018-05-14,14:29:21.185,174,156,171,176,166,170,76,-463,-799,776,3479,2929,1289,485,0,-523,-768,-723,-675,-620,-549,-479,-381,-314,-254,-224,-184,-168,-110,-98,-103,-79,-100,-74,-82,-74,-71,-123,-217,-202,-144,-155,-211,-286,-331,-331,-294,-262,-212,-161,-124,-110,-72,-92,-117,-87,-13,-11,54,100,57,5,-17,-77,-126,-167,-191,-451,-1059,-550,1953,3212,1598,561,21,-346,-601,-541,-495,-530,-525,-455,-409,-333,-292,-285,-247,-217,-152,-104,-62,-34,11,58,126,195,253,304,289,233,121,-1,-133,-173,-198,-210,-226,-196,-165,-151,-165,-228,-254,-227,-180,-104,31,171,226,240,249,203,120,137,119,57,-26,-111
2018-05-14,14:29:22.222,-295,-977,-904,1549,3813,2134,631,5,-381,-746,-789,-657,-573,-525,-501,-482,-439,-394,-375,-364,-335,-285,-253,-245,-221,-168,-123,-134,-98,38,162,138,-86,-244,-282,-330,-351,-325,-273,-207,-128,-38,52,115,127,128,145,139,123,171,214,251,312,322,245,221,226,185,155,127,99,-137,-844,-338,2563,4192,2483,1105,255,-324,-736,-722,-602,-550,-506,-441,-363,-343,-337,-368,-425,-383,-323,-238,-145,-44,53,136,194,214,239,277,252,163,70,-89,-244,-339,-454,-539,-600,-646,-620,-515,-395,-269,-175,-127,-66,-29,-23,79,166,193,235,183,132,118,108,104,71,-42,-593,-968,520,3320,2860,1174
2018-05-14,14:29:23.260,136,-478,-956,-1056,-890,-771,-726,-668,-585,-471,-339,-207,-155,-141,-137,-130,-118,-133,-124,-71,8,73,136,190,203,167,103,21,-67,-124,-178,-235,-289,-307,-319,-286,-250,-212,-145,-106,-79,-56,38,179,215,182,170,105,-41,-116,-87,-20,3,20,-121,-740,-291,2524,4076,2085,792,139,-413,-844,-899,-879,-905,-895,-876,-834,-766,-672,-576,-483,-412,-387,-340,-304,-333,-282,-136,-38,31,120,233,279,182,91,38,-31,-80,-152,-209,-167,-203,-332,-471,-503,-397,-291,-239,-202,-114,100,241,300,348,316,226,179,147,97,36,-10,-40,-507,-1010,604,4095,3993,1758,567,-123,-684,-916,-803,-720,-653
2018-05-14,14:29:24.297,-578,-529,-494,-468,-434,-406,-387,-322,-267,-237,-188,-132,-47,79,145,122,51,40,47,-4,-20,-12,26,-38,-115,-120,-115,-117,-116,-146,-121,-141,-179,-214,-295,-299,-219,-152,-60,-25,-52,-22,11,23,37,74,20,-323,-862,-103,2676,3308,1616,711,126,-335,-713,-710,-613,-552,-506,-490,-498,-560,-609,-578,-554,-504,-440,-387,-332,-254,-122,85,262,395,428,411,309,175,30,-72,-106,-144,-212,-236,-245,-241,-207,-156,-128,-90,-66,-67,-69,-8,88,134,142,130,59,14,25,70,101,130,134,-53,-707,-293,2338,3513,1634,485,-67,-450,-693,-595,-490,-448,-404,-336,-279,-247,-253,-281,-348,-405
2018-05-14,14:29:25.334,-522,-647,-627,-531,-434,-300,-145,-45,-31,59,207,148,181,184,42,-72,-160,-213,-211,-173,-154,-140,-120,-118,-123,-143,-160,-125,18,96,145,117,-33,-188,-199,-176,-155,-192,-236,-571,-1328,-397,3170,4970,2635,779,-10,-562,-884,-847,-796,-729,-611,-504,-433,-405,-398,-386,-379,-350,-324,-306,-276,-214,-160,-61,45,121,191,285,305,263,198,114,35,-32,-97,-161,-135,-143,-168,-197,-170,-153,-100,-30,67,215,322,340,365,312,160,64,19,-16,-41,-36,-82,-475,-1133,-259,2612,3009,1347,494,21,-398,-662,-607,-533,-499,-483,-464,-371,-285,-200,-153,-137,-163,-214,-255,-223,-171,-153,-131,-106,-167
2018-05-14,14:29:26.371,-231,-200,-153,-181,-205,-183,-129,-48,-11,-24,-58,-80,-47,3,-33,-85,-142,-190,-194,-78,34,58,92,96,70,76,122,134,108,94,24,-461,-792,525,2957,2516,1053,352,-52,-392,-520,-393,-309,-260,-260,-298,-336,-332,-287,-218,-208,-178,-146,-86,-40,29,110,158,226,216,136,39,-78,-200,-292,-383,-465,-536,-518,-471,-457,-415,-349,-292,-247,-195,-176,-106,-10,97,139,170,155,135,86,43,12,-6,-46,-104,-400,-1141,-886,1498,3112,1680,407,-294,-685,-977,-955,-738,-548,-376,-213,-149,-145,-140,-152,-181,-177,-191,-262,-312,-303,-220,-133,6,131,199,256,290,312,268,204,146,79,51
2018-05-14,14:29:27.408,0,-56,-66,-62,-76,-54,-2,36,89,119,179,272,267,214,146,78,66,118,201,233,207,184,-68,-687,-163,2365,3436,1753,594,-56,-572,-778,-705,-698,-733,-693,-594,-501,-421,-358,-302,-257,-219,-194,-210,-210,-169,-111,-19,28,36,92,129,145,146,81,62,53,29,-18,-85,-177,-273,-307,-254,-171,-117,-59,12,104,236,340,376,336,235,112,30,24,21,39,71,65,-425,-1005,388,3695,3891,1912,576,-271,-841,-1016,-925,-849,-810,-742,-668,-591,-582,-564,-553,-547,-563,-507,-443,-390,-333,-252,-172,-66,6,46,57,9,-33,-47,-12,28,48,-18,-110,-153,-194,-269,-326,-331,-341,-273
2018-05-14,14:29:28.446,-230,-232,-167,-71,43,145,161,128,160,202,176,148,120,6,-673,-1029,983,4454,3633,1644,649,-62,-659,-915,-805,-671,-678,-749,-781,-758,-708,-634,-596,-540,-484,-441,-358,-254,-143,-39,69,133,168,207,200,121,8,-147,-267,-320,-369,-420,-377,-308,-272,-235,-200,-148,-111,-91,-56,-2,50,64,117,129,63,12,9,25,41,43,55,-175,-886,-521,2245,3806,1763,569,-58,-487,-772,-723,-587,-535,-461,-405,-414,-446,-475,-490,-505,-528,-591,-656,-675,-621,-500,-355,-195,-73,37,164,226,205,84,-4,-122,-221,-242,-253,-246,-202,-188,-133,-77,-59,-78,-132,-127,66,66,-85,-123,-116,-101,-71
2018-05-14,14:29:29.483,-30,-4,-7,13,11,-531,-1065,702,4354,3953,1705,555,-162,-782,-1020,-914,-806,-707,-591,-505,-433,-395,-384,-364,-359,-344,-304,-272,-226,-163,-73,7,97,177,247,292,272,201,102,1,-70,-126,-157,-220,-250,-246,-184,-121,-106,-54,20,87,151,266,282,275,279,203,74,-16,-91,-172,-180,-169,-350,-924,-658,1555,3059,1700,691,151,-271,-533,-509,-457,-446,-421,-346,-249,-206,-143,-170,-242,-249,-278,-328,-348,-298,-224,-210,-202,-201,-176,-98,-38,1,-46,-72,-58,-43,-47,-73,-111,-178,-187,-155,-149,-163,-183,-184,-118,33,140,194,269,258,174,148,155,146,142,129,61,-541,-1228,284,4194
2018-05-14,14:29:30.520,4061,1841,488,-279,-784,-939,-762,-647,-593,-562,-631,-656,-566,-481,-419,-350,-271,-199,-105,17,126,134,163,225,245,231,183,87,-116,-304,-496,-642,-642,-544,-424,-334,-232,-174,-121,-51,-23,-3,6,66,144,149,193,211,134,52,18,-18,-26,-32,-22,-451,-1020,1,2766,2972,1320,269,-309,-678,-799,-677,-575,-478,-383,-278,-188,-126,-116,-154,-186,-197,-227,-217,-197,-189,-155,-99,-49,9,59,104,94,47,-18,-60,-115,-139,-154,-183,-195,-195,-186,-167,-141,-82,-27,-17,69,169,207,251,244,60,-82,-71,-60,-16,49,59,-345,-701,530,2925,2490,903,323,-38,-399,-586,-602,-668,-743,-737
2018-05-14,14:29:46.957,-110,175,357,378,405,577,784,204,-545,-456,264,344,-269,-1176,-184,3313,3274,833,1291,947,-715,-902,-594,-680,-743,-764,-1275,-2587,-1278,-16,35,-19,-171,-378,-381,-387,-450,-570,-689,-519,-37,553,536,206,65,66,-75,-152,-157,-239,-303,-169,-40,16,100,192,224,302,284,200,123,121,76,121,63,-117,-224,-275,-348,-1022,-942,1422,3367,1427,18,-526,-655,-631,-486,-313,-228,-188,-107,71,365,415,146,-201,-715,-974,-988,49,741,553,291,132,-213,-557,-630,-724,244,996,706,334,160,-483,-1948,-1777,-1024,213,2055,1859,938,290,-15,-194,-89,370,323,1,-38,107,226,330,352,-230,-130,2133
2018-05-14,14:29:47.994,3009,1205,451,-6,-348,-539,-487,-551,-495,-358,-288,-246,-269,-349,-518,-628,-614,-537,-504,-571,-427,-125,-263,-411,-409,-445,-306,-155,-56,-130,-247,-286,-239,-148,-877,-2582,-732,456,-72,-366,-405,-372,-375,-641,-1123,-1400,-1770,457,1732,842,222,142,-210,-2237,-2875,1832,3576,3943,3568,1556,-115,-840,-982,-922,-882,-839,-567,-610,-721,-565,-469,-495,-318,-308,-253,-62,-9,50,179,221,279,430,441,373,238,25,-150,-258,-383,-572,-572,-591,-613,-442,-286,-270,-182,-145,-253,-287,-170,-58,15,101,273,600,674,547,49,-88,1233,3209,2203,1585,1433,795,34,-211,-254,-448,-770,-658,-966,-892,128,771,318,25
2018-05-14,14:29:49.044,-675,-2203,-1803,-987,636,1835,1611,844,359,155,103,16,63,114,-74,-333,-341,-241,-113,-119,-283,-251,-139,19,273,301,249,320,403,185,56,28,32,44,-219,-857,-1171,703,3226,1910,325,-200,-524,-988,-1052,-815,-714,-663,-651,-568,-398,-242,-188,-198,-141,-423,-1294,-1599,-642,464,398,262,133,29,88,-22,-1530,-1901,950,2101,960,122,-72,-172,-379,-1698,-1643,-500,-279,875,1297,832,477,-146,-176,134,23,109,172,-233,-1427,-1445,2009,5470,3347,988,-30,-728,-1073,-1053,-1026,-959,-706,-502,-582,-671,-636,-742,-734,-650,-587,-519,-460,-534,-410,-237,-88,-117,-175,-127,-194,-274,-413,-552,-569,-399,-314,-224
2018-05-14,14:29:50.082,-73,165,-216,-1621,-1628,246,1074,708,279,168,-25,-271,-210,-1647,-204,2245,1576,-440,-856,1678,4408,3158,789,-260,-411,-1121,-69,616,-52,-419,-504,-554,-495,-439,-421,-458,-443,-302,-339,-209,-119,-144,79,267,338,330,346,350,331,228,-35,-110,-101,-129,-127,-276,-402,-485,-411,-351,-194,4,-66,-83,-19,-204,-350,-346,-253,-149,-132,-606,-511,1642,4108,2113,46,-1220,-1484,-592,-389,-314,-403,-492,-620,-1050,-1271,-495,-481,383,890,443,-30,-224,-267,-253,-372,-643,-598,-427,93,707,1511,1250,431,-27,-192,-126,-60,-90,-172,-250,-662,-1452,-664,2161,2652,870,308,-11,-317,-233,-258,194,350,94,-164,-338
2018-05-14,14:29:51.119,-388,-397,-480,-501,-474,-430,-556,-371,-88,-98,-48,48,-31,-150,-261,-311,-355,-328,-254,-129,-4,141,-337,-940,212,-34,383,714,331,143,133,-497,-722,573,692,136,555,1021,827,367,183,131,-312,-1212,-1129,-1063,-1054,2200,5338,3841,2028,742,-357,-879,-1016,-956,-921,-808,-838,-924,-718,-625,-578,-382,-162,-113,-154,-204,-123,-7,87,283,218,104,239,238,0,-233,-470,-502,-594,-701,-739,-636,-610,-730,-657,-428,-374,-291,-253,-165,-69,-63,-94,-50,110,253,-843,-910,-336,-332,1989,4962,3329,1634,418,-843,-2440,-1194,1189,832,-133,-340,-358,-302,-337,-1058,-1899,-1091,195,348,-348,264,574,142,-74,-11
2018-05-14,14:29:52.156,125,178,212,146,3,-208,-329,-398,-503,-333,-100,-8,25,134,342,445,398,333,240,82,-22,48,149,59,-130,-454,-1118,-319,2631,3069,1061,225,-249,-685,-1060,-1069,-826,-597,-332,-164,-156,-126,-131,-390,-87,-232,-1663,-1384,-267,-26,-96,-43,48,-843,-1630,627,2105,1384,628,340,190,85,-64,-642,-1303,-1879,-1179,139,1600,1924,914,130,-148,-188,-183,-225,-211,-264,-459,-1546,-1323,2444,4726,1903,401,14,-466,-717,-631,-547,-557,-526,-376,-384,-416,-373,-439,-530,-576,-633,-608,-343,-361,-288,60,166,67,76,182,-18,-316,-357,-310,-279,-267,-161,-93,68,-889,-2494,-1431,406,719,470,396,409,429,-571
2018-05-14,14:29:53.193,-486,776,581,642,-335,-177,3155,5120,3111,1071,409,-18,-608,-960,-428,-21,-208,-445,-483,-458,-493,-439,-375,-314,-271,-321,-511,-624,-688,-608,-166,191,321,369,370,373,247,-39,-104,-29,-97,-148,-173,-242,-236,-111,-101,-217,-166,-259,-498,-518,-584,-503,-481,-556,-1025,-1083,925,3686,2688,1049,495,-290,-2335,-3243,-1747,-804,-497,-397,-441,-438,-335,-855,-1401,-558,-190,443,1115,813,435,385,51,-520,376,691,-162,-257,703,775,290,815,732,177,65,12,-11,6,18,-136,0,-96,-213,-1,159,216,261,342,89,-486,317,3282,3573,1671,729,66,-633,-1067,-1104,-978,-908,-850,-558,-419,-558,-594,-566,-577
2018-05-14,14:29:54.231,-530,-509,-360,-218,-68,-9,60,234,479,-24,-1308,-1444,-1077,-592,303,579,119,-123,-97,-286,-1535,-1773,1078,2160,1045,294,262,315,64,-1082,-920,84,124,-1078,947,3516,4127,2427,944,168,-257,-576,-597,-704,-906,-750,-619,-765,-578,-233,22,134,127,69,29,85,25,-14,135,385,455,424,402,246,10,-225,-492,-663,-700,-682,-567,-498,-379,-318,-192,-66,43,133,197,135,207,404,601,295,-975,-2767,-1786,1258,3401,2774,1214,74,-483,-654,-801,-1596,-835,106,186,-217,-526,144,-91,-1526,-1030,692,1024,378,-60,-84,-2,-16,30,80,194,277,213,34,-246,-375,-403,-467,-630,-479,-43,301,488,544
2018-05-14,14:29:55.268,544,487,371,283,304,283,289,194,-241,-991,46,3538,3797,1399,278,-450,-963,-1134,-972,-768,-650,-586,-509,-419,-369,-290,-161,-114,-56,66,30,-1351,-2180,-1489,-721,42,694,667,349,212,216,149,-366,-76,249,-613,-290,652,280,-174,853,1100,240,-323,332,294,-446,295,901,274,-751,-688,1455,3537,2345,544,-368,-788,-1168,-919,-406,-243,-168,-59,31,14,-108,-120,38,44,12,23,14,-81,-61,-8,1,7,52,82,-59,-119,-180,-389,-490,-495,-352,-224,-240,-103,290,693,67,-1590,-2371,-755,323,606,488,252,117,-466,-1935,-486,4659,5329,3140,1268,255,-336,-684,-1646,-1738,-335,-115,382,252,-219
2018-05-14,14:29:56.305,-481,-471,-429,-478,-428,-373,-465,-425,-198,-15,-62,170,256,-21,-110,-39,-61,-148,-253,-125,184,136,51,152,206,232,176,88,11,-99,-169,-44,8,-75,-564,-906,454,2951,2331,646,-32,-412,-651,-754,-507,-276,-130,-291,-1035,-937,-909,-76,425,157,-109,-134,-75,-71,-331,-1138,-248,1091,873,428,291,53,-319,-1085,-1724,-1993,503,1851,924,127,-135,-147,-161,-138,-166,-203,-97,-154,-226,-118,-24,-668,-932,1428,3897,2192,555,77,-238,-548,-606,-561,-399,-295,-402,-533,-626,-745,-660,-627,-557,-494,-372,-309,-327,-268,-225,-97,0,87,6,-110,-222,-236,-64,-430,-1998,-2176,-898,-99,244,176,93,102
2018-05-14,14:29:57.342,-83,-726,107,-13,-347,760,1167,436,-797,-817,2300,4844,2925,1406,393,-264,-958,-1039,-610,-555,-659,-653,-600,-571,-575,-494,-544,-717,-518,-330,-332,-171,119,286,413,502,516,460,308,120,-1,-108,-154,-291,-415,-572,-567,-203,12,17,-22,-128,-371,-354,-333,-324,-102,-60,-448,-583,1030,3301,2253,966,600,-258,-1077,-1282,-1445,-480,438,209,-146,-152,-105,-111,-392,-1071,-603,158,838,794,547,461,170,-199,-852,-394,1026,1141,953,554,16,-214,-299,-301,-199,53,173,102,228,371,219,141,147,206,302,221,-124,-563,609,3583,3393,1528,719,112,-536,-851,-791,-798,-688,-584,-533,-496,-472,-475,-224,-132
2018-05-14,14:29:58.380,-305,-306,-244,-192,-11,64,141,342,354,-539,-1485,-1327,-1150,-615,10,-57,-313,-326,-324,-1226,-1291,643,348,920,1652,937,408,279,331,219,-578,-1958,-1320,1875,4103,3907,2611,731,-504,-970,-837,-758,-736,-606,-525,-622,-651,-752,-899,-652,-403,-279,-220,-68,14,162,233,309,285,206,135,-49,-305,-557,-693,-826,-848,-671,-528,-359,-154,-103,-152,-250,-318,-353,-314,-156,-88,-17,-284,-613,542,3283,2312,-530,-779,-475,-431,-320,-385,-580,-621,-535,-1060,-1877,-558,709,778,292,-86,-204,-258,-1933,-1984,469,1258,689,494,805,472,91,-116,-234,-28,7,-223,-343,-232,-149,-173,-16,-157,-155,45,237,257,250
2018-05-14,14:29:59.417,287,26,-390,-540,1341,4169,2853,1321,483,-282,-953,-1190,-1022,-955,-971,-815,-666,-581,-408,-403,-440,-439,-277,-185,-53,24,138,370,624,488,-662,-1775,-1561,-333,807,626,107,-44,21,65,-603,-1078,642,1687,1008,452,428,-169,-1595,-357,1140,207,-451,362,2419,3573,2321,1025,181,-255,-544,-571,-490,-521,-464,-355,-250,-368,-497,-444,-341,-285,-154,-98,-15,18,5,155,187,146,64,-49,-182,-308,-432,-531,-573,-595,-616,-645,-473,-380,-485,-511,-443,-397,-362,-262,-34,48,94,-21,-668,-775,892,1784,1530,852,379,-228,-595,-599,-726,-948,-1139,-456,-193,655,802,139,-122,-344,-875,-910,-1113,-1200,-175,516
2018-05-14,14:30:00.454,1219,480,124,66,28,-23,-101,-180,-380,-548,-417,-190,-141,-177,54,241,255,216,237,212,227,294,144,-515,-557,1960,4366,2234,839,-29,-473,-875,-923,-862,-721,-566,-605,-658,-676,-603,-513,-423,-287,-182,-115,29,210,44,-870,-1869,-671,17,-35,-186,-198,-362,-799,-1318,-2450,-1507,1711,2120,886,334,337,362,275,-357,-1705,-1083,-730,-559,1670,1043,2030,4308,3051,1243,243,-44,-471,-565,-413,-347,-538,-710,-656,-770,-794,-516,-222,-34,53,52,61,39,61,258,434,508,469,353,160,-36,-257,-538,-678,-671,-835,-968,-690,-507,-435,-355,-328,-100,151,185,302,322,252,-139,-610,505,2635,1285,-262,-203
2018-05-14,14:30:01.491,-547,-642,-744,-750,-693,-632,-840,-601,-431,-694,-277,-565,-1209,726,1574,414,-64,222,174,-349,-376,107,-17,375,864,344,303,219,35,-122,-223,-80,102,33,-111,88,266,330,301,271,228,265,74,-513,136,2904,3502,1672,856,310,-240,-725,-824,-691,-526,-596,-528,-451,-392,-266,-197,-176,-89,16,100,249,400,587,177,-908,-2159,-1798,-466,338,778,318,-150,-163,-348,-1126,-595,598,425,345,1536,1544,860,522,-420,-928,-63,-1100,322,2516,3355,3928,2778,1195,248,-166,-460,-398,-486,-773,-675,-384,-461,-519,-399,-281,-169,-101,-46,67,111,122,199,322,363,392,339,144,-69,-446,-757,-781,-837,-911
2018-05-14,14:30:02.528,-862,-693,-468,-281,-171,-138,37,57,50,168,165,179,57,-752,-1732,531,2675,1234,967,416,-323,-831,-919,-858,-1364,-2831,-724,1326,653,-94,-236,-245,-247,-295,-1258,-2185,-1234,1053,1235,732,471,126,-79,-124,-138,-197,-231,-313,-476,-633,-507,-327,-414,-339,-26,164,189,183,156,188,133,-74,-709,-479,2005,3604,1961,877,183,-511,-1152,-1081,-837,-673,-745,-691,-589,-611,-543,-534,-404,-241,-142,-31,14,81,260,-232,-1192,-1031,-703,-741,-525,-203,-23,-678,-1032,-1012,-725,-180,262,711,582,347,380,-360,-1468,10,1150,297,-104,-178,335,2365,3266,1952,759,65,-393,-686,-601,-542,-549,-520,-536,-471,-668,-680
2018-05-14,14:30:03.566,-341,-63,38,106,110,177,288,206,127,237,310,236,72,-161,-391,-572,-656,-582,-539,-476,-329,-407,-385,-160,-267,-157,91,160,244,283,257,60,-445,28,678,1062,107,-420,5,-416,-760,-706,-588,-646,-705,-678,-1298,-485,-472,295,1103,720,-82,-592,-736,-991,155,719,1378,1829,707,204,250,201,134,62,-114,-221,-70,231,365,234,173,341,442,490,493,544,503,489,400,-141,406,3136,3549,1741,675,-118,-747,-847,-638,-520,-332,-237,-288,-287,-328,-384,-349,-300,-254,-145,33,173,446,454,-751,-1774,-972,-222,-538,-166,583,225,-133,-112,-406,-1178,-632,1268,1539,730,319,296,-1020,-1280,-1046,1291
2018-05-14,14:30:04.603,2104,729,-648,831,4083,3990,2301,923,58,-637,-795,-707,-828,-1126,-875,-537,-690,-751,-487,-356,-396,-356,-281,-262,-242,-239,-307,-309,-201,-139,-99,-194,-325,-346,-469,-629,-742,-841,-800,-570,-397,-368,-386,-298,-192,51,167,336,451,306,-426,-1125,741,3261,2354,1025,-54,-72,110,-373,-793,-870,-952,-955,-509,-644,-890,-337,-736,-1372,-557,420,-80,-687,337,945,598,318,218,172,-20,-212,-287,-41,49,-58,-97,-17,53,290,518,367,24,-100,137,261,239,254,390,116,-567,848,4568,3753,1907,1060,213,-554,-858,-716,-613,-484,-478,-441,-408,-547,-493,-348,-301,-179,-77,-98,-80,59,442,-302,-463,-207
2018-05-14,14:30:05.640,-374,433,844,295,-6,-44,5,-422,-449,219,459,442,833,843,229,-857,-917,263,617,103,-729,-864,1654,4582,2878,748,-91,-874,-1447,-1494,-1389,-1251,-1134,-1024,-936,-808,-849,-973,-954,-874,-792,-736,-532,-397,-373,-346,-266,-116,-197,-448,-748,-981,-998,-1014,-1046,-952,-809,-579,-414,-462,-478,-479,-521,-461,-409,-475,-502,-796,-2007,-1066,2265,3476,2462,2815,1279,-360,-1085,-1012,-889,-1248,-1317,-1836,-1407,842,1034,-62,-396,-360,-408,-884,-2143,-1921,556,971,515,573,202,-214,-364,-396,-455,-569,-559,-495,-453,-156,190,86,11,70,53,-41,-72,37,163,186,-145,-865,477,4281,4043,1682,643,-111,-768,-1098,-1003,-790
2018-05-14,14:30:06.677,-769,-615,-587,-613,-474,-398,-290,-169,-97,-43,-24,-18,137,288,420,223,-616,-1499,-2051,-629,184,157,-167,-314,-288,-178,-509,-587,-633,-212,1306,1558,931,579,526,534,-447,-2308,-1203,2333,4340,3803,2370,1088,-189,-763,-305,-223,-256,-264,-248,-322,-340,-403,-565,-671,-525,-196,26,106,192,290,317,241,267,305,118,-22,-74,-112,-189,-241,-380,-552,-440,-243,-211,-129,144,126,2,-91,-105,-95,-237,-784,-585,2049,3892,2140,479,-1234,-2587,-1755,-946,-648,-288,-252,-387,-408,-1298,-1110,-101,23,1434,1691,659,157,285,426,-123,-957,-356,-492,314,1982,1889,657,-49,-118,-34,48,167,171,-115,-592,-486,-406
2018-05-14,14:30:07.715,-578,-302,132,300,288,-385,-721,1705,4793,3257,1569,637,-228,-746,-730,-605,-570,-587,-570,-462,-413,-518,-493,-407,-482,-465,-366,-271,-137,-13,141,246,307,373,392,64,-486,-1400,-1952,-1562,-876,-558,-352,46,4,-167,-400,-379,-1753,-1071,2498,2703,1057,-121,-846,254,3436,3973,2006,595,357,-180,-594,-374,-409,-538,-581,-473,-410,-501,-924,-1248,-985,-846,-1075,-966,-475,-22,153,260,325,280,217,128,20,-99,-163,-209,-274,-302,-284,-262,-178,-93,14,25,-41,-95,-90,-124,-122,-352,-955,-360,2166,2623,982,349,139,-190,-1059,-2146,-2395,-1203,-592,-717,-680,-612,-752,-636,-1878,-1676,760,2076,1277,656,588,578
2018-05-14,14:30:08.752,608,744,404,-92,-171,309,694,167,122,880,713,306,191,258,280,265,161,-76,-647,-973,-784,-925,-1698,-1272,2287,5038,2612,998,354,-170,-458,-387,-387,-374,-353,-395,-404,-396,-376,-402,-389,-304,-222,-108,-23,4,107,86,78,101,46,0,-34,-141,-238,-310,-96,-31,-822,-2013,-2661,-1490,-546,-395,-59,190,182,58,10,-656,-408,91,1030,3606,4110,2448,305,-823,-352,-337,487,1150,454,-74,-129,-172,-145,-170,-209,-145,-126,-86,-260,-762,-844,-834,-940,-677,-242,46,106,60,7,75,58,72,144,221,322,357,386,318,182,147,224,103,-118,-75,-311,-758,94,2300,2077,542,36,-219,-356,-417
2018-05-14,14:30:09.789,-178,-39,79,131,-471,-1218,-1921,-1519,-993,-721,-378,-404,-849,-1634,-898,134,-907,-43,1739,1590,740,446,364,305,237,62,-182,-312,116,683,849,520,274,132,51,109,136,176,-50,-1000,-1128,1320,2670,729,-409,-569,-645,-510,-248,-246,-210,-132,-126,-82,-8,26,49,0,-49,-31,46,78,68,168,226,233,195,42,-81,-282,-418,-452,-433,-390,-330,-169,60,203,352,483,-57,-935,-1645,-1722,-1485,-1130,-1122,-1352,-835,764,3181,2961,1398,-365,-919,-13,523,146,11,166,-23,-81,43,86,116,321,609,494,244,217,283,409,552,590,460,246,79,-62,-235,-289,-3,288,360,396,543,766,835,856
2018-05-14,14:30:10.826,922,760,646,570,482,464,439,166,-472,190,2706,3234,1634,709,250,-172,-556,-460,-253,-191,-169,-97,-56,-24,115,341,84,-735,-1158,-1155,-1267,-947,269,483,309,199,190,-97,-1485,-1861,-232,1510,1212,297,-30,-28,4,-332,-1251,-2243,-1858,1987,1418,556,681,353,-723,-1103,436,2773,2100,327,-1055,-1172,-739,-969,-1157,-976,-783,-705,-587,-456,-356,-384,-339,-364,-485,-627,-676,-628,-440,-481,-434,-445,-384,-502,-697,-844,-970,-877,-756,-796,-810,-707,-641,-651,-517,-432,-419,-399,-326,-242,-143,-362,-1058,-2356,-1154,1791,1546,606,69,-796,-1003,-533,-625,-1215,-757,209,-585,-842,175,-55,-999,-978,-1270,-2064,205,1479
2018-05-14,14:30:11.864,746,110,300,296,417,430,294,172,6,-230,-334,-344,-256,-213,-180,48,253,367,321,284,317,362,354,353,239,8,-507,-342,1836,3188,1853,780,-65,-699,-804,-685,-599,-581,-588,-598,-498,-399,-373,-319,-196,-162,-116,23,189,-418,-1214,-920,-714,206,325,-28,-189,-203,-574,-1258,5,858,443,404,722,765,507,-166,-290,-286,-753,297,2069,2075,416,-1073,-866,2356,4427,2674,1110,34,-572,-1050,-1056,-730,-555,-597,-473,-206,-89,-20,67,118,138,141,148,142,202,290,432,568,418,178,-69,-296,-506,-625,-720,-691,-622,-526,-367,-202,-57,-61,-56,-24,-45,52,218,359,406,-552,-2159,-2026,349,2433
2018-05-14,14:30:12.901,1414,955,895,251,-572,-277,-44,-111,190,741,885,601,303,17,129,-338,-464,19,828,812,1180,1227,640,435,412,327,253,152,-52,-318,-318,-192,-118,-40,199,455,479,438,358,257,264,251,146,99,5,-579,-674,1204,2865,1396,377,-124,-619,-1103,-1143,-966,-843,-825,-733,-563,-649,-753,-651,-584,-551,-471,-386,-188,-58,-428,-1356,-2101,-1921,-1493,-1241,-435,-164,185,122,-304,-800,-1046,-2328,-66,2611,1993,784,499,516,520,470,359,99,-408,-1270,-1134,1513,4874,3701,1677,251,-519,-980,-1026,-1337,-1749,-1574,-1399,-1329,-1085,-638,-328,-224,-224,-153,-53,3,98,216,302,359,345,256,136,-17,-170,-309,-382
2018-05-14,14:30:13.938,-330,-329,-309,-191,-96,-93,-28,-1,49,12,-30,56,80,54,109,-355,-839,423,2190,1289,659,135,-885,-971,-231,-130,-421,-548,-1892,-614,643,531,712,554,262,41,6,31,-6,-280,-666,-254,-136,-164,613,1177,502,-41,-154,-153,-146,-314,-841,-950,-691,-517,-486,-233,82,273,383,450,530,548,110,-135,1401,3271,2375,1298,706,210,-297,-491,-574,-502,-434,-382,-393,-351,-302,-284,-337,-379,-374,-255,-157,-51,67,295,503,138,-858,-2074,-3173,-2182,-749,-500,-586,-405,-352,-404,156,-1546,-708,2017,2443,1420,769,595,565,618,479,-760,-964,1419,4242,3778,2707,1437,78,-810,-957,-800,-720,-738,-633,-659
2018-05-14,14:30:14.975,-1347,-1542,-1342,-1250,-971,-443,-109,95,279,508,675,803,754,662,491,236,64,-44,-146,-189,-257,-230,-65,113,200,151,-11,-277,-357,-333,-295,-217,-7,61,-310,-379,1707,4546,3309,504,-1871,-2775,-2264,-1765,-1133,-536,-98,-146,-873,-898,-320,-391,-109,768,929,639,388,411,301,-245,182,770,136,77,656,717,801,409,61,-2,21,76,197,260,219,-262,-765,-734,-691,-582,-107,300,415,47,-77,1553,3339,2191,1133,703,285,-209,-280,-148,-123,-131,-174,-238,-285,-259,-217,-316,-330,-205,-306,-311,-195,-210,-144,-67,-80,-88,91,238,102,-502,-2235,-3188,-1921,-516,-89,-99,-200,-114,48,-108,-1140,-793
2018-05-14,14:30:16.012,853,1906,1561,933,84,-355,1358,4251,3353,1529,1213,315,-841,-320,180,-130,-374,-410,-485,-553,-445,-352,-866,-1298,-998,-647,-669,-393,18,330,544,735,812,800,704,533,399,247,139,48,20,41,111,104,71,49,88,98,207,167,28,25,-86,-696,-1017,790,3283,2111,870,402,32,-305,-307,-334,-1601,-3494,-4285,-2841,-691,-106,-290,-220,-18,16,-1082,-275,1296,1116,806,1226,1195,906,480,102,-772,-875,1157,1813,918,317,110,137,134,135,129,180,84,17,32,-424,-862,-736,-1224,-1829,370,4193,3010,1032,219,-254,-546,-536,-482,-426,-359,-435,-428,-323,-304,-347,-373,-374,-317,-319,-328,-231,1,84
2018-05-14,14:30:17.050,12,-8,-93,-289,-443,-535,-603,-579,-536,-475,-326,-182,-48,-316,-1463,-2481,-1981,-1252,-365,170,185,105,3,-457,-1516,-842,3029,2616,1689,1200,190,-511,-682,-487,-319,-601,-1057,-186,374,301,380,337,60,-43,-30,44,159,205,44,-245,-483,-608,-666,-379,5,229,319,379,378,276,230,283,358,361,425,529,563,464,314,257,224,85,-194,-534,338,2879,2356,628,252,-63,-349,-485,-332,-208,-182,-218,-132,-65,-104,-805,-2253,-2883,-2480,-1922,-1463,-698,27,131,118,-10,-431,-492,-132,-867,598,1673,875,216,108,73,-60,-201,-521,-289,86,161,437,346,-39,-203,-256,-520,-1368,-935,2103,3556,1136,-258
2018-05-14,14:30:18.087,-756,-1069,-1061,-891,-823,-710,-537,-460,-449,-505,-582,-602,-548,-483,-483,-466,-338,-258,-188,-221,-254,-178,-113,-264,-476,-677,-814,-788,-754,-745,-747,-498,-45,226,-115,-732,-601,-815,-806,-487,-248,-163,-850,-2286,-1000,2368,3093,2896,2747,1412,133,-428,-434,-393,-817,-1844,-1645,-801,738,1252,669,64,-215,-423,-348,-236,-122,-93,-78,-17,-140,-336,-385,-702,-1052,-636,-172,26,82,102,196,307,353,264,227,249,162,172,180,119,112,-18,-444,-530,1045,2942,1494,153,-173,-369,-750,-838,-675,-585,-421,-225,-45,120,292,-145,-1405,-2064,-1538,-744,-278,202,420,261,-24,296,-764,-1376,1247,2954,1698,561,333,288
2018-05-14,14:30:19.124,265,271,87,-25,462,203,-10,560,491,79,285,266,55,-562,-1254,118,3432,3005,352,-888,-1420,-1469,-1014,-476,-213,-129,-67,7,25,67,106,116,87,126,169,219,239,274,337,341,272,254,257,159,-9,-98,-180,-54,-105,-194,-175,101,318,381,536,616,-43,-2194,-3656,-3054,-1947,-1008,-743,-1211,-693,1642,2071,953,2217,2206,929,167,213,348,262,-567,-1331,-521,669,2049,1880,887,421,212,58,78,89,276,643,654,417,69,-561,-1079,-1102,-1115,-956,-403,105,387,519,631,650,627,504,313,291,382,416,413,372,279,-242,-523,924,2917,1768,393,-56,-185,-459,-563,-465,-503,-526,-427,-186,-126
2018-05-14,14:30:20.161,-95,27,163,-211,-1997,-3609,-3371,-2096,-1186,-768,-651,-463,-129,-466,-1331,-33,1258,886,1193,1173,856,797,565,-1460,-778,809,1920,3068,2002,780,431,409,370,-130,-943,169,3773,4497,1898,-554,-1790,-2139,-2164,-1726,-1071,-594,-230,-102,-49,32,71,29,12,27,-84,-41,201,369,387,350,330,183,-133,-400,-618,-694,-638,-640,-439,-450,-561,-456,-262,-218,-104,129,364,570,270,-876,-2613,-2560,-1496,-1560,-991,1603,3187,1446,-76,-517,262,1581,1454,818,527,403,336,277,178,-486,-1410,-1796,-243,2302,2263,935,222,192,207,262,289,256,122,-251,-838,-1236,-1137,-1083,-1178,-886,-251,310,522,428,118,341,642,510
2018-05-14,14:30:21.199,347,287,338,254,-234,-368,1324,3024,1706,567,133,-211,-556,-603,-473,-424,-492,-460,-481,-521,-524,-462,-302,-60,129,-687,-1836,-2658,-2446,-938,-382,-430,-515,-383,-435,-1110,-690,-129,370,607,683,549,545,458,233,146,914,1051,703,956,996,492,196,-325,-824,521,3592,3394,1488,-81,-1286,-1811,-1766,-1645,-1353,-686,-137,44,-2,-25,75,105,82,190,206,171,217,218,313,299,207,218,62,-196,-408,-457,-553,-672,-659,-683,-696,-650,-557,-528,-371,-174,-42,211,577,294,-1638,-2458,-2458,-2166,9,3925,4117,1862,819,418,15,-697,-1526,122,1277,669,188,102,142,110,-416,-886,40,221,64,710,719,485
2018-05-14,14:30:22.236,180,52,86,85,94,50,6,-148,-193,71,-22,-113,208,403,371,355,411,398,312,299,252,316,434,321,-171,352,2685,2752,1147,446,102,-172,-407,-364,-190,-193,-62,22,-107,-122,-80,34,296,405,360,331,547,726,435,-981,-2037,-625,-18,-99,-197,-238,-198,-68,91,110,26,-43,88,118,126,546,1296,1297,712,361,231,-807,-1329,-1065,-374,3519,4303,2207,576,-493,-1174,-1411,-1379,-1447,-1461,-1205,-1079,-1326,-1502,-1285,-1114,-1112,-1093,-950,-901,-856,-732,-786,-734,-827,-939,-1046,-1167,-1337,-1494,-1565,-1758,-1877,-1885,-1749,-1623,-1472,-1433,-1229,-967,-963,-1044,-1037,-1006,-1053,-1110,-1499,-2281,-1324,2184,2302,-468,-1311
2018-05-14,14:30:23.273,-1336,-1586,-1813,-1750,-1649,-1584,-1477,-1381,-1385,-1361,-1665,-1304,-2043,-2395,-1614,-702,633,583,-847,-1077,-408,-848,-442,83,-339,-43,77,-284,-413,-321,-63,96,152,142,161,124,174,409,540,569,640,666,407,-86,930,3075,2609,1525,1049,581,46,-172,-82,-25,93,128,120,230,409,530,549,592,637,666,728,713,766,938,1024,817,22,-810,-1281,-1279,-1089,-825,161,866,799,533,556,717,641,-588,148,1652,931,753,1448,1400,75,-1364,-982,1824,4445,4633,2955,915,191,-400,-559,-465,-348,-315,-290,-179,-90,-247,-513,-391,-286,-132,166,398,596,697,817,956,935,789,641,493,251,110,185,77,-66,-68
2018-05-14,14:30:24.310,30,235,334,344,377,316,159,197,219,161,160,-106,-681,209,3484,4389,1754,-289,-1445,-1837,-1327,45,552,178,-98,-31,147,-1,-471,-1197,334,1631,1096,200,95,169,-466,-555,-777,-806,482,872,601,519,153,-288,-440,-217,-181,-74,-28,38,150,30,-4,59,-86,-94,18,12,-265,-389,1040,2329,1145,420,103,-241,-548,-534,-413,-376,-410,-513,-486,-473,-481,-508,-422,-383,-324,-363,-328,-184,-55,-5,68,23,-110,-82,-185,-1019,-2599,-2807,-2448,-1635,-936,-655,-428,-199,-205,-993,-1211,381,2005,1637,1074,836,283,-771,-427,2377,3596,2177,1507,1652,671,-214,-441,-820,-891,-816,-865,-831,-911,-939,-824,-1073
2018-05-14,14:30:25.348,-1392,-1083,-708,-460,-20,333,423,402,372,288,168,68,163,131,-68,-195,-119,-2,81,123,154,92,95,116,125,30,-48,-117,-302,-914,-511,2525,3989,1771,597,192,56,20,11,-1259,-3298,-2381,-1174,-996,-459,-200,-321,-293,-38,91,-357,-850,621,1700,1216,762,636,527,-872,-2082,-1428,80,2832,2532,1066,479,279,244,354,379,272,203,84,120,142,-297,-750,-1226,-1207,1061,2809,1472,871,632,186,-279,-170,182,317,141,56,255,307,256,137,-38,-127,-18,118,17,132,442,509,312,226,-22,-275,-476,-627,-666,-557,-373,-162,1,-232,-1399,-2577,-2071,-606,-16,-116,-212,-114,72,148,-1770,-1810,2364
2018-05-14,14:30:26.385,6095,5041,3361,1795,531,-372,-1524,-2209,-249,115,174,751,157,-546,-669,-642,-699,-727,-728,-718,-614,-729,-1357,-1246,-643,-375,-299,56,286,233,173,315,535,653,727,852,764,653,592,508,371,359,351,276,111,-383,-839,332,3127,2418,394,-48,-358,-582,-673,-445,-262,-80,-1,236,338,-303,-1702,-3490,-4015,-2769,-1191,-250,-87,-252,-173,236,544,105,-523,491,1039,576,623,908,704,196,-291,-157,518,188,429,1685,1517,635,361,318,223,-94,-667,176,2776,2672,456,-1199,-2102,-2779,-2349,-1223,-465,-251,-572,-688,421,677,511,458,217,193,396,485,571,716,857,824,738,546,351,59,-242,-529,-794,-935
2018-05-14,14:30:27.422,-941,-899,-779,-644,-424,-24,253,-148,-997,-1272,-1849,-1659,-722,-593,-1170,-240,3049,3801,757,-3,1338,487,-213,466,225,-189,-302,-1049,-1651,-474,50,-504,323,288,-366,-677,-639,-494,-361,-238,-177,-40,-199,-691,-907,-669,-491,-562,-378,-76,165,349,460,589,669,543,516,582,434,281,215,-84,-808,-112,2966,3621,1356,407,-152,-696,-1107,-1068,-1067,-1012,-725,-538,-484,-380,-169,-21,85,198,127,-665,-2049,-2128,-1721,-951,-320,-254,-391,-467,-366,-639,-1172,-133,753,672,378,255,263,347,99,-1054,-851,-300,1573,1987,1101,595,-335,-22,2271,2676,1770,860,174,-318,-560,-999,-1515,-1490,-1312,-1204,-762,-221,35,221
2018-05-14,14:30:28.459,374,414,415,415,532,607,654,757,848,752,483,223,7,-160,-250,-387,-561,-574,-569,-519,-473,-477,-408,-307,-220,-111,-33,99,265,87,-446,471,2558,1264,-1193,-1776,-1558,-1481,-1372,-1107,-819,-737,-913,-205,304,37,400,608,91,-940,-421,170,895,747,300,703,624,360,294,209,227,38,-90,-85,-50,18,-43,-517,-690,-562,-446,-308,36,317,440,477,500,-45,0,2486,4209,2238,1218,732,100,-404,-466,-446,-535,-556,-453,-321,-321,-346,-385,-329,-245,-195,-125,-78,-26,164,382,598,563,-184,-1782,-4067,-4306,-2186,-867,-604,-256,105,280,292,242,-176,-357,740,1568,1054,659,613,156,-1108,-341,3237
2018-05-14,14:30:29.496,4056,2866,1851,839,32,-392,-282,-173,-73,63,152,166,63,-234,-585,-873,-1078,-1116,-681,-12,513,736,810,821,752,647,400,241,163,185,212,248,275,304,314,278,173,96,73,-28,-77,162,190,-28,-729,-650,1975,3976,1996,903,364,-10,-735,-1868,-3065,-3598,-3394,-2257,-1218,-835,-844,-779,-546,-916,-1607,-363,1105,891,357,277,365,343,-251,-637,223,298,-475,867,846,274,19,-145,-165,-88,-153,-305,-339,-638,-1062,-1167,-1196,-1344,-1465,263,3545,2964,919,293,-61,-486,-611,-467,-395,-347,-265,-230,-241,-304,-386,-428,-469,-418,-254,-126,-67,-44,-71,-173,-249,-374,-512,-619,-649,-653,-597,-470,-363,-375
2018-05-14,14:30:30.534,-914,-1830,-1702,-939,-508,-209,-217,-238,-200,-121,-325,-1198,-807,1964,2536,792,1208,1208,32,-577,-484,-945,-1893,-1161,238,-72,-209,-152,-364,-566,-562,-500,-462,-401,-464,-581,-531,-312,-313,-472,-539,-453,-387,-365,-352,-335,-271,-143,-113,-214,-236,-134,-170,-194,-246,-288,-396,-556,-1241,-1446,1117,3516,1465,98,-450,-917,-1289,-1355,-1220,-1099,-1028,-930,-789,-680,-734,-943,-2764,-4910,-3008,-549,-100,-373,-363,-152,104,235,146,-128,220,293,2,479,660,251,-90,-119,-53,-521,95,1626,1576,621,160,34,-50,-542,-1134,611,4077,3549,1542,112,-660,-795,-542,-368,-325,-125,52,94,183,159,265,393,295,296,446,571
2018-05-14,14:30:31.571,591,552,433,615,632,432,213,51,32,6,-2,-21,-72,-87,24,23,72,163,228,429,630,581,-197,-307,-968,-1243,448,3639,3362,1591,685,215,-723,-891,-398,346,946,816,448,252,204,116,-632,-785,173,179,844,1034,657,488,341,273,294,280,204,41,-19,14,-257,-598,-473,-204,-11,321,562,568,505,543,630,725,678,509,-99,62,2966,4900,2705,1433,504,-239,-715,-689,-510,-487,-429,-362,-398,-436,-423,-403,-388,-356,-292,-265,-246,4,403,273,-858,-2230,-1500,-760,-326,-306,-478,-417,-199,114,223,341,1130,1386,1077,797,455,-740,502,1708,1135,-241,-454,2328,4969,3170,1052,-231,-335,-377
2018-05-14,14:30:32.608,-215,-268,-444,-514,-528,-454,-398,-344,-535,-1111,-1527,-1605,-1243,-448,250,588,739,818,766,595,421,257,286,412,346,206,171,245,281,287,241,96,-32,-56,-38,-127,-183,-315,-848,-667,1512,2845,991,293,255,-173,-1343,-2954,-2925,-1278,-230,-8,-89,-49,-15,67,179,22,-692,-408,647,586,476,497,415,212,318,94,49,224,56,-37,-165,-480,57,376,185,52,143,92,35,64,-88,-722,-1473,-2282,-1856,1632,3702,1694,521,56,-322,-386,-160,-24,65,88,51,77,49,-23,-97,-151,-136,-120,-77,29,183,343,446,433,292,15,-219,-332,-398,-441,-440,-357,-204,139,582,813,202,-1435,-2806,-2470
2018-05-14,14:30:33.645,-976,-63,355,115,-633,-25,3822,6255,3905,1585,198,376,628,601,408,293,225,-251,-669,-326,544,74,193,542,124,-8,-71,28,378,442,385,315,283,153,3,-46,-135,-513,-889,-975,-803,-465,-213,-27,31,119,305,315,214,206,73,-435,-79,2245,2929,1236,510,41,-505,-902,-872,-803,-764,-712,-768,-854,-904,-942,-970,-949,-886,-793,-647,-557,-438,-341,-186,-129,-411,-1897,-2476,-2042,-1615,-1355,-894,-795,-802,-734,-642,-514,-521,-732,-715,-367,-231,-254,-300,-782,-2071,-939,2301,3851,2881,693,-603,-677,-875,-833,-677,-815,-893,-987,-1000,-941,-904,-954,-983,-968,-812,-775,-1022,-968,-869,-718,-390,-168,-201,-304
2018-05-14,14:30:34.683,-269,-94,-57,-75,-112,-92,17,100,218,327,284,225,236,215,178,122,-316,-1126,196,4319,4386,1571,299,-256,-690,-922,-802,-650,-530,-364,-277,-283,-182,-63,-136,-867,-2313,-3100,-2740,-1636,-649,-178,-104,101,182,147,532,751,517,184,-125,-111,547,545,608,1179,1547,1271,873,662,299,321,813,247,-352,972,3806,3478,1702,832,282,-238,-312,-123,-96,-239,-459,-776,-870,-885,-880,-488,-110,145,362,515,584,628,676,634,559,459,338,199,73,93,106,91,152,255,316,255,243,210,160,99,47,23,-35,-223,-587,-595,977,2512,1331,383,82,-38,-118,-7,-260,-1114,-1611,-1399,-896,-557,-466,-521
2018-05-14,14:30:35.720,-545,-523,-641,-620,-470,-472,-29,472,235,9,-516,-445,493,743,317,102,409,510,67,-86,88,-67,-206,221,348,441,376,148,-57,-734,-867,1231,3846,2698,967,-309,-1140,-1565,-1691,-1574,-1235,-938,-785,-592,-385,-193,-109,-72,-30,-28,31,55,86,180,222,201,168,86,-29,-170,-327,-364,-433,-489,-429,-273,-188,-122,-122,-234,-286,-270,-209,-151,-96,-238,-1025,-543,3439,5214,2341,125,-1158,-1767,-1616,-1304,-1178,-1337,-1368,-471,-317,-273,-129,-309,-518,-669,-795,-516,116,251,157,254,252,13,18,63,-428,-629,84,263,-9,96,229,181,137,100,-5,-26,-27,53,73,-5,-528,-1485,-508,2661,1747,-471
2018-05-14,14:30:36.757,-823,-592,-507,-263,-110,-192,-113,65,134,139,146,108,22,-33,4,82,166,289,420,483,512,463,310,123,-59,-214,-286,-337,-419,-429,-351,-310,-301,-250,-133,-34,49,149,291,440,359,-244,-64,1932,2760,1134,348,-119,-572,-994,-1139,-1124,-1225,-288,381,225,-10,-93,-117,-164,-219,-205,-153,-74,44,134,142,68,21,-8,-111,-189,-274,-325,-313,-303,-188,0,61,63,-80,-1081,-1479,-1725,-2389,-2603,-2668,-2877,-3141,-1726,1840,3158,2135,1206,924,684,621,704,647,558,483,504,517,480,471,416,328,346,477,593,626,598,625,519,395,462,577,678,293,80,72,3,-105,71,258,211,119,-28
2018-05-14,14:30:37.794,-205,-372,-483,-474,-463,-514,-861,-1055,627,2991,1724,518,51,-319,-629,-608,-390,-353,-378,-474,-516,-359,-162,-74,-139,-181,-187,-244,-68,-273,-188,86,-157,216,0,283,811,377,69,-65,-43,657,403,687,1528,1311,836,611,578,510,214,-149,-361,-1063,-148,3627,5555,3462,1454,305,-292,-621,-797,-1425,-2124,-2402,-2171,-1467,-793,-431,-237,-83,33,176,299,466,701,931,1046,1084,1027,850,620,424,326,260,190,181,198,195,121,66,-24,-158,-254,-262,-262,-291,-316,-542,-1149,-395,2903,3190,1266,288,-413,-849,-1021,-853,-1068,-2039,-2594,-2364,-1693,-1129,-941,-857,-795,-822,-903,-1049,-1221,-1056,-618,-550,-428,-485
2018-05-14,14:30:38.832,-624,-700,-762,-752,-1036,-1452,-1029,-623,-644,-633,-251,-322,-415,-645,-911,-1058,-930,-964,-1407,-2181,-1515,1532,2498,718,-681,-1429,-1969,-2207,-2153,-2113,-2078,-1944,-1708,-1444,-1232,-1093,-1022,-990,-952,-895,-842,-751,-682,-630,-566,-505,-540,-647,-685,-639,-575,-555,-503,-469,-395,-262,-175,-90,2,27,74,121,186,279,321,162,-273,486,2813,2996,1513,991,681,-14,-1020,-1253,-766,-113,353,580,687,665,571,474,279,153,342,582,686,641,833,1151,1154,926,525,442,719,669,630,856,971,1069,1011,995,1076,1047,937,808,767,723,735,711,334,-403,315,3202,3787,1963,716,64,-405,-584,-388,-232,-139,-33,50,124
2018-05-14,14:30:39.869,153,129,95,88,132,160,259,399,524,589,581,525,476,364,218,147,123,75,50,66,158,272,290,338,341,296,289,339,399,427,403,-78,-707,1064,5031,4604,2278,584,-587,-1305,-1376,-1068,-818,-622,-438,-324,-253,-193,-243,-238,-225,-257,-242,-164,-56,64,143,211,236,199,110,64,40,11,8,39,90,198,264,276,251,147,-16,-142,-195,-190,-140,-132,-713,-1172,467,3348,2689,1033,71,-364,-595,-505,-364,-336,-329,-328,-312,-315,-312,-280,-283,-250,-242,-210,-153,-93,12,93,140,124,74,-20,-125,-171,-210,-206,-164,-121,-17,37,78,130,94,36,35,78,124,131,87,-443,-593,1186
2018-05-14,14:30:40.906,3175,1931,738,31,-436,-705,-620,-544,-576,-536,-524,-531,-518,-495,-512,-563,-546,-507,-500,-388,-283,-177,-78,-18,15,-44,-149,-184,-280,-367,-422,-486,-441,-284,-163,-90,-9,-14,-25,-6,-23,-13,16,-70,-584,-534,1231,2661,1500,573,-82,-536,-806,-733,-593,-530,-470,-481,-463,-448,-412,-407,-414,-412,-376,-335,-254,-166,-69,-6,-7,-19,-57,-132,-191,-212,-206,-212,-215,-156,-30,19,18,20,6,-44,-66,-52,-41,-63,-235,-865,-733,1374,2834,1577,449,-262,-649,-717,-488,-344,-269,-201,-144,-113,-101,-135,-193,-250,-315,-341,-326,-263,-156,-47,51,116,114,99,61,7,-27,-14,-6,26,106,220
2018-05-14,14:30:41.943,276,304,310,252,188,176,173,178,168,-111,-908,-406,2673,3970,2156,721,-120,-671,-803,-720,-670,-626,-589,-565,-524,-477,-467,-495,-507,-511,-497,-475,-435,-361,-299,-269,-285,-338,-382,-397,-357,-303,-255,-203,-130,-12,133,226,240,241,178,132,137,140,113,87,-233,-1289,-746,3101,5190,3318,1084,-273,-979,-1175,-1097,-990,-907,-814,-744,-714,-699,-687,-684,-708,-732,-698,-650,-556,-430,-330,-247,-192,-166,-148,-105,-43,18,74,104,135,237,377,420,432,385,315,256,218,180,176,145,-265,-943,69,3196,3455,1661,387,-304,-712,-733,-652,-601,-550,-499,-477,-442,-427,-415,-426,-439,-460,-447,-386,-302,-215
2018-05-14,14:30:42.980,-131,-120,-138,-187,-229,-213,-187,-180,-141,-86,-58,17,116,175,207,167,103,77,63,58,60,52,-218,-806,-54,2628,2913,1400,410,-209,-596,-576,-464,-411,-361,-315,-286,-251,-223,-226,-235,-228,-197,-186,-152,-66,7,69,133,147,110,75,80,119,175,220,275,324,378,519,607,648,667,623,563,529,514,508,499,342,-400,-439,2062,4357,2780,1186,282,-328,-520,-443,-396,-373,-343,-326,-330,-322,-353,-397,-427,-462,-509,-505,-478,-413,-368,-326,-333,-414,-474,-471,-434,-378,-310,-261,-237,-211,-125,-43,-2,18,-48,-174,-247,-270,-292,-319,-402,-922,-1738,-185,3966,4154,1737,-63,-1093,-1639,-1720,-1671
2018-05-14,14:30:44.018,-1620,-1569,-1496,-1434,-1376,-1349,-1305,-1283,-1283,-1263,-1229,-1180,-1106,-987,-931,-954,-1018,-1081,-1125,-1117,-1059,-998,-968,-942,-908,-865,-767,-684,-645,-666,-731,-767,-781,-781,-794,-805,-985,-1587,-1215,1346,2530,1074,-67,-729,-1183,-1292,-1167,-1067,-1020,-935,-902,-886,-821,-771,-771,-756,-676,-592,-515,-449,-345,-250,-211,-208,-237,-296,-334,-304,-253,-163,-110,-67,-5,106,226,316,369,356,313,335,346,396,425,403,-98,-495,1056,3771,3350,1827,809,146,-154,-85,9,73,126,179,175,158,145,116,78,27,8,63,107,173,270,358,412,434,408,394,414,462,512,560,588,640,706,851,937,963,949,835,733,700
2018-05-14,14:30:45.055,681,638,620,402,-558,-294,3112,5324,3616,1596,269,-427,-582,-558,-517,-487,-456,-417,-378,-370,-368,-374,-420,-479,-522,-511,-442,-307,-239,-197,-185,-180,-140,-30,72,165,255,341,418,486,566,664,736,772,727,648,607,559,508,483,393,-249,-990,679,4587,4490,2251,594,-304,-733,-708,-629,-573,-518,-486,-462,-429,-394,-419,-426,-434,-410,-368,-298,-219,-171,-152,-138,-158,-200,-220,-162,-117,-73,-30,23,30,52,143,236,311,308,237,167,153,151,141,138,51,-551,-738,1203,3349,2235,929,29,-486,-683,-595,-526,-495,-456,-409,-382,-347,-344,-364,-394,-418,-408,-372,-343,-286,-234,-163,-124,-192,-267
2018-05-14,14:30:46.092,-291,-259,-222,-151,-96,-67,-54,7,136,200,245,249,181,139,139,148,136,123,-47,-733,-567,1871,3576,2166,760,-141,-664,-663,-526,-469,-452,-446,-421,-384,-362,-375,-405,-436,-469,-482,-480,-427,-374,-313,-278,-269,-305,-334,-304,-260,-201,-130,-78,-13,32,106,238,300,335,346,290,221,206,183,178,188,-40,-819,-523,2238,3935,2385,842,-101,-663,-740,-641,-576,-532,-495,-460,-433,-419,-415,-432,-451,-477,-518,-520,-469,-390,-339,-323,-332,-370,-350,-289,-215,-126,-101,-75,-43,-2,46,168,226,249,225,142,86,105,105,74,54,-183,-1119,-792,2713,4880,3032,1063,-220,-928,-1058,-1008,-975,-928,-864
2018-05-14,14:30:47.129,-804,-762,-722,-729,-769,-809,-800,-789,-741,-636,-525,-459,-430,-393,-372,-333,-244,-123,-54,3,65,103,120,177,290,337,378,351,239,183,177,180,161,142,-196,-1047,-349,2997,4210,2336,717,-231,-794,-876,-789,-713,-651,-604,-551,-524,-496,-487,-500,-500,-511,-492,-428,-318,-222,-151,-120,-149,-197,-196,-147,-79,-4,71,126,153,166,228,366,447,484,497,434,381,381,379,365,351,87,-558,13,2733,3555,2036,808,55,-389,-424,-309,-250,-215,-174,-155,-131,-107,-96,-112,-166,-182,-182,-149,-90,-31,-2,12,-22,-50,-70,-60,-19,19,66,112,122,107,113,218,278,304,292,211,117,90,87
2018-05-14,14:30:48.167,69,14,-162,-948,-897,1845,3762,2304,752,-210,-834,-1057,-996,-937,-922,-914,-866,-852,-853,-822,-870,-899,-892,-888,-846,-758,-701,-642,-619,-693,-744,-782,-816,-800,-762,-664,-597,-570,-566,-567,-504,-455,-440,-411,-453,-535,-571,-556,-539,-512,-551,-1132,-1399,574,3127,2173,644,-356,-949,-1152,-1077,-1030,-986,-921,-861,-821,-793,-760,-771,-795,-815,-834,-832,-770,-711,-620,-534,-493,-470,-472,-469,-420,-352,-300,-261,-219,-176,-147,-37,80,142,177,151,97,65,63,68,76,21,-559,-1035,570,3654,3153,1404,172,-570,-769,-636,-567,-527,-455,-385,-340,-326,-332,-339,-357,-392,-407,-407,-380,-307,-209,-132,-93,-70,-50
2018-05-14,14:30:49.204,-13,72,151,230,284,304,304,317,384,483,546,594,580,497,444,462,472,440,369,-77,-810,222,3433,3978,2187,695,-167,-580,-531,-456,-408,-369,-322,-272,-223,-195,-149,-170,-227,-244,-234,-187,-125,-72,-8,-3,-17,-15,36,103,150,183,212,267,285,276,318,440,521,554,543,456,395,376,349,340,327,84,-777,-602,2385,4473,2819,1118,56,-633,-811,-750,-688,-641,-586,-523,-517,-539,-543,-579,-645,-699,-728,-712,-643,-549,-460,-399,-359,-340,-306,-259,-199,-119,-24,-2,31,61,80,144,192,222,229,147,53,13,-8,-1,-15,-116,-723,-984,926,3445,2575,1035,9,-603,-917,-833,-740,-711
