2018-05-16,11:10:24.583,207,192,187,173,62,-629,-897,110,2916,3786,1929,197,-670,-860,-837,-855,-865,-853,-829,-806,-798,-794,-814,-839,-862,-876,-898,-905,-896,-852,-784,-692,-574,-437,-279,-60,136,303,420,493,530,527,506,465,424,383,337,285,237,219,201,185,152,159,151,138,149,141,112,56,0,-13,-125,-325,-259,-125,-35,145,224,224,221,228,193,167,184,92,-589,-1018,-190,2737,3417,1610,142,-554,-680,-664,-693,-703,-695,-690,-680,-677,-693,-703,-721,-751,-779,-810,-834,-827,-781,-709,-617,-510,-386,-223,-34,152,315,438,502,534,535,514,485,456,420,386,349,304,271,270,260,245,237,229,211,208
2018-05-16,11:10:25.620,215,195,145,94,74,-94,-224,-120,-3,125,303,359,366,361,350,330,351,367,137,-548,-734,828,3588,3329,1360,60,-519,-590,-585,-613,-636,-636,-641,-641,-637,-658,-680,-713,-745,-786,-814,-829,-820,-777,-703,-616,-530,-382,-190,32,242,416,545,600,604,599,568,513,465,425,401,365,312,291,279,257,233,228,201,185,173,159,106,35,25,-24,-268,-303,-183,-70,101,201,231,225,195,170,154,158,125,-431,-963,-335,2153,3563,2259,630,-369,-813,-852,-860,-880,-881,-864,-849,-844,-857,-869,-892,-925,-944,-964,-975,-955,-910,-831,-733,-615,-476,-307,-121,58,212,348,423,465,474,445,418
2018-05-16,11:10:26.831,379,335,298,260,223,188,178,162,143,139,135,112,106,99,70,11,-33,-73,-265,-346,-224,-126,18,186,215,211,204,192,178,185,205,-217,-806,-563,1607,3821,2839,852,-329,-768,-803,-803,-812,-817,-803,-778,-775,-767,-756,-772,-799,-822,-845,-851,-833,-794,-730,-639,-533,-411,-241,-42,156,341,482,557,585,592,582,567,519,470,433,391,340,317,283,270,263,260,251,223,211,209,197,139,75,49,-38,-245,-222,-109,-9,178,280,292,275,261,244,224,219,147,-521,-869,-7,2860,3582,1699,123,-585,-702,-705,-718,-727,-734,-722,-709,-713,-714,-711,-715,-751,-781,-807,-806,-796,-753,-678
2018-05-16,11:10:27.869,-588,-484,-356,-189,-9,187,358,485,538,557,555,534,484,437,395,361,320,279,252,228,200,188,187,184,176,148,142,110,46,-3,-25,-220,-331,-239,-132,9,167,217,223,207,194,189,197,212,-158,-763,-609,1431,3830,2809,739,-369,-714,-711,-744,-761,-775,-768,-750,-734,-720,-715,-730,-746,-783,-815,-830,-835,-798,-733,-669,-583,-468,-323,-142,82,288,444,530,577,595,583,551,509,462,417,362,308,267,242,218,208,192,181,167,159,146,146,114,57,-1,-24,-131,-353,-314,-201,-75,98,184,199,192,171,159,146,156,-5,-704,-945,408,3120,3494,1763,234,-617,-880,-894,-901,-899
2018-05-16,11:10:28.906,-898,-883,-865,-864,-871,-887,-920,-950,-970,-994,-1009,-985,-928,-836,-735,-612,-458,-292,-85,114,284,413,479,487,485,461,427,355,315,272,246,213,175,157,154,133,114,115,114,104,85,62,17,-44,-68,-162,-397,-397,-261,-141,61,163,183,169,154,139,133,148,47,-623,-847,262,3048,3818,1890,115,-765,-947,-929,-944,-951,-932,-917,-893,-887,-873,-869,-889,-892,-913,-941,-944,-930,-873,-787,-678,-544,-397,-231,-36,154,331,437,500,548,545,523,473,418,371,333,284,263,238,222,198,192,174,179,170,168,170,153,124,61,11,-14,-186,-331,-239,-124,16,201,252,249,232,216,203
2018-05-16,11:10:29.943,186,207,-136,-786,-675,1241,3786,3057,942,-328,-771,-785,-785,-802,-807,-786,-766,-747,-747,-765,-759,-765,-786,-801,-803,-795,-791,-733,-648,-547,-424,-265,-96,101,291,444,531,591,608,599,553,514,479,442,399,356,327,302,288,274,243,245,254,234,230,218,219,193,104,63,34,-164,-261,-159,-63,97,255,292,290,275,256,237,227,234,-195,-805,-568,1736,3886,2640,673,-368,-668,-685,-705,-719,-721,-714,-698,-670,-649,-662,-681,-693,-696,-721,-769,-768,-724,-661,-583,-471,-364,-209,-13,180,367,540,619,645,658,640,600,555,511,472,424,373,347,329,312,306,282,262,232,198,209,223
2018-05-16,11:10:30.980,197,145,78,39,1,-217,-319,-222,-115,43,186,233,224,216,182,162,171,183,-248,-902,-583,1761,3890,2795,894,-274,-784,-839,-838,-864,-867,-851,-839,-824,-827,-844,-857,-875,-915,-952,-968,-960,-926,-859,-775,-667,-536,-367,-174,31,223,369,459,507,516,500,453,410,372,333,291,252,221,204,187,167,158,136,122,121,112,89,83,60,-26,-55,-108,-330,-392,-273,-169,4,133,174,160,156,141,127,121,78,-449,-908,-194,2453,4023,2482,559,-560,-982,-988,-990,-1007,-995,-968,-943,-937,-949,-952,-958,-978,-999,-1017,-1013,-1006,-952,-870,-769,-653,-502,-314,-135,43,220,352,446,482,494,472
2018-05-16,11:10:32.017,438,399,350,313,277,247,241,216,195,185,185,174,155,148,141,120,99,45,-10,-31,-208,-353,-259,-155,-13,175,231,233,228,199,170,168,187,-170,-762,-588,1377,3838,3051,893,-388,-820,-832,-833,-852,-865,-838,-820,-803,-785,-780,-778,-794,-830,-842,-845,-848,-809,-736,-643,-540,-436,-288,-99,79,243,381,478,515,522,507,476,449,401,355,324,297,254,239,229,200,179,176,171,158,161,150,133,84,34,17,-83,-297,-274,-142,-43,147,241,259,250,228,211,204,227,156,-484,-844,127,2882,3314,1469,41,-580,-661,-651,-690,-708,-698,-680,-676,-659,-666,-681,-679,-689,-728,-737,-741
2018-05-16,11:10:33.055,-727,-677,-605,-510,-407,-274,-118,61,248,412,526,607,616,623,600,556,512,473,435,406,373,337,314,305,268,257,256,229,223,213,183,118,70,58,-119,-256,-187,-94,43,198,241,245,251,219,189,196,218,-104,-815,-817,1169,3662,2896,1034,-175,-746,-835,-836,-864,-867,-849,-847,-842,-855,-874,-894,-904,-926,-960,-989,-1001,-973,-916,-825,-714,-584,-425,-233,-28,172,323,405,450,476,462,432,381,334,289,252,211,168,159,140,127,109,87,85,73,61,43,9,-42,-59,-208,-383,-311,-182,-52,133,200,214,211,200,202,198,216,-65,-684,-606,1335,3815,3190,1230,-85,-707,-779,-758
2018-05-16,11:10:34.092,-776,-794,-775,-734,-717,-696,-707,-717,-725,-746,-767,-777,-769,-724,-654,-545,-422,-289,-109,65,247,427,574,657,689,705,699,671,619,576,532,500,462,415,391,370,351,326,328,324,302,285,240,177,135,87,-119,-181,-74,30,179,343,379,356,321,298,282,284,251,-318,-721,-35,2617,3971,2243,342,-581,-791,-773,-798,-828,-815,-802,-802,-786,-783,-786,-807,-822,-853,-883,-901,-895,-861,-784,-699,-589,-458,-298,-107,71,243,358,426,454,465,436,386,337,293,258,224,169,145,142,126,111,90,76,64,56,45,21,-34,-66,-119,-323,-360,-238,-136,43,172,196,183,166,155,131,160
2018-05-16,11:10:35.129,136,-511,-855,-44,2723,3506,1614,20,-695,-819,-816,-840,-841,-827,-811,-806,-791,-770,-774,-805,-820,-845,-872,-887,-863,-833,-759,-665,-556,-411,-245,-58,146,318,421,474,508,506,472,431,382,334,301,259,236,207,183,154,148,149,153,147,141,131,110,54,13,-6,-191,-314,-225,-97,51,224,294,302,280,258,252,259,283,-122,-730,-455,1818,3919,2647,662,-389,-716,-724,-732,-753,-753,-745,-739,-729,-727,-716,-745,-772,-793,-821,-846,-856,-835,-760,-691,-586,-455,-298,-104,114,312,454,542,571,581,562,537,493,435,387,329,311,287,243,211,199,187,180,175,180,163,127,98,29,-25
2018-05-16,11:10:36.166,-36,-237,-381,-301,-186,-45,101,160,168,174,159,131,124,117,-324,-970,-606,1744,3670,2626,901,-245,-824,-927,-922,-925,-917,-910,-893,-890,-890,-889,-914,-935,-957,-982,-996,-995,-959,-880,-781,-672,-523,-341,-149,54,242,374,434,479,491,472,434,382,354,319,282,235,215,194,169,149,147,141,142,142,141,133,122,75,6,-10,-135,-349,-278,-153,-40,140,201,199,192,172,132,127,146,-176,-803,-666,1278,3788,3216,1118,-247,-824,-872,-861,-873,-875,-870,-849,-834,-828,-840,-846,-855,-876,-908,-927,-919,-886,-836,-743,-624,-495,-336,-130,85,277,425,528,571,580,568,539,484,439,410,366
2018-05-16,11:10:37.203,323,293,259,235,220,212,195,180,176,158,151,153,153,112,38,7,-63,-286,-288,-161,-73,101,225,242,218,201,182,179,192,85,-594,-893,103,2892,3648,1763,106,-639,-777,-776,-800,-805,-799,-784,-786,-765,-768,-782,-776,-787,-824,-850,-855,-840,-792,-735,-653,-551,-413,-239,-39,153,339,457,531,573,574,562,526,482,434,385,350,312,284,265,247,232,210,193,195,175,172,167,160,142,101,39,17,-56,-272,-284,-168,-71,89,198,223,203,186,160,168,183,166,-457,-895,-217,2437,3578,1925,260,-545,-730,-719,-746,-752,-744,-733,-714,-700,-697,-714,-733,-758,-782,-807,-802,-784,-752
2018-05-16,11:10:38.241,-685,-615,-509,-383,-218,-32,160,353,492,561,577,588,572,534,485,449,405,370,324,295,269,248,230,235,240,214,195,182,184,181,175,175,129,69,15,-22,-217,-265,-138,-48,127,244,273,264,249,233,229,216,209,-293,-863,-421,2118,3859,2476,658,-357,-722,-742,-748,-757,-751,-744,-730,-722,-734,-741,-752,-772,-817,-843,-857,-872,-840,-797,-711,-604,-494,-324,-132,90,297,465,563,611,618,610,574,523,487,448,398,355,312,272,253,249,226,216,197,186,178,162,145,128,115,75,16,-7,-121,-340,-290,-176,-72,110,183,178,172,157,139,125,121,5,-704,-1040,141,2932,3506
2018-05-16,11:10:39.278,1819,327,-545,-867,-888,-891,-910,-905,-900,-873,-870,-876,-879,-898,-941,-966,-978,-998,-993,-933,-855,-766,-629,-466,-270,-61,144,320,442,508,515,517,495,463,413,363,312,277,248,224,204,173,159,145,138,137,122,116,104,106,93,51,-9,-46,-127,-338,-294,-180,-94,93,179,188,198,190,164,150,173,55,-582,-839,167,2992,3993,2062,229,-695,-893,-883,-897,-919,-910,-886,-872,-853,-862,-865,-865,-889,-921,-924,-920,-923,-893,-813,-718,-601,-449,-267,-52,145,323,475,554,597,597,574,531,487,451,417,366,331,315,297,268,255,247,237,228,211,184,190,175,153,123,44,13,-36
2018-05-16,11:10:40.315,-280,-307,-184,-89,104,212,235,220,204,180,164,182,139,-394,-848,-348,2081,3773,2317,422,-530,-762,-759,-790,-806,-808,-801,-785,-788,-774,-764,-772,-787,-815,-828,-849,-835,-807,-743,-656,-568,-440,-274,-88,110,284,420,516,563,566,552,521,474,450,394,348,329,287,261,240,223,221,214,204,188,169,165,161,156,110,28,9,-59,-290,-288,-175,-95,117,221,241,233,230,214,205,224,193,-389,-805,-112,2502,3755,2085,325,-518,-722,-713,-733,-745,-736,-713,-711,-692,-685,-684,-704,-728,-758,-783,-788,-779,-754,-708,-630,-537,-433,-266,-56,155,354,511,587,612,630,609,569,511,467,420
2018-05-16,11:10:41.352,384,354,326,303,276,255,239,221,198,187,176,175,170,142,94,44,2,-121,-313,-283,-179,-69,129,216,222,224,198,180,177,193,46,-668,-951,426,3141,3412,1761,292,-549,-849,-865,-873,-877,-874,-864,-869,-859,-858,-869,-886,-906,-935,-968,-973,-958,-903,-811,-710,-579,-435,-266,-67,118,269,394,457,479,490,466,427,396,345,311,289,260,233,215,189,188,183,184,164,152,142,117,99,71,10,-25,-70,-288,-354,-223,-132,27,172,204,197,181,168,154,161,158,-404,-864,-267,2342,3977,2444,502,-551,-855,-854,-868,-869,-870,-866,-835,-828,-825,-827,-846,-871,-881,-894,-909,-883,-866
2018-05-16,11:10:42.389,-796,-701,-578,-442,-294,-123,70,234,374,471,490,491,479,438,401,366,331,286,259,226,200,195,184,183,160,138,135,140,124,120,103,54,-8,-29,-122,-329,-314,-223,-123,90,182,200,197,185,167,163,170,120,-529,-877,-30,2836,3584,1712,116,-622,-735,-730,-755,-763,-751,-739,-737,-734,-729,-727,-736,-756,-777,-797,-805,-788,-734,-648,-557,-450,-326,-168,4,174,350,477,539,569,564,535,504,446,402,364,333,302,287,262,241,251,243,240,237,230,218,213,209,177,132,72,58,-84,-294,-227,-104,10,188,265,271,246,232,213,201,223,71,-591,-866,339,3125,3282,1349,-20
2018-05-16,11:10:43.427,-609,-667,-678,-717,-711,-708,-705,-708,-699,-707,-707,-704,-725,-756,-771,-762,-738,-689,-609,-532,-422,-284,-126,52,250,413,524,600,628,609,585,552,504,458,431,414,386,346,317,285,268,261,247,231,218,215,209,183,148,71,22,-8,-221,-316,-203,-100,55,194,249,242,210,200,194,185,190,-261,-939,-618,1705,3653,2623,924,-167,-697,-760,-757,-804,-817,-801,-790,-789,-787,-785,-797,-834,-863,-899,-930,-932,-901,-841,-743,-634,-516,-357,-159,43,227,371,460,505,504,483,445,408,367,323,265,226,196,172,146,114,108,92,82,57,52,45,25,-2,-51,-108,-130,-281,-464,-397,-290
2018-05-16,11:10:44.464,-162,24,85,92,85,69,59,55,76,-196,-864,-876,907,3485,3192,1316,-76,-795,-947,-932,-941,-935,-916,-894,-893,-890,-879,-890,-898,-918,-943,-975,-968,-928,-864,-762,-656,-517,-331,-139,60,246,399,509,565,587,583,570,536,485,448,402,372,353,329,304,278,259,249,248,244,246,242,230,220,189,130,91,26,-192,-219,-103,-15,160,299,314,309,308,290,256,248,204,-370,-820,-192,2429,3967,2371,476,-507,-769,-776,-800,-827,-830,-814,-797,-775,-771,-782,-792,-812,-824,-833,-850,-850,-801,-728,-648,-550,-423,-262,-78,117,312,452,529,583,574,545,503,450,402,372,349,295,259,226
2018-05-16,11:10:45.501,199,188,187,174,173,170,148,137,127,107,55,-5,-25,-119,-336,-316,-199,-97,84,167,173,164,149,133,110,117,59,-619,-966,-181,2573,3464,1684,82,-653,-788,-792,-821,-829,-828,-815,-793,-792,-793,-799,-816,-844,-870,-890,-900,-900,-852,-780,-684,-580,-451,-272,-86,116,295,419,499,527,523,490,451,422,394,362,316,281,242,221,200,192,184,172,168,165,157,146,120,127,104,37,0,-28,-220,-345,-243,-146,-6,167,206,211,216,199,184,181,188,-104,-774,-828,957,3513,2889,951,-210,-639,-669,-662,-685,-690,-689,-684,-664,-665,-676,-688,-705,-736,-765,-771,-770,-757,-710,-643,-558
2018-05-16,11:10:46.538,-455,-303,-117,79,283,435,529,587,605,593,555,516,474,427,382,341,284,246,242,216,193,186,170,142,140,139,129,106,77,12,-41,-66,-234,-360,-259,-147,-8,150,199,193,188,167,144,154,163,-152,-863,-845,1108,3684,3053,1216,-31,-669,-820,-816,-828,-832,-830,-817,-795,-797,-808,-830,-843,-866,-909,-926,-927,-913,-868,-781,-671,-528,-356,-160,40,243,403,509,554,557,533,504,454,401,349,304,256,225,205,187,152,136,137,122,106,92,102,99,85,53,-23,-71,-105,-308,-390,-252,-141,14,168,212,199,182,162,164,151,105,-397,-898,-470,2027,4171,2812,752,-433,-890,-917
2018-05-16,11:10:47.575,-914,-929,-914,-899,-885,-870,-849,-847,-868,-895,-913,-939,-941,-939,-917,-851,-746,-617,-470,-278,-49,167,349,491,594,624,633,616,585,547,482,439,400,359,329,292,258,236,213,210,204,184,172,174,151,115,37,-3,-33,-264,-299,-156,-72,106,235,258,240,230,205,186,190,172,-368,-855,-388,2119,3871,2377,451,-510,-757,-734,-751,-769,-759,-757,-744,-759,-766,-773,-771,-784,-806,-836,-835,-832,-812,-756,-667,-564,-430,-267,-84,113,293,425,500,531,523,509,479,426,381,354,312,275,234,213,176,156,144,131,120,128,123,119,103,61,12,-1,-152,-352,-271,-150,-44,142,201,188
2018-05-16,11:10:48.613,201,174,145,145,181,21,-669,-944,342,3053,3058,1190,-111,-630,-664,-660,-691,-697,-700,-683,-671,-654,-661,-686,-695,-706,-728,-753,-750,-713,-660,-588,-490,-367,-237,-61,139,315,474,582,640,661,659,620,562,514,487,443,405,382,358,334,324,303,282,277,268,254,244,226,168,90,89,-20,-243,-210,-85,-6,171,254,270,256,231,202,196,228,157,-558,-966,104,2989,3551,1754,212,-562,-773,-791,-815,-834,-832,-803,-788,-794,-803,-810,-839,-867,-887,-915,-929,-919,-873,-793,-694,-577,-423,-234,-23,210,389,507,578,603,583,546,503,462,416,373,327,275,251,223,189,178,157,138,129
2018-05-16,11:10:49.650,126,105,73,0,-34,-90,-311,-394,-290,-192,-42,89,111,89,83,71,47,39,24,-448,-1037,-629,1854,3772,2440,603,-525,-1045,-1105,-1105,-1120,-1132,-1105,-1087,-1093,-1093,-1103,-1116,-1119,-1145,-1153,-1163,-1160,-1113,-1023,-923,-790,-627,-432,-214,-9,169,309,379,409,423,401,373,342,291,253,227,201,177,176,163,166,173,152,149,152,140,103,45,39,-81,-294,-218,-77,35,251,342,349,367,354,345,344,371,206,-449,-556,809,3640,3761,1640,106,-531,-594,-577,-596,-607,-576,-569,-547,-525,-515,-508,-514,-528,-546,-562,-562,-532,-472,-398,-316,-191,-25,168,373,577,751,840,896,912,893,863,810
2018-05-16,11:10:50.687,755,689,644,620,588,561,524,514,484,450,437,425,417,372,303,277,220,-6,-66,32,127,291,427,451,421,409,372,342,348,368,-153,-683,-342,2124,3683,2232,481,-416,-660,-675,-724,-757,-765,-754,-755,-765,-764,-775,-801,-840,-887,-895,-921,-919,-896,-833,-742,-642,-518,-343,-162,31,211,347,415,430,426,417,384,324,285,250,206,155,110,89,63,53,57,40,10,-5,-45,-113,-126,-192,-412,-429,-307,-195,-19,94,122,109,85,67,63,82,66,-515,-893,-223,2608,3453,1535,-87,-819,-937,-927,-944,-949,-930,-905,-890,-890,-891,-901,-920,-934,-954,-977,-979,-947,-893,-816,-712,-601,-458
2018-05-16,11:10:51.724,-275,-90,99,268,374,437,474,466,433,401,364,324,274,235,216,191,157,129,123,129,114,101,74,9,-4,-49,-285,-353,-232,-127,39,160,196,194,185,161,133,158,192,-290,-804,-333,2178,3426,1866,241,-569,-755,-733,-750,-779,-788,-781,-769,-773,-786,-802,-812,-827,-840,-862,-871,-862,-822,-727,-647,-555,-425,-259,-68,99,248,362,427,456,459,442,405,349,319,287,252,235,222,203,194,181,170,162,148,107,53,56,-44,-268,-259,-137,-28,159,244,249,249,226,195,182,229,157,-471,-838,285,2934,3010,1246,-12,-575,-654,-662,-695,-706,-691,-689,-680,-672,-681,-705,-721,-740,-760
2018-05-16,11:10:52.761,-774,-785,-762,-708,-628,-528,-410,-251,-78,105,268,398,498,557,569,569,538,495,462,414,373,352,317,297,288,270,238,233,214,166,119,95,82,-122,-256,-164,-43,108,260,319,306,290,290,270,261,291,-142,-736,-401,2027,3856,2462,654,-351,-714,-739,-757,-786,-786,-789,-789,-784,-783,-788,-823,-856,-887,-902,-916,-913,-883,-819,-723,-608,-464,-276,-66,144,325,462,539,559,557,538,492,445,397,354,317,273,240,225,200,185,151,140,140,103,56,30,-23,-262,-342,-221,-107,56,188,230,211,185,176,176,204,148,-469,-862,141,2886,3674,1923,300,-580,-866,-873,-885,-899,-887,-880
2018-05-16,11:10:53.799,-869,-866,-866,-864,-889,-911,-929,-940,-943,-936,-886,-795,-682,-553,-391,-203,-4,179,344,455,497,512,504,468,408,374,328,289,252,226,201,193,175,150,146,150,143,93,27,14,-100,-320,-288,-145,-30,161,249,249,243,213,195,193,231,-56,-692,-644,1249,3703,2895,869,-324,-764,-790,-782,-809,-810,-785,-783,-778,-769,-768,-779,-799,-820,-850,-869,-863,-831,-771,-678,-574,-456,-288,-94,107,283,423,511,537,531,505,474,435,392,348,306,288,262,234,213,194,181,181,171,163,113,57,62,-31,-268,-241,-98,-11,174,265,270,258,242,222,214,264,99,-538,-757,603,3334,2995,1013
2018-05-16,11:10:54.836,-201,-666,-699,-689,-702,-717,-718,-702,-704,-698,-695,-714,-738,-761,-786,-805,-794,-757,-693,-607,-521,-412,-260,-77,109,301,430,505,552,565,547,520,477,422,382,346,322,298,265,248,245,238,230,219,196,178,135,85,75,-89,-276,-191,-46,80,251,315,308,288,266,261,278,312,-88,-630,-387,1860,3670,2369,589,-358,-648,-644,-651,-671,-679,-683,-667,-648,-649,-670,-684,-696,-731,-751,-770,-773,-732,-680,-589,-491,-380,-219,-27,206,399,520,575,605,617,586,534,506,456,403,358,318,280,262,228,212,201,193,186,165,149,123,56,20,-43,-263,-308,-188,-75,76,192,237,219,198
2018-05-16,11:10:55.873,184,185,220,45,-692,-910,614,3246,3201,1527,190,-555,-803,-830,-845,-861,-853,-837,-835,-844,-869,-883,-895,-925,-957,-959,-955,-939,-892,-786,-664,-539,-380,-198,16,212,361,463,507,518,496,467,428,380,335,298,261,229,199,167,152,146,118,108,118,95,41,-23,-34,-131,-360,-344,-202,-106,85,177,180,172,142,132,134,158,-84,-760,-785,992,3839,3279,1136,-207,-818,-910,-905,-922,-916,-902,-880,-869,-866,-867,-872,-892,-921,-939,-962,-958,-923,-859,-757,-648,-522,-362,-152,51,236,372,463,501,513,494,459,421,382,343,302,265,233,202,183,179,159,141,146,157,157,108,47,29
2018-05-16,11:10:56.910,-35,-279,-300,-155,-60,126,252,280,274,258,241,235,250,94,-568,-783,432,3233,3428,1447,39,-585,-682,-686,-696,-695,-697,-691,-677,-670,-668,-690,-709,-716,-743,-758,-752,-730,-681,-603,-508,-392,-239,-59,132,330,492,594,644,645,626,608,567,525,478,440,393,356,316,291,279,266,254,247,229,230,192,130,97,63,-146,-278,-142,-46,78,234,283,269,247,234,228,230,237,-270,-795,-431,2034,3460,2020,406,-410,-631,-632,-664,-676,-677,-682,-679,-680,-692,-699,-709,-727,-759,-779,-803,-778,-732,-664,-583,-476,-340,-180,10,215,387,499,567,594,574,537,514,459,403,369,334,294,271
2018-05-16,11:10:57.947,249,229,212,182,182,177,172,157,125,69,30,-2,-204,-338,-239,-136,-7,176,230,210,187,166,166,174,214,-311,-919,-510,2102,3771,2315,511,-428,-746,-782,-814,-831,-837,-824,-822,-824,-823,-838,-859,-883,-909,-939,-956,-947,-910,-855,-757,-644,-514,-342,-109,128,326,472,543,566,586,564,509,452,409,373,336,293,263,231,214,197,175,157,139,120,103,65,12,0,-86,-326,-341,-199,-107,53,163,185,177,155,143,128,159,10,-714,-924,535,3240,3302,1594,198,-606,-867,-877,-882,-887,-898,-889,-867,-852,-855,-872,-895,-916,-935,-967,-974,-933,-869,-788,-673,-539,-361,-157,33,218,371
2018-05-16,11:10:58.984,467,511,519,505,452,395,358,330,289,248,207,187,166,126,112,112,100,88,91,69,0,-49,-82,-285,-395,-273,-172,-18,142,180,169,168,156,148,138,79,-509,-886,-146,2554,4029,2289,323,-661,-903,-887,-923,-952,-937,-903,-880,-869,-874,-872,-868,-901,-928,-951,-967,-941,-886,-815,-706,-574,-423,-252,-39,173,346,462,536,561,551,533,490,437,389,361,333,289,265,249,221,209,204,204,202,185,170,124,73,48,-96,-299,-209,-94,-8,181,262,260,254,224,222,211,247,-32,-677,-729,1008,3594,2942,888,-321,-742,-756,-767,-802,-794,-761,-757,-750,-740,-745,-767,-765,-775,-813,-838
2018-05-16,11:11:00.022,-837,-801,-746,-655,-553,-426,-280,-85,115,291,425,515,558,558,542,505,457,419,387,345,326,296,263,243,229,225,208,189,191,181,141,81,47,-24,-256,-298,-156,-64,123,241,268,257,232,220,210,228,203,-389,-814,-98,2746,3417,1533,48,-600,-683,-673,-710,-709,-706,-694,-689,-701,-714,-716,-719,-744,-777,-790,-776,-758,-713,-651,-551,-435,-305,-124,71,266,408,515,566,575,571,544,494,450,413,380,351,314,291,272,259,255,241,207,207,214,177,119,83,83,-90,-284,-196,-75,45,220,268,273,269,250,235,241,271,-106,-785,-651,1528,3742,2740,883,-210,-677,-743,-739,-747
2018-05-16,11:11:01.059,-759,-755,-755,-749,-752,-777,-807,-815,-850,-875,-895,-889,-863,-807,-726,-607,-487,-324,-113,113,318,457,545,580,582,560,516,465,423,375,327,293,269,245,219,199,184,176,161,156,133,88,40,13,-77,-313,-303,-186,-76,124,207,212,195,182,167,173,198,-21,-698,-799,849,3455,3207,1367,26,-686,-863,-858,-864,-877,-877,-868,-848,-840,-854,-864,-886,-919,-957,-963,-956,-925,-845,-758,-659,-513,-327,-132,68,247,374,466,523,530,516,479,434,399,354,314,277,250,227,196,176,163,159,148,144,131,91,35,-1,-40,-262,-360,-217,-113,39,187,222,211,209,200,182,163,131,-513
2018-05-16,11:11:02.096,-879,-59,2872,3888,1953,175,-663,-835,-836,-850,-869,-860,-840,-824,-813,-808,-814,-829,-846,-856,-866,-882,-872,-816,-725,-624,-510,-358,-179,9,210,359,472,541,557,560,518,466,429,406,365,315,278,250,228,211,199,185,173,175,169,160,126,57,23,-65,-282,-259,-125,-36,157,261,286,282,261,239,231,252,88,-555,-804,373,3228,3337,1307,-73,-651,-696,-702,-724,-741,-734,-722,-709,-715,-716,-706,-729,-758,-779,-802,-801,-775,-716,-620,-521,-406,-251,-67,139,335,487,587,624,619,598,571,541,480,430,388,355,313,289,262,235,224,228,213,208,185,163,111,51,54,-86,-298,-225
2018-05-16,11:11:03.133,-101,-1,192,258,267,251,211,189,204,233,-47,-696,-767,992,3442,2816,879,-272,-697,-718,-722,-755,-769,-750,-735,-739,-740,-738,-751,-761,-788,-811,-820,-796,-755,-701,-619,-509,-387,-249,-66,132,306,451,534,567,562,546,530,475,411,359,324,287,253,231,200,187,188,174,163,152,152,129,71,19,2,-155,-327,-232,-119,2,182,242,252,230,206,188,193,238,-124,-769,-665,1487,3695,2695,789,-316,-741,-781,-795,-825,-827,-804,-791,-778,-777,-793,-811,-840,-882,-901,-912,-926,-898,-835,-751,-643,-513,-363,-136,94,299,439,525,560,576,550,500,451,417,380,321,287,265,249,212,183
2018-05-16,11:11:04.170,178,156,136,142,155,118,56,6,-24,-198,-345,-262,-155,-17,132,203,198,182,178,158,143,153,-269,-969,-723,1641,3791,2693,978,-169,-769,-897,-912,-913,-899,-887,-884,-877,-883,-889,-906,-933,-964,-1005,-1026,-1016,-996,-919,-802,-680,-531,-351,-129,95,302,447,510,534,524,525,488,431,399,360,311,276,249,216,186,162,143,133,142,131,108,58,-8,-41,-104,-328,-375,-254,-161,24,159,186,173,163,152,146,161,68,-557,-828,222,3020,3934,1994,151,-749,-958,-949,-958,-977,-963,-944,-921,-891,-877,-879,-893,-919,-956,-978,-993,-965,-910,-822,-714,-586,-416,-201,30,237,399,515,572,590
2018-05-16,11:11:05.208,581,564,529,478,434,371,326,300,263,236,232,199,191,196,196,186,171,129,75,52,-77,-272,-214,-101,-6,205,270,275,275,259,231,223,225,-16,-696,-763,883,3541,3314,1288,-126,-740,-828,-824,-843,-847,-847,-829,-812,-808,-812,-829,-837,-867,-894,-922,-928,-895,-833,-746,-642,-519,-344,-119,91,279,436,541,587,613,611,580,535,503,482,443,407,389,367,331,287,285,270,251,238,215,200,153,96,73,-91,-269,-180,-54,60,233,287,288,277,259,240,235,271,-31,-715,-791,1129,3349,2675,1032,-5,-491,-556,-553,-558,-553,-550,-539,-539,-544,-560,-568,-602,-625,-643,-657,-667,-630
2018-05-16,11:11:28.020,422,641,784,832,839,835,807,732,658,620,538,434,359,314,250,177,85,11,-51,-91,-120,-120,-114,-99,-86,-76,-100,-270,-334,-242,-151,-29,65,91,103,100,97,76,68,64,-117,-642,-728,282,2891,3335,1836,598,-70,-546,-689,-707,-752,-803,-852,-905,-975,-1053,-1115,-1185,-1230,-1275,-1305,-1300,-1300,-1263,-1186,-1077,-934,-743,-508,-236,16,248,364,409,387,298,179,96,33,-16,-47,-46,-33,-18,5,31,77,105,130,167,192,230,288,329,356,418,456,332,344,474,577,716,821,833,805,772,730,679,633,579,301,-265,-384,967,3075,2820,1484,434,-220,-606,-672,-688,-718,-728,-707,-700
2018-05-16,11:11:29.057,-712,-728,-761,-790,-843,-896,-976,-1065,-1139,-1187,-1188,-1117,-980,-766,-474,-164,135,395,587,695,742,738,695,648,607,546,478,426,358,294,244,230,219,205,232,253,287,308,325,339,331,353,236,31,43,147,208,275,318,275,220,168,95,38,-12,-117,-666,-1009,-551,1914,3366,2188,773,-179,-811,-1070,-1086,-1125,-1185,-1251,-1317,-1384,-1426,-1459,-1478,-1474,-1455,-1422,-1393,-1355,-1314,-1234,-1130,-984,-783,-531,-213,161,510,803,1028,1185,1272,1290,1267,1237,1182,1112,1049,975,903,833,783,744,680,630,601,530,493,454,372,305,240,16,-151,-104,-23,67,168,228,234,191,139,133,117,55,-129,-758
2018-05-16,11:11:29.645,-912,199,2786,3204,1694,327,-587,-1124,-1238,-1190,-1155,-1114,-1073,-1060,-1053,-1067,-1093,-1122,-1160,-1196,-1214,-1236,-1243,-1218,-1145,-1023,-856,-639,-352,-35,264,533,734,841,904,896,876,828,753,674,603,536,445,343,273,206,161,100,24,-1,3,18,9,-34,-17,-58,-261,-309,-236,-209,-122,-54,-59,-125,-185,-254,-298,-340,-391,-710,-1233,-1163,295,2845,2572,980,-77,-620,-889,-884,-891,-865,-809,-738,-671,-599,-534,-491,-441,-408,-402,-391,-385,-350,-299,-246,-163,-71,74,262,438,647,818,912,910,885,846,762,688,630,584,527,489,468,403,350,328,297,246,209,180,156,104,23,-60,-138,-333,-478
2018-05-16,11:11:30.682,-408,-298,-171,22,95,115,139,153,146,144,135,-6,-542,-749,-97,2283,2977,1699,512,-102,-517,-600,-562,-548,-531,-505,-486,-487,-511,-538,-606,-680,-729,-810,-863,-919,-978,-969,-949,-894,-761,-556,-290,0,243,418,531,560,560,538,504,412,343,242,133,32,-57,-133,-192,-219,-255,-247,-197,-148,-131,-130,-111,-99,-224,-304,-191,-52,88,239,304,361,425,453,468,486,515,369,-214,-330,796,3124,3453,2092,911,155,-316,-456,-472,-491,-524,-556,-570,-608,-655,-692,-733,-776,-798,-835,-884,-898,-895,-877,-818,-719,-581,-364,-112,130,340,447,473,461,409,343,275,223,198,184,159,156,136,123
2018-05-16,11:11:31.719,129,111,91,101,75,44,30,-3,-3,-40,-213,-278,-165,-39,105,223,280,331,345,362,332,317,295,89,-551,-809,408,2942,2773,1358,253,-456,-943,-1048,-1060,-1056,-1054,-1024,-1001,-978,-982,-1007,-1065,-1119,-1189,-1279,-1360,-1448,-1484,-1471,-1396,-1247,-1012,-716,-394,-71,227,403,498,567,598,587,564,522,515,532,541,565,610,628,649,669,685,702,714,704,667,633,603,570,382,248,288,375,480,547,533,468,423,370,309,262,224,0,-543,-608,620,2852,2802,1457,365,-308,-709,-769,-785,-831,-862,-866,-899,-942,-1015,-1085,-1124,-1158,-1170,-1167,-1131,-1039,-926,-783,-633,-477,-289,-97,129,346,536,659
2018-05-16,11:11:32.756,721,713,688,646,572,500,441,406,375,367,341,321,326,342,340,345,323,274,216,155,104,-11,-282,-343,-256,-188,-88,-25,-25,-41,-61,-61,-68,-95,-177,-641,-1066,-761,1370,3191,2229,656,-416,-1080,-1362,-1354,-1308,-1247,-1168,-1082,-1029,-1013,-980,-993,-1021,-1057,-1102,-1099,-1097,-1037,-935,-775,-570,-335,-55,272,612,900,1121,1247,1287,1293,1270,1200,1110,1045,996,937,866,783,694,599,527,470,404,366,325,283,227,184,131,-60,-150,-45,35,119,211,226,198,158,81,-3,-57,-111,-479,-1011,-824,814,3160,2923,1385,204,-497,-869,-939,-943,-973,-973,-952,-935,-921,-932,-945,-944,-943,-952,-971,-976
2018-05-16,11:11:33.793,-925,-873,-780,-660,-514,-330,-97,123,358,533,635,675,650,594,508,419,351,291,248,199,184,173,159,129,100,94,75,26,-32,-90,-189,-258,-470,-732,-758,-677,-611,-475,-395,-333,-266,-225,-204,-155,-110,-176,-580,-735,-203,2174,3613,2391,935,175,-312,-425,-418,-428,-423,-411,-394,-405,-434,-454,-483,-525,-552,-585,-643,-662,-668,-660,-591,-554,-470,-272,-65,164,397,589,685,710,702,689,636,563,486,392,312,232,160,95,47,12,1,-7,5,21,28,24,70,35,-152,-135,-8,94,217,276,271,240,214,171,138,136,87,-303,-712,-613,1296,3217,2472,1083,296,-186,-397,-403,-419,-471
2018-05-16,11:11:34.831,-525,-548,-626,-700,-780,-868,-964,-1040,-1150,-1224,-1257,-1245,-1224,-1154,-1029,-903,-707,-453,-162,101,266,357,356,309,240,153,72,14,-9,9,29,41,71,113,135,157,165,164,166,144,101,122,43,-83,21,218,405,603,702,735,755,753,727,699,689,549,-29,-301,488,2885,3755,2485,1164,253,-345,-553,-581,-631,-673,-701,-699,-708,-742,-764,-799,-828,-864,-927,-981,-1010,-1010,-997,-943,-864,-769,-584,-313,-24,213,401,513,571,573,557,518,460,396,339,291,263,237,200,178,164,157,164,175,163,133,133,36,-135,-122,-7,102,202,259,283,265,216,166,108,63,-105,-775,-1104,-278,2542
2018-05-16,11:11:35.868,3291,1822,465,-355,-918,-1068,-1059,-1055,-1050,-1050,-1081,-1122,-1192,-1267,-1371,-1478,-1556,-1615,-1614,-1577,-1501,-1334,-1151,-936,-676,-367,-55,236,472,647,756,814,840,852,866,876,884,879,861,830,803,772,736,701,663,634,593,527,476,439,288,40,24,100,133,237,296,279,258,229,192,193,193,45,-483,-684,138,2544,3356,1963,522,-329,-899,-1081,-1126,-1151,-1158,-1141,-1083,-1032,-970,-922,-889,-877,-877,-871,-881,-901,-886,-844,-787,-691,-570,-385,-137,127,364,540,646,730,782,785,782,776,756,739,700,634,585,538,480,412,329,252,176,75,-10,-60,-259,-443,-373,-251,-163,-26,25,29,28,-9
2018-05-16,11:11:36.905,-45,-88,-157,-495,-1171,-1318,99,2602,2352,687,-433,-1028,-1249,-1170,-1072,-978,-879,-798,-755,-729,-715,-730,-723,-726,-690,-647,-598,-551,-468,-365,-262,-118,44,241,463,681,858,979,1047,1065,1015,942,876,796,713,640,539,464,426,379,355,321,331,307,271,207,167,31,-157,-164,-111,-59,32,31,-25,-80,-123,-157,-142,-129,-263,-743,-763,125,2536,3353,1929,581,-160,-612,-726,-737,-750,-771,-770,-762,-766,-779,-776,-776,-774,-777,-770,-771,-790,-778,-746,-649,-585,-477,-261,-31,208,437,591,644,620,567,500,436,370,326,298,264,204,147,123,95,30,-27,-98,-201,-352,-440,-597,-840,-820,-655
2018-05-16,11:11:37.942,-536,-330,-187,-109,-60,-23,-9,-24,-35,-162,-729,-955,-95,2450,3529,2312,1020,236,-236,-374,-356,-322,-329,-331,-324,-347,-372,-405,-416,-448,-505,-592,-675,-711,-746,-761,-741,-655,-539,-377,-131,138,378,581,680,706,697,651,598,524,424,341,276,190,86,-31,-104,-149,-172,-159,-140,-111,-97,-58,-112,-260,-227,-106,-2,117,186,197,191,168,144,147,146,59,-429,-590,-45,2415,3301,2055,803,148,-278,-401,-449,-492,-540,-575,-654,-736,-835,-941,-1007,-1062,-1158,-1225,-1282,-1291,-1241,-1197,-1129,-1009,-859,-655,-369,-110,89,226,275,231,135,41,-28,-55,-66,-34,17,59,107,164,216,258,277,292
2018-05-16,11:11:38.979,281,257,213,249,281,136,139,301,476,668,800,843,844,829,804,755,715,652,246,-188,-82,1733,3314,2440,1059,207,-393,-693,-774,-808,-795,-782,-792,-782,-774,-789,-797,-838,-877,-921,-996,-1040,-1063,-1075,-1065,-1016,-905,-715,-447,-131,187,448,628,755,815,828,804,762,697,650,598,542,488,449,402,369,350,331,325,290,246,258,255,65,-25,71,173,283,393,418,371,313,270,210,153,37,-507,-982,-562,1614,3150,2127,755,-196,-789,-1061,-1116,-1122,-1122,-1139,-1138,-1159,-1239,-1289,-1359,-1424,-1476,-1505,-1490,-1455,-1381,-1280,-1144,-994,-815,-589,-333,-55,200,413,578,686,752,825,865,907,951,962
2018-05-16,11:11:40.017,970,974,970,911,879,855,799,739,713,674,617,546,479,289,56,34,95,132,229,265,246,224,209,193,157,143,-60,-655,-663,628,3095,3201,1651,292,-616,-1179,-1315,-1326,-1319,-1282,-1230,-1162,-1094,-1036,-988,-934,-908,-901,-915,-944,-962,-946,-899,-826,-700,-551,-344,-86,220,478,661,775,836,884,876,835,784,708,644,581,500,409,339,268,178,88,54,1,-55,-142,-151,-172,-393,-469,-352,-248,-108,-15,-10,-38,-79,-143,-269,-396,-598,-1158,-1540,-1172,1154,2858,1747,275,-432,-878,-927,-839,-797,-766,-757,-738,-731,-704,-679,-651,-593,-527,-502,-475,-440,-406,-348,-266,-185,-84,31,237,463,663
2018-05-16,11:11:41.054,816,914,950,899,820,763,666,562,495,443,403,384,361,334,324,322,331,329,311,240,159,112,-79,-344,-341,-267,-223,-74,-9,31,70,112,139,161,164,34,-453,-643,-13,2322,2907,1601,441,-174,-578,-635,-629,-614,-584,-530,-464,-431,-413,-410,-431,-444,-456,-515,-572,-590,-630,-672,-677,-664,-603,-511,-372,-170,36,211,341,414,441,445,438,415,398,332,287,208,89,4,-110,-256,-405,-527,-600,-647,-650,-617,-564,-642,-723,-602,-445,-302,-126,-12,51,113,187,281,369,455,304,-152,-87,1196,3526,3542,2158,1025,359,-56,-167,-181,-243,-280,-297,-345,-403,-476,-545,-608,-685,-751,-849,-896
2018-05-16,11:11:42.091,-922,-907,-853,-778,-665,-515,-307,-40,238,465,611,693,694,611,505,392,276,218,166,139,129,138,148,155,142,154,154,137,119,58,8,-13,-152,-324,-271,-144,-21,128,216,265,306,318,304,326,347,163,-442,-662,250,2852,3140,1695,506,-229,-767,-945,-1041,-1113,-1176,-1206,-1218,-1234,-1248,-1223,-1221,-1236,-1251,-1303,-1347,-1389,-1440,-1480,-1494,-1446,-1333,-1112,-795,-449,-122,150,344,473,541,584,600,581,558,532,529,530,528,580,636,686,764,820,852,881,835,776,733,572,361,381,434,526,646,621,591,546,478,419,334,260,9,-576,-747,279,2467,2582,1335,314,-283,-694,-757,-766,-784,-792
2018-05-16,11:11:43.128,-798,-833,-868,-928,-995,-1028,-1067,-1089,-1075,-1043,-989,-867,-727,-574,-423,-257,-48,162,390,561,674,737,749,726,676,603,523,464,432,386,364,362,357,346,354,368,355,345,329,270,221,166,-51,-314,-323,-250,-180,-59,-20,-15,-23,-29,-43,-56,-80,-302,-880,-987,238,2803,2845,1181,-194,-1026,-1531,-1620,-1600,-1533,-1404,-1280,-1181,-1089,-1016,-958,-913,-912,-905,-947,-958,-925,-883,-780,-631,-438,-215,44,354,672,945,1140,1276,1320,1318,1271,1212,1136,1069,998,945,898,804,705,648,603,550,493,458,391,316,285,217,-2,-86,-37,47,156,231,234,199,147,54,-34,-113,-245,-719,-1154,-798,1241
2018-05-16,11:11:44.165,3387,2551,1006,-42,-641,-912,-948,-964,-975,-970,-957,-957,-941,-928,-917,-932,-939,-926,-905,-872,-812,-752,-664,-543,-449,-285,-77,151,349,553,682,719,703,654,567,466,377,295,221,167,127,92,55,29,30,16,-49,-110,-172,-255,-335,-490,-789,-928,-856,-785,-630,-464,-348,-226,-156,-101,-8,52,72,-300,-569,-205,1883,3596,2628,1143,350,-160,-330,-303,-287,-313,-317,-333,-373,-387,-428,-486,-528,-570,-620,-676,-707,-717,-749,-735,-703,-662,-547,-393,-168,71,270,434,538,554,575,586,532,470,421,358,288,186,92,-18,-100,-142,-158,-164,-150,-109,-60,6,32,-105,-152,-15,100,218,313,311
2018-05-16,11:11:45.203,307,246,199,167,128,105,-122,-531,-723,563,2589,2419,1302,531,75,-195,-238,-278,-319,-357,-404,-463,-562,-648,-727,-801,-889,-982,-1043,-1089,-1101,-1095,-1060,-997,-908,-774,-597,-391,-120,78,187,242,231,189,88,-4,-80,-121,-113,-77,-29,-3,27,44,66,87,118,153,139,143,227,304,216,223,427,641,829,992,1049,1045,1022,978,930,872,818,438,-133,-73,1788,3627,2860,1502,479,-201,-555,-653,-701,-742,-742,-734,-756,-799,-795,-821,-862,-903,-959,-980,-1019,-1085,-1097,-1110,-1106,-1048,-898,-665,-378,-66,195,414,555,620,632,596,554,509,459,402,352,308,294,276,250,249,254,247,229,208
2018-05-16,11:11:46.240,210,207,-15,-128,-12,123,231,335,405,398,376,359,317,253,163,-246,-751,-630,1329,3395,2652,1241,142,-582,-993,-1057,-1080,-1121,-1150,-1174,-1236,-1304,-1390,-1469,-1528,-1585,-1615,-1605,-1526,-1457,-1348,-1204,-1048,-840,-618,-373,-123,145,402,583,724,835,893,933,941,944,942,922,889,869,848,805,751,715,695,672,610,521,441,412,266,4,-39,32,61,147,203,208,198,181,147,141,135,-33,-569,-725,118,2525,3289,1860,328,-640,-1220,-1342,-1320,-1303,-1238,-1140,-1058,-982,-940,-900,-888,-874,-879,-889,-922,-966,-983,-935,-856,-753,-605,-426,-173,134,414,617,776,833,848,837,781,715,631,535,428,380
2018-05-16,11:11:47.277,327,193,88,-11,-84,-181,-250,-349,-421,-426,-473,-666,-688,-521,-398,-285,-221,-192,-248,-335,-431,-544,-658,-811,-1304,-1688,-1419,1000,2959,1946,447,-328,-847,-1013,-942,-860,-819,-815,-782,-671,-601,-523,-489,-508,-373,-271,-278,-265,-332,-308,-264,-226,-64,134,350,595,772,965,1097,1146,1109,1040,982,907,841,805,774,743,719,713,693,653,601,559,545,479,354,285,160,-87,-132,-31,49,212,305,356,398,411,413,415,433,367,-88,-442,-130,2062,3797,2668,1028,63,-562,-807,-824,-834,-853,-844,-830,-820,-832,-861,-898,-938,-994,-1036,-1085,-1163,-1199,-1212,-1192,-1139,-1079,-961,-738,-472,-207,45,271,373
2018-05-16,11:11:48.314,455,495,471,438,360,301,206,105,-29,-123,-212,-284,-319,-400,-399,-360,-393,-296,-442,-540,-416,-256,-226,-77,119,67,129,87,113,217,340,118,-365,-216,1349,3820,3701,2148,912,157,-272,-376,-381,-353,-381,-409,-395,-408,-449,-437,-473,-510,-568,-644,-662,-687,-681,-620,-515,-388,-238,-72,185,438,643,776,830,827,778,684,558,443,358,282,244,231,206,201,224,261,289,302,278,224,204,159,-60,-159,-71,14,113,211,244,259,256,253,261,242,238,-13,-546,-712,835,3058,2543,1189,242,-411,-805,-933,-991,-1070,-1112,-1121,-1161,-1179,-1157,-1160,-1184,-1190,-1208,-1208,-1217,-1242,-1210,-1202,-1192,-1158
2018-05-16,11:11:49.351,-1078,-924,-736,-469,-198,22,174,292,405,508,562,582,589,609,609,593,579,612,646,673,696,710,700,685,683,603,366,310,406,487,592,643,628,609,573,518,429,358,228,-280,-655,-188,1906,3149,2109,791,-93,-674,-823,-812,-814,-822,-817,-853,-847,-883,-935,-1006,-1073,-1141,-1193,-1225,-1239,-1186,-1106,-1019,-900,-748,-563,-338,-52,192,383,523,593,621,607,597,547,484,471,470,451,457,469,475,468,433,400,356,293,250,122,-110,-140,-99,-58,-7,-25,-71,-117,-162,-183,-208,-228,-381,-990,-1190,-183,2510,3327,1874,476,-480,-1136,-1409,-1521,-1607,-1655,-1664,-1671,-1658,-1620,-1577,-1498,-1436,-1361,-1314
2018-05-16,11:11:50.388,-1259,-1208,-1134,-995,-847,-679,-459,-165,180,537,874,1147,1305,1386,1440,1424,1371,1320,1252,1185,1113,1027,937,843,778,712,616,531,442,335,246,191,13,-153,-69,72,200,354,422,427,401,376,330,272,169,-196,-787,-755,696,3236,3009,1253,-63,-812,-1130,-1081,-1003,-937,-891,-841,-817,-819,-811,-815,-857,-910,-945,-1007,-1041,-1052,-1034,-959,-835,-703,-528,-271,17,332,594,777,904,964,939,871,801,713,604,496,387,267,182,102,44,-9,-54,-78,-142,-224,-226,-372,-568,-495,-373,-304,-195,-224,-314,-398,-500,-594,-648,-657,-748,-1141,-1180,-264,2284,2882,1473,288,-269,-634,-682,-635,-601,-548,-485,-391
2018-05-16,11:11:51.426,-302,-239,-181,-131,-105,-102,-121,-149,-177,-171,-142,-113,-53,37,169,355,530,694,845,883,817,762,717,647,571,539,515,486,437,415,406,380,346,289,226,125,32,-72,-295,-481,-419,-317,-226,-38,92,155,190,210,212,229,182,0,-571,-681,194,2744,3352,1923,617,-149,-609,-717,-691,-671,-657,-623,-585,-581,-599,-598,-617,-658,-721,-803,-897,-964,-1041,-1058,-1020,-996,-923,-756,-499,-216,47,273,430,507,520,477,394,329,240,123,-31,-156,-288,-401,-489,-578,-632,-656,-679,-671,-628,-741,-732,-547,-386,-219,-62,6,66,105,121,179,260,307,101,-248,-62,1692,4158,3649,1990,824,144,-173
2018-05-16,11:11:52.463,-252,-282,-306,-356,-401,-450,-509,-600,-699,-774,-849,-940,-999,-1003,-1007,-963,-849,-715,-567,-370,-127,137,395,611,723,754,742,682,570,420,327,248,192,153,146,142,169,211,244,274,310,299,290,311,197,10,55,145,220,366,416,423,413,408,392,408,423,346,-177,-403,333,2742,3342,2072,856,118,-383,-567,-668,-774,-851,-902,-923,-948,-942,-935,-939,-944,-954,-973,-1013,-1043,-1065,-1055,-1052,-1052,-1048,-979,-869,-701,-485,-313,-170,-62,32,132,181,181,198,219,223,217,222,250,290,344,397,465,497,503,536,464,289,264,371,471,578,604,594,547,506,459,404,368,174,-459,-604,412
2018-05-16,11:11:53.500,3033,3445,1995,648,-199,-737,-873,-886,-882,-855,-828,-847,-851,-868,-907,-974,-1040,-1103,-1198,-1286,-1314,-1299,-1227,-1095,-912,-685,-447,-192,61,286,452,525,561,568,501,446,379,330,280,260,257,275,315,365,434,500,513,546,584,592,460,214,231,273,311,422,453,409,384,313,197,110,14,-124,-660,-1063,-507,2030,2746,1397,126,-570,-1130,-1377,-1435,-1477,-1532,-1543,-1514,-1454,-1371,-1266,-1193,-1125,-1081,-1053,-1014,-967,-896,-800,-668,-527,-341,-93,215,535,840,1086,1271,1369,1411,1398,1335,1264,1189,1109,1035,956,900,843,770,715,672,616,522,418,355,120,-111,-62,13,94,233,272,240,230,177,178
2018-05-16,11:11:54.537,146,89,-261,-865,-858,702,3003,2719,1222,68,-638,-978,-988,-959,-916,-876,-874,-861,-856,-835,-849,-864,-846,-863,-871,-890,-879,-853,-764,-628,-485,-312,-86,173,442,661,863,956,966,915,851,761,676,545,383,258,213,99,26,1,-93,-173,-232,-217,-275,-467,-506,-415,-341,-321,-328,-300,-288,-310,-327,-343,-320,-411,-980,-1417,-565,2060,4064,2824,1126,-182,-1015,-1336,-1315,-1250,-1176,-1085,-1021,-968,-890,-841,-821,-827,-833,-851,-868,-901,-896,-858,-800,-682,-523,-304,-47,217,476,705,839,899,933,921,796,701,657,607,523,461,421,386,341,307,271,204,82,-22,-86,-259,-298,-181,-54,91,237,335
2018-05-16,11:11:55.574,381,344,331,319,282,142,-501,-949,-215,2223,4779,3795,1366,-183,-913,-1051,-991,-931,-889,-827,-781,-762,-739,-727,-754,-812,-845,-906,-960,-993,-1093,-1132,-1122,-1073,-943,-775,-566,-262,25,261,440,540,572,522,412,309,200,71,-42,-165,-258,-315,-348,-321,-268,-258,-261,-277,-228,-275,-366,-251,-113,39,231,352,437,488,529,571,604,593,337,-288,-148,926,3942,4648,2543,744,-180,-616,-697,-753,-792,-800,-817,-871,-922,-943,-957,-968,-1004,-1014,-1039,-1056,-1037,-1010,-947,-824,-680,-534,-324,-88,170,404,558,667,685,685,673,648,615,570,529,517,489,460,421,384,340,293,265,212,144,147,28,-117
2018-05-16,11:11:56.612,-45,135,276,440,516,553,562,518,488,446,366,47,-645,-729,537,3463,3874,1837,92,-924,-1421,-1457,-1469,-1505,-1460,-1385,-1383,-1400,-1387,-1423,-1462,-1558,-1688,-1800,-1841,-1867,-1856,-1734,-1535,-1309,-1015,-712,-391,-64,218,467,671,789,863,908,943,966,999,1041,1022,985,960,944,904,900,894,856,782,674,615,451,210,193,214,285,420,478,459,458,423,415,419,396,99,-541,-297,1396,4114,4091,2130,437,-598,-1086,-1166,-1176,-1173,-1143,-1125,-1086,-1064,-1080,-1112,-1118,-1110,-1131,-1183,-1200,-1203,-1182,-1094,-970,-871,-696,-447,-164,127,367,576,694,744,733,696,668,636,560,459,401,311,244,147,9,-126,-273
2018-05-16,11:11:57.649,-402,-536,-628,-620,-771,-850,-660,-493,-368,-164,-63,-93,-161,-255,-368,-471,-614,-1092,-1624,-1182,898,3524,3042,1061,-272,-897,-964,-925,-866,-813,-748,-672,-617,-568,-525,-501,-476,-443,-412,-377,-374,-320,-249,-149,-32,83,211,351,520,684,808,841,883,853,788,765,692,684,686,683,708,744,766,817,827,807,783,756,649,506,440,254,2,15,83,109,248,301,207,175,206,202,200,206,-33,-682,-804,390,3044,3354,1778,429,-280,-572,-570,-534,-513,-516,-517,-540,-589,-657,-732,-802,-899,-979,-1059,-1143,-1220,-1218,-1171,-1106,-1049,-933,-776,-616,-479,-348,-242,-224,-259,-325,-429,-560,-686,-794,-888,-936
2018-05-16,11:11:58.686,-937,-839,-716,-572,-437,-285,-122,-10,121,268,350,284,402,686,905,1091,1225,1291,1336,1345,1324,1270,1253,1207,724,61,99,2462,3168,2242,1276,763,397,195,70,-34,-140,-213,-274,-361,-398,-400,-434,-426,-487,-488,-490,-537,-563,-575,-592,-604,-613,-623,-554,-442,-302,-144,-9,70,136,197,249,308,317,387,425,404,391,410,432,423,413,394,342,356,284,55,39,171,280,434,498,474,426,381,302,234,140,-57,-840,-1435,-321,2072,2303,1028,-6,-786,-1355,-1515,-1514,-1497,-1460,-1413,-1385,-1349,-1385,-1427,-1453,-1454,-1454,-1467,-1435,-1328,-1131,-883,-641,-401,-186,3,172,306,401,513,553,548,505,482
2018-05-16,11:11:59.723,472,427,478,530,596,693,779,849,916,976,1013,1025,1027,983,952,844,574,470,518,549,590,587,512,422,323,195,72,-16,-93,-626,-1019,-485,1677,2226,1235,319,-280,-777,-983,-1020,-1054,-1076,-1054,-977,-940,-887,-792,-726,-660,-610,-610,-597,-547,-521,-444,-361,-259,-163,-36,166,364,544,743,884,940,951,898,847,788,741,670,588,499,392,281,142,6,-163,-280,-345,-554,-720,-609,-456,-321,-195,-126,-88,-111,-187,-279,-390,-514,-951,-1700,-1725,-16,2565,2329,898,-139,-753,-1014,-937,-841,-748,-685,-624,-579,-557,-499,-441,-418,-390,-377,-369,-376,-366,-337,-262,-140,-25,86,267,487,728,912,1032
2018-05-16,11:12:00.760,1097,1069,1003,895,802,729,605,478,417,349,257,193,155,79,-23,-134,-214,-432,-521,-453,-422,-379,-315,-310,-301,-294,-280,-227,-166,-201,-654,-919,-387,1831,3805,2808,1194,144,-523,-814,-839,-843,-838,-809,-793,-783,-770,-757,-774,-735,-719,-757,-784,-810,-811,-786,-725,-642,-555,-444,-267,-66,113,268,402,447,438,413,363,271,177,115,-27,-163,-271,-408,-518,-624,-720,-842,-876,-886,-977,-848,-623,-388,-190,-51,65,124,152,187,214,239,176,-331,-480,334,2919,4283,2896,1329,371,-229,-426,-427,-474,-504,-489,-482,-521,-598,-645,-698,-778,-834,-909,-992,-1071,-1099,-1058,-985,-884,-693,-427,-127,210,494
2018-05-16,11:12:01.798,720,824,873,873,786,669,549,427,361,310,284,303,317,304,280,261,238,204,104,-55,-16,93,243,371,472,531,557,561,559,535,486,259,-398,-576,594,3249,3960,2532,1158,141,-543,-791,-874,-967,-1067,-1140,-1195,-1218,-1209,-1197,-1211,-1216,-1222,-1265,-1315,-1375,-1409,-1422,-1399,-1404,-1324,-1118,-852,-560,-276,-38,162,306,360,384,388,363,359,354,324,320,328,347,400,455,492,495,521,521,374,410,516,641,790,854,853,831,805,753,708,648,429,-236,-388,585,3347,4223,2471,761,-265,-872,-1037,-1020,-988,-962,-949,-902,-919,-915,-913,-932,-1009,-1113,-1228,-1335,-1388,-1413,-1367,-1215,-1029,-814,-513,-203
2018-05-16,11:12:02.835,137,421,615,785,874,888,880,816,750,697,636,590,587,571,560,570,596,582,554,569,530,284,260,380,444,438,410,332,178,2,-153,-281,-351,-521,-1073,-1204,-279,2444,3654,2193,533,-476,-1126,-1354,-1430,-1518,-1599,-1662,-1705,-1665,-1611,-1546,-1495,-1449,-1386,-1314,-1288,-1244,-1158,-1079,-943,-772,-558,-270,85,457,802,1087,1263,1350,1416,1412,1362,1323,1269,1191,1116,1010,931,842,768,656,531,397,318,131,-120,-102,17,103,237,317,346,347,309,281,264,179,-169,-944,-951,541,3325,3487,1790,312,-630,-1147,-1182,-1147,-1119,-1060,-1029,-1003,-982,-950,-909,-879,-878,-880,-882,-881,-924,-887,-791,-661,-469,-231
2018-05-16,11:12:03.872,25,277,552,778,961,1026,1037,980,839,715,586,453,327,195,67,-20,-68,-74,-55,-119,-198,-236,-267,-497,-558,-481,-407,-413,-365,-360,-388,-440,-462,-438,-393,-444,-885,-1086,-426,1939,3859,2761,1019,8,-575,-782,-780,-765,-720,-672,-618,-580,-535,-506,-510,-502,-493,-511,-551,-561,-546,-507,-429,-350,-220,-59,155,379,581,729,817,849,805,724,649,553,473,393,323,282,215,152,140,129,81,-31,-133,-225,-295,-385,-561,-551,-361,-223,-69,74,138,197,230,243,284,297,203,-340,-534,-96,2337,3880,2593,988,154,-369,-530,-508,-470,-437,-456,-473,-471,-496,-563,-636,-724,-832,-965,-1093,-1208,-1323
2018-05-16,11:12:04.909,-1349,-1304,-1199,-1049,-838,-549,-222,81,316,478,546,519,456,365,234,73,-52,-187,-261,-265,-263,-200,-115,-3,70,96,89,84,100,-46,-173,-83,18,126,267,347,405,462,514,562,591,537,106,-238,169,2300,4239,3272,1662,574,-88,-387,-429,-462,-536,-577,-600,-632,-719,-769,-794,-868,-912,-958,-1021,-1061,-1075,-1063,-1028,-973,-896,-743,-548,-316,-98,103,240,322,383,398,411,388,368,360,362,346,336,351,352,345,339,353,348,301,260,284,190,9,75,251,382,532,591,612,595,532,460,379,298,-51,-718,-828,536,3170,3115,1380,26,-741,-1234,-1311,-1331,-1340,-1325,-1340,-1376,-1416,-1490,-1548
2018-05-16,11:12:05.946,-1616,-1729,-1820,-1861,-1840,-1781,-1670,-1501,-1338,-1150,-884,-591,-290,44,328,571,777,889,949,999,1024,1024,1039,1025,983,957,929,888,872,826,805,738,690,639,532,454,337,40,-117,-107,-83,-38,-3,-18,-37,-49,-28,-20,-36,-152,-755,-891,90,2876,3801,2138,440,-578,-1182,-1323,-1285,-1211,-1117,-1034,-984,-928,-886,-843,-807,-818,-808,-798,-801,-827,-828,-782,-693,-552,-382,-165,107,395,673,901,1068,1153,1198,1180,1108,1033,936,797,687,563,403,284,154,58,-21,-53,-77,-98,-152,-162,-172,-388,-444,-350,-303,-253,-217,-286,-389,-470,-531,-565,-539,-618,-1069,-1207,-456,2032,3696,2497,925,73,-460,-628
2018-05-16,11:12:06.984,-604,-563,-535,-501,-466,-424,-390,-353,-355,-382,-380,-400,-446,-478,-505,-493,-421,-339,-215,-65,145,380,602,791,896,932,921,876,798,716,645,542,469,392,354,321,264,215,148,69,-7,-90,-191,-272,-316,-481,-548,-403,-256,-135,2,59,101,101,87,100,108,67,-313,-843,-625,1111,3585,3252,1625,409,-277,-628,-654,-567,-546,-539,-530,-537,-546,-580,-663,-716,-811,-916,-1047,-1160,-1227,-1295,-1293,-1216,-1081,-935,-754,-490,-240,2,143,232,250,173,56,-81,-239,-372,-457,-500,-476,-399,-318,-212,-123,-40,23,93,112,73,62,49,-99,-67,148,335,536,698,786,832,850,832,815,788,670,98
2018-05-16,11:12:08.021,-174,366,2942,4104,2662,1101,201,-418,-681,-769,-866,-957,-1000,-1020,-1023,-1022,-1025,-998,-988,-990,-1005,-1050,-1063,-1075,-1041,-1008,-990,-941,-796,-566,-292,-38,217,414,555,636,659,654,650,633,626,601,581,552,532,514,490,462,459,445,397,376,373,387,348,162,178,345,432,552,618,624,601,520,422,315,188,-68,-720,-1006,-333,2308,3434,1894,320,-529,-1141,-1311,-1294,-1308,-1355,-1435,-1491,-1562,-1632,-1682,-1699,-1659,-1615,-1546,-1478,-1409,-1290,-1167,-1018,-854,-666,-411,-115,207,535,851,1071,1199,1275,1337,1325,1299,1286,1244,1197,1151,1096,1039,992,923,863,801,708,629,526,438,324,39,-184,-138,-76,-47
2018-05-16,11:12:09.058,61,143,148,120,101,53,4,-43,-467,-1025,-773,1205,3404,2764,1104,-202,-987,-1318,-1316,-1251,-1205,-1146,-1086,-1048,-1030,-999,-985,-982,-980,-988,-1010,-1015,-1006,-963,-868,-725,-532,-298,-28,286,599,845,1010,1083,1090,1063,982,869,754,628,484,373,247,109,10,-105,-174,-228,-264,-302,-325,-352,-343,-423,-628,-625,-530,-494,-408,-381,-419,-466,-502,-507,-460,-393,-440,-902,-940,-203,2454,3608,2206,731,-29,-473,-569,-532,-486,-451,-411,-354,-309,-295,-309,-313,-326,-376,-411,-444,-461,-481,-451,-419,-349,-243,-169,-30,154,317,391,434,473,492,462,437,431,416,412,367,297,275,242,190,121,16,-69,-130
2018-05-16,11:12:10.095,-177,-217,-256,-244,-269,-384,-279,-78,78,238,336,412,429,413,396,368,321,143,-406,-552,109,2661,3664,2217,802,122,-322,-398,-344,-314,-300,-309,-367,-408,-454,-544,-644,-746,-870,-989,-1091,-1195,-1272,-1276,-1225,-1131,-973,-758,-515,-242,64,298,397,410,390,309,181,72,-22,-113,-163,-189,-184,-152,-96,-34,14,57,93,111,82,98,28,-130,-40,146,294,457,549,597,613,593,575,552,523,310,-270,-377,842,3345,3709,2225,934,53,-534,-729,-792,-895,-931,-923,-919,-894,-869,-889,-908,-941,-960,-946,-956,-986,-991,-993,-980,-948,-825,-620,-350,-82,154,330,386,451,495,498,464,412,373,342
2018-05-16,11:12:11.169,1011,1076,1060,1045,335,378,404,449,475,505,530,583,481,317,367,468,554,654,674,628,547,460,373,254,135,-185,-906,-1108,335,3210,3038,1337,12,-730,-1164,-1252,-1254,-1228,-1202,-1223,-1288,-1354,-1414,-1475,-1525,-1590,-1627,-1615,-1573,-1505,-1364,-1195,-981,-757,-519,-294,-55,177,384,523,618,685,725,733,757,782,790,790,802,822,815,820,819,806,792,759,711,622,597,494,205,109,154,178,235,260,239,190,148,112,82,91,-16,-500,-706,-1,2428,3516,2128,543,-426,-1094,-1300,-1317,-1304,-1278,-1214,-1144,-1087,-1031,-989,-929,-887,-850,-868,-883,-876,-839,-780,-689,-564,-403,-205,29,288,527,745,929
2018-05-16,11:12:20.183,-963,-828,-620,-349,-118,22,112,133,63,-35,230,356,294,282,272,284,272,245,142,93,99,175,349,317,324,237,6,30,47,-55,-140,-121,146,420,559,708,874,975,809,248,377,1944,4747,5083,3219,1442,135,-642,-822,-958,-1073,-1153,-1271,-1356,-1513,-1566,-1423,-1498,-1525,-1440,-1381,-1322,-1256,-1209,-1067,-914,-830,-537,-204,140,570,902,1172,1406,1468,1454,1397,1253,751,100,-178,-170,-66,0,142,383,575,594,531,360,175,-39,-398,-622,-471,-431,-426,-383,-348,-256,-199,-174,-165,-192,-300,-484,-1125,-1135,781,4244,4130,2276,890,-52,-729,-802,-689,-604,-486,-415,-525,-773,-910,-751,-465,-373,-388,-378
2018-05-16,11:12:21.133,-376,-387,-361,-252,-130,-39,94,247,486,575,556,531,444,288,205,68,-23,-70,-92,-160,-132,-58,-86,-181,-90,236,326,219,249,321,310,123,3,196,462,647,814,905,912,867,886,599,91,-191,-508,-938,-724,1540,3936,3103,1471,229,-701,-1330,-1615,-1822,-1988,-2217,-2274,-2157,-2059,-2006,-1929,-1849,-1771,-1748,-1790,-1791,-1341,-1019,-998,-898,-719,-519,-273,10,305,521,782,992,1057,1026,571,-191,-1470,-2790,-2557,-1279,-320,220,565,769,988,1078,1037,938,763,489,369,347,229,108,-62,-209,-175,-81,-35,204,402,496,462,-139,290,2300,4948,4798,3011,1442,518,-72,-192,-139,-35,68,190,177,132,-7
2018-05-16,11:12:22.170,-599,-1408,-1721,-1501,-1293,-1194,-1179,-1152,-1029,-895,-843,-808,-846,-930,-976,-919,-1007,-1057,-851,-633,-578,-423,-250,-136,-102,-13,146,345,583,780,888,954,1021,1106,1101,946,848,938,1048,1085,704,-139,-918,-1188,-973,-640,-164,169,290,-44,-34,1492,3905,3742,2511,1379,569,-32,-429,-748,-958,-1052,-1152,-1212,-1115,-979,-886,-587,-348,-222,-164,-119,2,114,169,221,318,302,506,833,1050,1294,1491,1634,1559,1264,729,116,-539,-855,-740,-536,-377,-271,-187,25,259,313,325,204,-53,-648,-1092,-1305,-1394,-1308,-1186,-1156,-1004,-590,-390,-332,-211,-37,-11,-505,-838,1351,4537,4134,2682,1418,554,61,-152,-217,-378,-883
2018-05-16,11:12:23.207,-1922,-2712,-3094,-2847,-2385,-1851,-1444,-1164,-849,-574,-477,-371,-253,-169,-145,-64,-9,121,235,300,433,592,687,811,978,1076,1112,1125,1156,1141,1085,1161,1192,1211,1168,1056,931,755,459,344,487,662,796,820,507,-167,-1313,-2269,-2428,-1907,-1260,-1163,-1443,-1057,1242,4111,3745,2377,1269,535,30,-96,-236,-489,-717,-935,-1117,-1289,-1461,-1600,-1870,-2114,-2145,-2084,-2127,-2151,-2176,-2259,-2498,-2739,-2982,-3125,-3120,-2955,-2791,-2658,-2430,-2087,-1653,-1162,-638,-193,237,585,825,1190,1344,785,358,3204,7431,8250,5519,3034,2037,2002,2116,2153,2132,2120,2080,2000,1909,1847,1698,1522,1331,1167,912,648,455,258,-8,-181,-356,-630,-886,-960
2018-05-16,11:12:24.244,-1048,-1036,-1093,-1068,-971,-760,-523,-290,-104,13,44,38,-18,-28,11,84,199,377,554,732,728,719,893,1070,1076,1118,1165,1159,1106,1038,1004,927,890,661,31,-310,945,2893,2592,1505,430,-407,-1176,-1728,-2216,-2859,-3581,-4117,-4239,-4054,-3814,-3529,-3260,-3052,-2925,-2881,-2884,-2893,-2820,-2653,-2274,-1826,-1385,-948,-534,-109,316,703,1048,1293,1496,1676,1802,1905,1982,2022,1972,1917,1896,1876,1843,1815,1805,1781,1779,1803,1666,1451,1499,1573,1637,1637,1552,1429,1256,1011,739,461,66,-456,-1334,-1706,-704,1743,2057,936,-67,-799,-1254,-1276,-1123,-1030,-949,-934,-986,-1009,-996,-961,-932,-875,-829,-766,-663,-505,-316,-108,92,282
2018-05-16,11:12:25.281,463,640,802,943,1039,1133,1179,1159,1123,1069,988,893,799,675,556,384,193,-96,-437,-937,-1590,-2109,-2365,-2593,-2705,-2555,-2340,-2129,-1902,-1789,-1729,-1634,-1546,-1543,-1551,-1616,-1970,-2395,-2088,-272,2400,2498,1374,587,226,56,164,415,597,754,871,945,996,975,941,903,814,765,713,625,601,603,647,743,851,936,1049,1199,1308,1318,1218,1053,820,321,-159,-497,-632,-613,-602,-530,-465,-469,-449,-384,-303,-234,-189,-153,-250,-530,-601,-536,-509,-348,-177,-12,140,277,424,611,751,776,265,224,1115,3755,4311,2796,1454,646,96,-140,-182,-230,-295,-337,-396,-537,-810,-976,-1098,-1293,-1614,-2153,-2817,-3192,-3244,-3156
2018-05-16,11:12:26.319,-2971,-2704,-2418,-2070,-1739,-1409,-1043,-742,-498,-449,-575,-608,-638,-637,-611,-531,-403,-232,-29,203,437,657,859,1036,1234,1299,1290,1438,1630,1780,1867,1941,1938,1947,1847,1717,1630,1554,1260,523,503,2066,4472,4393,2786,1459,403,-384,-950,-1497,-1935,-2164,-2199,-2127,-2034,-1930,-1857,-1813,-1755,-1742,-1721,-1678,-1622,-1570,-1484,-1375,-1202,-957,-693,-378,-68,231,486,702,864,967,1055,1117,1141,1145,1113,1060,1004,972,920,882,863,816,783,758,609,487,516,567,640,699,659,505,176,-303,-801,-1189,-1509,-1945,-2547,-2359,-403,2633,2388,531,-922,-1752,-2196,-2245,-2257,-2253,-2268,-2291,-2215,-2076,-1897,-1672,-1429,-1169,-916,-678,-444,-186
2018-05-16,11:12:27.356,94,382,705,995,1306,1599,1833,2074,2252,2351,2346,2294,2207,2084,1946,1805,1697,1620,1503,1357,1181,929,686,402,-75,-519,-842,-1141,-1126,-945,-821,-660,-440,-314,-277,-230,-212,-222,-234,-321,-789,-1169,-821,1098,3081,2312,831,2,-498,-686,-612,-488,-408,-312,-212,-118,-62,-45,-77,-140,-231,-298,-368,-428,-437,-393,-343,-290,-196,-25,149,330,503,570,445,165,-208,-571,-831,-965,-1040,-1042,-1000,-976,-932,-903,-933,-1012,-1064,-1071,-1059,-1212,-1320,-1290,-1172,-981,-763,-561,-379,-176,19,211,430,560,240,119,911,3383,5251,4240,2721,1621,907,502,390,329,242,167,122,77,23,1,-50,-129,-229,-389,-481,-635
2018-05-16,11:12:28.393,-857,-1133,-1394,-1480,-1441,-1248,-960,-665,-375,-141,18,73,96,114,131,154,162,165,148,98,66,41,40,60,81,137,230,242,186,350,563,743,954,1098,1145,1143,1125,1110,1092,1068,832,171,99,1130,3695,4168,2622,1246,442,-190,-544,-825,-1093,-1411,-1712,-1865,-1941,-2003,-2031,-1991,-2021,-1999,-1941,-1871,-1777,-1663,-1533,-1395,-1244,-1094,-927,-707,-476,-260,-45,135,264,397,524,638,736,842,993,1137,1276,1391,1463,1491,1504,1452,1420,1347,1075,967,1025,1073,1121,1158,1117,1021,917,793,710,587,312,-432,-1004,-724,1255,2181,905,-507,-1335,-1884,-2071,-1942,-1777,-1603,-1418,-1293,-1261,-1299,-1385,-1451,-1528,-1559,-1508,-1451
2018-05-16,11:12:29.430,-1348,-1175,-929,-648,-316,22,383,768,1113,1355,1511,1556,1525,1454,1362,1244,1138,1032,940,873,803,693,612,516,218,-141,-408,-893,-1413,-1587,-1523,-1498,-1450,-1367,-1332,-1216,-1157,-1146,-1092,-1062,-1430,-2281,-2197,-421,2135,1992,559,-502,-1120,-1371,-1150,-832,-568,-267,11,257,484,662,796,841,822,798,700,546,460,368,296,286,334,401,563,789,1002,1169,1215,1131,944,724,462,145,-175,-404,-534,-535,-518,-504,-495,-527,-517,-551,-615,-685,-826,-775,-633,-529,-429,-352,-307,-320,-302,-251,-145,-56,-120,-684,-675,479,3431,4882,3334,1549,554,-29,-200,-177,-155,-152,-156,-150,-173,-213,-327,-528,-656,-697,-749,-775
2018-05-16,11:12:30.467,-782,-847,-1027,-1288,-1498,-1629,-1547,-1321,-1098,-909,-653,-405,-235,-193,-315,-347,-368,-434,-531,-664,-726,-743,-702,-595,-483,-373,-199,15,79,184,478,814,1063,1383,1592,1724,1831,1876,1835,1791,1712,1431,826,765,1897,4415,4388,2708,1366,596,-7,-279,-490,-707,-941,-1215,-1497,-1676,-1735,-1755,-1709,-1664,-1673,-1679,-1672,-1641,-1626,-1608,-1516,-1330,-1092,-798,-493,-198,63,271,401,475,520,548,571,607,644,671,710,759,822,886,942,970,937,886,873,691,504,564,686,768,856,871,837,794,720,611,513,344,-206,-887,-946,707,2736,1902,307,-910,-1718,-2091,-2112,-2115,-2116,-2047,-1970,-1904,-1858,-1812,-1849,-1995,-2028,-2002
2018-05-16,11:12:31.505,-1964,-1880,-1760,-1583,-1329,-1027,-691,-315,101,551,976,1342,1643,1861,1976,1991,1950,1894,1815,1704,1590,1502,1388,1282,1220,1145,1062,959,786,609,325,52,-82,-236,-470,-591,-644,-661,-663,-664,-628,-596,-626,-1087,-1619,-1075,1222,3531,2769,1172,7,-699,-1057,-1131,-1111,-1100,-1061,-1000,-930,-834,-745,-648,-546,-483,-415,-353,-310,-272,-195,-59,91,249,421,618,846,1054,1220,1363,1405,1423,1246,956,840,689,489,165,-221,-473,-576,-702,-772,-772,-737,-687,-652,-754,-863,-737,-773,-807,-702,-712,-731,-738,-762,-713,-607,-497,-574,-914,-715,655,3445,3943,2533,1369,813,515,534,597,600,610,566,501,412,350,282,180
2018-05-16,11:12:32.542,120,32,-52,-110,-119,-102,-122,-128,-125,-182,-292,-400,-528,-620,-619,-572,-546,-508,-473,-506,-532,-529,-559,-520,-463,-350,-194,-148,-163,-193,-251,-303,-322,-496,-522,-302,-99,136,409,604,728,832,915,1007,1093,1105,733,-27,-74,1373,3676,3303,1919,900,299,-149,-287,-337,-444,-543,-614,-694,-827,-1060,-1312,-1542,-1731,-1943,-2107,-2190,-2254,-2287,-2227,-2178,-2032,-1740,-1453,-1152,-891,-714,-572,-453,-351,-248,-158,-40,101,258,432,604,803,999,1166,1313,1441,1540,1565,1596,1526,1324,1324,1404,1438,1487,1477,1436,1342,1240,1137,1039,899,632,-55,-312,613,2856,3314,1660,170,-909,-1621,-1903,-1961,-1981,-1931,-1895,-1843,-1817
2018-05-16,11:12:33.579,-1742,-1673,-1617,-1557,-1540,-1526,-1510,-1489,-1412,-1348,-1150,-897,-637,-376,-33,300,652,987,1207,1324,1349,1310,1288,1221,1166,1060,965,894,824,769,732,689,630,564,502,416,146,-154,-273,-418,-570,-646,-731,-773,-855,-949,-968,-918,-1009,-1495,-2137,-1645,892,3442,2566,578,-884,-1598,-1858,-1767,-1591,-1416,-1237,-1041,-882,-717,-541,-376,-274,-171,-42,59,105,171,260,355,483,607,748,895,1060,1235,1339,1404,1443,1404,1280,1139,1032,894,663,329,-22,-370,-630,-705,-712,-688,-665,-708,-717,-695,-892,-926,-775,-626,-423,-184,-53,44,105,97,64,58,23,-312,-588,-208,1621,3992,3451,1728,677,109,-222,-217,-221,-412
2018-05-16,11:12:34.616,-464,-450,-425,-391,-377,-362,-385,-400,-435,-445,-488,-517,-482,-424,-412,-487,-612,-689,-726,-735,-636,-541,-472,-398,-373,-356,-375,-390,-394,-381,-393,-418,-459,-517,-557,-589,-609,-563,-459,-427,-404,-136,173,427,687,912,1082,1195,1284,1375,1433,1472,1279,588,548,1776,4368,4532,2886,1493,639,73,-142,-234,-364,-492,-572,-639,-787,-1011,-1270,-1511,-1627,-1649,-1659,-1665,-1667,-1604,-1535,-1402,-1193,-1000,-721,-392,-91,178,363,467,548,562,526,533,547,571,601,654,727,820,912,980,1001,974,920,888,665,474,512,587,632,714,716,709,696,624,549,436,276,-261,-950,-955,767,2780,1925,380,-811,-1595,-2058,-2119
2018-05-16,11:12:35.653,-2037,-2037,-2019,-1940,-1860,-1946,-2035,-2028,-2024,-2013,-1982,-1906,-1789,-1601,-1381,-1118,-802,-494,-171,188,565,964,1314,1554,1701,1751,1736,1655,1596,1504,1406,1303,1198,1156,1084,1015,971,945,836,730,646,374,104,74,-22,-250,-442,-532,-591,-656,-644,-641,-651,-678,-1034,-1572,-1122,935,3610,3350,1534,130,-675,-1077,-1141,-1081,-1006,-891,-774,-663,-558,-460,-363,-259,-309,-420,-427,-402,-361,-279,-161,-21,140,319,508,698,877,1050,1173,1211,1194,1086,916,624,203,-239,-601,-891,-1057,-1072,-1081,-994,-983,-949,-861,-827,-1004,-1100,-991,-927,-822,-744,-750,-734,-702,-622,-483,-314,-156,-388,-403,295,2767,4605,3500,1984,1219,675
2018-05-16,11:12:36.691,488,497,489,494,496,489,450,397,348,295,261,189,146,119,13,-75,-105,-173,-312,-532,-730,-940,-999,-888,-704,-583,-472,-416,-383,-343,-252,-124,-16,54,59,31,13,-34,-101,-137,-145,-76,-107,-65,177,455,715,981,1174,1317,1367,1351,1245,991,845,498,-116,77,1982,4067,3422,2053,937,155,-309,-430,-473,-538,-650,-913,-1299,-1575,-1814,-2019,-2148,-2225,-2259,-2287,-2328,-2322,-2178,-1927,-1659,-1407,-1220,-1036,-819,-623,-402,-209,-35,154,305,433,576,708,862,986,1125,1248,1347,1413,1457,1425,1376,1353,1173,928,929,974,1030,1073,1051,1044,964,864,786,697,491,-27,-771,-877,599,2517,1812,211,-1072,-1954
2018-05-16,11:12:37.728,-2400,-2385,-2295,-2180,-2011,-1844,-1658,-1549,-1495,-1469,-1435,-1456,-1470,-1463,-1426,-1328,-1166,-924,-629,-303,38,407,790,1154,1426,1582,1657,1663,1598,1522,1477,1363,1268,1175,1103,999,737,561,541,478,397,292,-24,-594,-935,-1119,-1293,-1318,-1291,-1261,-1256,-1259,-1259,-1251,-1244,-1504,-2129,-2020,-475,2260,2205,480,-719,-1261,-1451,-1275,-990,-699,-441,-220,0,210,367,492,607,645,611,577,524,483,501,565,640,751,842,965,1118,1245,1345,1400,1359,1237,904,417,-95,-535,-884,-1145,-1195,-1184,-1074,-991,-915,-829,-780,-593,-513,-561,-401,-206,-175,-123,-112,-156,-102,-38,79,307,427,380,63,252,1331,4037,4439,2780,1419,697
2018-05-16,11:12:38.765,199,133,144,119,108,20,-71,-157,-254,-332,-473,-613,-756,-947,-1142,-1324,-1481,-1561,-1586,-1639,-1626,-1505,-1308,-1084,-846,-636,-580,-458,-337,-185,-89,-118,-199,-323,-494,-629,-699,-695,-615,-481,-305,-60,-25,46,360,718,1021,1296,1453,1521,1513,1448,1380,1275,1172,805,83,261,2045,4342,3879,2283,1040,218,-360,-585,-684,-843,-1081,-1327,-1550,-1746,-1885,-1940,-1987,-2061,-2013,-2038,-2067,-2016,-1865,-1614,-1342,-1100,-898,-695,-470,-230,-11,194,392,551,686,819,882,1009,1132,1205,1288,1339,1343,1202,1106,1070,1066,1017,765,681,750,798,897,908,904,900,862,783,701,551,115,-839,-1370,-649,1838,2529,832,-673,-1706,-2407
2018-05-16,11:12:39.802,-2576,-2508,-2452,-2340,-2223,-2144,-2067,-2028,-2006,-1968,-1855,-1714,-1552,-1357,-1104,-805,-484,-165,195,553,959,1344,1771,2123,2383,2519,2567,2560,2495,2385,2227,2056,1864,1681,1550,1411,1291,1191,1052,834,584,221,-285,-621,-849,-1061,-1197,-1206,-1136,-1114,-1098,-1140,-1130,-1149,-1391,-2002,-1814,-311,2596,3287,1609,69,-714,-1128,-1176,-1059,-950,-840,-691,-543,-373,-208,-127,-27,-19,-150,-176,-189,-148,-90,19,151,293,470,597,763,948,1112,1197,1225,1189,1051,888,589,160,-365,-879,-1336,-1694,-1887,-1926,-1937,-1921,-1827,-1696,-1732,-1804,-1667,-1451,-1269,-992,-797,-632,-494,-415,-328,-246,-215,-428,-765,-432,1321,4059,4024,2560,1587,1067,845
2018-05-16,11:12:40.839,950,1080,1156,1206,1207,1175,1114,1012,934,861,771,642,557,449,349,293,207,68,-78,-268,-535,-776,-973,-997,-885,-771,-692,-603,-575,-542,-490,-360,-226,-125,-19,40,35,-84,-213,-278,-365,-438,-261,-11,249,555,815,1057,1248,1379,1465,1515,1534,1261,603,603,2142,4660,4535,3028,1741,831,263,76,-24,-60,-74,-172,-317,-516,-931,-1454,-1855,-2178,-2458,-2704,-2839,-2900,-2879,-2859,-2772,-2480,-2188,-1885,-1694,-1709,-1698,-1608,-1439,-1195,-983,-775,-514,-221,93,420,706,947,1186,1399,1619,1763,1786,1835,1715,1436,1368,1415,1457,1485,1459,1392,1309,1187,1097,1003,824,401,-452,-817,63,2077,1713,-124,-1468,-2144,-2480,-2457
2018-05-16,11:12:41.877,-2304,-2195,-2106,-1908,-1726,-1537,-1396,-1337,-1368,-1444,-1521,-1531,-1549,-1448,-1233,-968,-630,-185,246,609,995,1351,1662,1915,2026,2043,1996,1830,1777,1774,1755,1721,1666,1618,1574,1464,1347,1219,1076,931,650,186,-232,-768,-1319,-1622,-1795,-1851,-1765,-1695,-1575,-1410,-1276,-1380,-1990,-1984,-618,2164,2097,141,-1243,-1890,-2222,-2112,-1819,-1523,-1194,-831,-492,-198,74,348,534,683,817,850,834,839,847,896,937,950,980,1042,1151,1278,1397,1481,1496,1418,1223,910,498,-35,-571,-967,-1246,-1268,-1176,-1104,-1033,-931,-905,-868,-863,-922,-781,-531,-391,-268,-217,-252,-296,-287,-203,-85,26,8,-433,-356,865,3761,4939,3435,1969,1101,502,272
2018-05-16,11:12:42.914,225,163,87,17,-83,-140,-185,-257,-342,-424,-533,-666,-870,-1162,-1543,-1825,-2013,-2078,-1979,-1799,-1598,-1412,-1177,-945,-812,-688,-620,-574,-588,-734,-987,-1109,-1086,-983,-844,-652,-439,-185,26,261,506,637,692,932,1210,1436,1653,1776,1809,1759,1700,1601,1485,1343,832,188,501,2452,4583,3803,2088,837,-11,-559,-711,-901,-1242,-1531,-1783,-2055,-2242,-2299,-2324,-2317,-2283,-2237,-2193,-2143,-1981,-1756,-1461,-1079,-709,-404,-164,0,107,214,320,468,648,800,929,1052,1158,1221,1294,1371,1413,1327,1196,1196,1168,1138,1088,1059,861,710,750,817,865,933,920,848,745,625,422,57,-384,-1152,-1835,-1683,546,2626,1553,-56,-1122,-1835
2018-05-16,11:12:43.951,-2167,-2142,-2023,-1925,-1916,-1915,-1911,-1925,-1904,-1848,-1738,-1587,-1392,-1184,-907,-611,-305,-57,250,587,901,1233,1534,1779,1974,2068,2084,2043,1942,1813,1673,1527,1390,1274,1168,1049,918,786,607,378,111,-201,-621,-1134,-1366,-1274,-1137,-1008,-832,-750,-639,-548,-490,-426,-409,-427,-837,-1092,-579,1571,3482,2587,1029,13,-560,-781,-701,-556,-440,-318,-177,-60,47,138,180,179,104,29,-16,-81,-131,-157,-149,-90,23,114,247,401,491,456,364,222,-154,-531,-662,-700,-745,-747,-805,-773,-796,-792,-691,-596,-557,-633,-811,-1016,-1184,-1151,-1035,-855,-601,-388,-173,42,263,458,636,760,548,174,638,2552,4895,4406,2741,1441
2018-05-16,11:12:44.988,626,169,64,-10,-108,-207,-275,-309,-359,-396,-428,-525,-646,-784,-908,-1032,-1243,-1482,-1587,-1593,-1574,-1449,-1248,-1042,-875,-668,-476,-350,-201,-112,-21,72,128,126,94,70,35,24,46,75,120,208,283,364,358,272,381,565,700,838,835,658,594,578,618,663,604,365,-237,-221,1132,3540,3496,2024,774,-65,-896,-1453,-1845,-2192,-2377,-2267,-2188,-2159,-2075,-1984,-1920,-1817,-1848,-1835,-1782,-1769,-1748,-1684,-1520,-1285,-987,-653,-277,131,546,904,1188,1447,1646,1758,1883,1987,2051,2053,2037,2027,2007,1976,1994,1964,1917,1824,1716,1541,1254,1140,1181,1127,1005,774,392,-26,-402,-734,-1023,-1223,-1454,-2015,-1994,-609,2236,2689
2018-05-16,11:12:46.025,1108,-223,-881,-1211,-1203,-1205,-1302,-1461,-1559,-1550,-1438,-1245,-1037,-767,-518,-305,-107,71,171,230,438,693,918,1094,1230,1365,1517,1652,1737,1777,1747,1648,1522,1380,1211,1032,870,600,132,-425,-870,-1151,-1293,-1454,-1561,-1658,-1899,-1913,-1840,-1682,-1466,-1222,-1051,-1024,-1039,-1052,-1046,-1005,-1038,-1455,-1399,-281,2443,3839,2797,1599,838,432,385,549,713,790,854,902,926,881,791,714,624,488,359,249,124,38,24,15,-60,-146,-226,-310,-529,-767,-953,-1118,-1251,-1393,-1468,-1509,-1555,-1552,-1504,-1342,-1095,-802,-524,-295,-185,-227,-288,-326,-417,-498,-311,-45,239,575,881,1134,1318,1471,1565,1565,1518,1270,646,734,2137,4790
2018-05-16,11:12:47.063,4577,2896,1591,833,329,146,79,22,-128,-252,-419,-782,-1323,-1807,-2159,-2423,-2586,-2619,-2560,-2465,-2343,-2242,-2113,-1857,-1558,-1285,-1040,-895,-774,-711,-689,-619,-502,-343,-149,41,248,458,657,891,1083,1257,1393,1552,1631,1624,1604,1405,1224,1261,1293,1305,1357,1292,1221,1148,1018,897,798,636,166,-472,-567,753,2330,1453,-250,-1451,-2128,-2412,-2338,-2179,-2053,-2009,-1923,-1825,-1671,-1475,-1277,-1152,-1094,-1095,-1192,-1268,-1271,-1179,-970,-671,-365,5,389,679,877,1118,1367,1578,1697,1730,1713,1661,1608,1568,1541,1497,1436,1403,1333,1237,1141,1023,891,642,331,182,-128,-555,-895,-1159,-1332,-1431,-1451,-1446,-1440,-1451,-1720,-2254,-1942,22
2018-05-16,11:12:48.100,2790,2312,522,-783,-1509,-1840,-1797,-1643,-1437,-1230,-977,-673,-403,-188,29,237,356,466,566,600,616,663,723,774,847,917,1018,1173,1275,1377,1467,1465,1398,1283,1127,889,621,343,2,-328,-659,-983,-1266,-1475,-1666,-1844,-1965,-2163,-2211,-1937,-1566,-1187,-813,-539,-460,-413,-377,-369,-338,-246,-418,-833,-443,1349,4138,4391,2757,1344,564,151,106,130,122,120,116,108,95,70,11,-31,-44,-152,-222,-302,-363,-356,-385,-469,-711,-970,-1102,-1184,-1203,-1129,-988,-830,-742,-738,-790,-744,-675,-624,-593,-603,-666,-762,-755,-675,-600,-453,-260,-215,-85,270,585,875,1146,1352,1558,1705,1811,1879,1886,1811,1434,876,956,2498
2018-05-16,11:12:49.137,4858,4222,2468,1301,545,82,-76,-240,-390,-608,-1015,-1460,-1914,-2372,-2774,-2977,-3005,-2945,-2847,-2708,-2536,-2357,-2141,-1828,-1462,-1016,-548,-77,281,481,527,477,389,322,321,402,551,710,873,1036,1171,1319,1453,1539,1571,1549,1512,1316,1145,1200,1299,1349,1428,1419,1373,1279,1175,1079,925,692,242,-529,-942,252,2143,1320,-425,-1645,-2393,-2767,-2718,-2589,-2439,-2341,-2295,-2162,-1999,-1930,-1988,-2057,-2098,-2058,-1939,-1759,-1594,-1326,-966,-562,-140,291,734,1180,1607,2005,2318,2527,2673,2716,2655,2534,2407,2269,2103,1967,1822,1652,1508,1354,1213,1081,861,511,286,104,-86,-341,-673,-918,-1079,-1145,-1158,-1187,-1276,-1659,-2341,-2146,-283,2352
2018-05-16,11:12:50.174,2275,799,-441,-1159,-1490,-1499,-1425,-1381,-1317,-1253,-1114,-975,-819,-610,-420,-260,-118,21,79,48,97,237,400,568,743,898,1048,1174,1273,1363,1396,1394,1336,1221,1059,909,751,543,147,-352,-780,-1151,-1432,-1614,-1629,-1607,-1745,-1731,-1484,-1333,-1235,-1017,-895,-900,-969,-1062,-1085,-1026,-945,-1232,-1342,-570,1968,4235,3537,2002,1091,616,488,596,709,792,816,803,753,673,620,569,457,328,190,75,26,-13,-3,36,19,-64,-231,-476,-688,-940,-1143,-1172,-1096,-975,-896,-808,-760,-707,-672,-576,-447,-337,-197,-123,-75,-130,-179,-255,-514,-596,-451,-244,-15,187,333,485,603,701,810,930,933,481,277,743,3163,4744
2018-05-16,11:12:51.211,3396,1877,1022,435,150,101,48,-33,-130,-208,-319,-459,-613,-867,-1321,-1779,-2088,-2332,-2494,-2522,-2503,-2376,-2229,-2125,-1935,-1628,-1310,-1047,-895,-841,-763,-647,-520,-384,-232,-64,161,419,695,969,1236,1503,1710,1889,2080,2078,1950,1965,2013,2032,2027,1972,1905,1744,1554,1416,1290,1105,524,-107,38,1791,3508,2577,833,-642,-1730,-2421,-2642,-2709,-2696,-2620,-2556,-2519,-2461,-2324,-2099,-1895,-1726,-1632,-1626,-1623,-1573,-1484,-1311,-1073,-808,-498,-144,213,532,814,1065,1251,1385,1529,1630,1631,1603,1565,1513,1462,1376,1311,1246,1142,1034,926,839,585,422,431,434,380,151,-185,-487,-832,-1107,-1224,-1240,-1289,-1717,-2058,-1395,1339,3458,2237
2018-05-16,11:12:52.249,324,-965,-1838,-2275,-2309,-2247,-2143,-1959,-1738,-1505,-1235,-970,-742,-479,-260,-84,100,236,416,610,823,1027,1161,1292,1425,1508,1578,1624,1634,1596,1499,1359,1218,1087,938,753,534,301,-40,-461,-877,-1278,-1605,-1715,-1743,-1877,-1803,-1543,-1332,-1105,-876,-705,-545,-396,-230,-98,-58,-254,-909,-1157,-485,1995,3305,2047,589,-132,-596,-678,-515,-341,-197,-22,69,139,161,195,211,276,281,200,79,43,28,38,95,191,305,374,435,424,207,-83,-330,-562,-739,-850,-878,-871,-856,-826,-821,-783,-686,-541,-404,-383,-374,-443,-669,-689,-554,-435,-276,-56,121,304,517,748,1017,1222,1267,894,1048,2309,5020,5977,4459,2989
2018-05-16,11:12:53.286,2062,1423,1188,1103,1002,857,756,712,609,531,417,274,77,-253,-700,-1130,-1545,-1965,-2287,-2451,-2429,-2319,-2162,-1970,-1714,-1458,-1218,-968,-706,-520,-355,-216,-169,-177,-213,-297,-321,-272,-207,-40,176,396,675,876,900,1028,1338,1579,1790,1866,1867,1809,1743,1667,1572,1464,1179,379,267,1731,4323,4331,2660,1239,288,-393,-778,-1269,-1878,-2366,-2708,-2963,-3103,-3119,-3044,-2930,-2836,-2732,-2675,-2591,-2451,-2302,-2168,-2042,-1897,-1731,-1451,-1120,-815,-470,-127,163,423,658,896,1133,1321,1556,1774,1971,2092,2150,2176,2140,2064,1985,1924,1700,1553,1567,1592,1640,1693,1641,1544,1383,1187,943,536,-120,-1202,-2182,-2246,-298,1432,419,-1104,-2023
2018-05-16,11:12:54.323,-2613,-2738,-2560,-2308,-1993,-1749,-1544,-1402,-1379,-1464,-1589,-1679,-1700,-1602,-1469,-1321,-1076,-713,-314,78,437,844,1239,1618,1960,2252,2448,2472,2392,2245,2093,1966,1829,1636,1536,1448,1302,1172,1049,859,671,308,-421,-1115,-1486,-1771,-1973,-2015,-2010,-2026,-2054,-2024,-2016,-2059,-2057,-2548,-2732,-1667,1111,2740,1505,37,-842,-1331,-1383,-1149,-870,-592,-364,-98,193,464,711,939,1103,1190,1223,1228,1218,1174,1102,1067,1062,1044,1036,1029,1080,1153,1177,1138,1043,895,631,364,28,-406,-785,-1139,-1368,-1500,-1578,-1590,-1658,-1685,-1683,-1802,-1857,-1696,-1504,-1270,-920,-627,-389,-237,-165,-128,-112,-172,-587,-923,-222,2160,4603,3849,2173,1023,330,39
2018-05-16,11:12:55.360,103,156,197,189,188,155,117,77,46,-19,-93,-131,-198,-238,-262,-297,-348,-500,-811,-1128,-1370,-1499,-1502,-1339,-1165,-1018,-923,-893,-841,-812,-866,-838,-806,-767,-764,-778,-812,-846,-828,-731,-722,-689,-426,-117,159,470,734,931,1100,1259,1402,1554,1604,1301,994,1349,3258,5314,4571,2822,1723,1061,707,663,639,562,454,304,148,-33,-284,-634,-1134,-1774,-2416,-2909,-3106,-3005,-2796,-2535,-2200,-1890,-1612,-1266,-868,-445,-77,174,304,324,252,151,67,64,120,238,396,549,735,868,1014,1152,1231,1129,1107,1249,1358,1421,1481,1534,1531,1416,1300,1203,1080,902,254,-255,321,2586,3660,2032,254,-986,-1896,-2343,-2383,-2333
2018-05-16,11:12:56.397,-2341,-2293,-2164,-2137,-2151,-2132,-2033,-1975,-1972,-1988,-2000,-1955,-1804,-1601,-1340,-996,-616,-266,97,518,923,1297,1643,1889,2035,2127,2191,2207,2169,2103,1996,1874,1754,1621,1492,1386,1250,936,762,769,786,786,692,521,249,-168,-619,-1014,-1304,-1497,-2131,-2325,-1254,1551,2789,1413,-89,-1145,-1755,-1893,-1779,-1647,-1572,-1510,-1454,-1402,-1337,-1302,-1246,-1148,-1059,-931,-816,-660,-482,-281,-44,213,425,604,771,920,1047,1170,1210,1219,1195,1124,1058,1006,917,824,757,693,575,402,46,-314,-638,-1165,-1525,-1556,-1470,-1417,-1278,-1154,-1128,-1132,-1102,-1022,-966,-1137,-1809,-2106,-1225,1493,3097,1865,338,-381,-744,-704,-436,-230,-13,217,439,619
2018-05-16,11:12:57.435,749,872,941,943,940,941,890,848,851,872,897,974,1036,1109,1157,1220,1304,1313,1149,904,476,-100,-656,-1146,-1448,-1548,-1472,-1393,-1266,-1204,-1126,-1011,-860,-818,-701,-456,-292,-182,-55,-41,-105,-176,-173,-59,103,208,-68,-175,397,2765,4850,3726,2005,1087,490,234,225,259,265,264,225,216,195,140,62,-39,-137,-292,-446,-639,-886,-1265,-1678,-1990,-2140,-2140,-2041,-1860,-1598,-1336,-1174,-1078,-953,-820,-712,-643,-646,-672,-644,-559,-455,-371,-233,-12,65,195,547,920,1252,1571,1793,1979,2077,2155,2188,2186,2095,1528,1042,1579,3862,5405,4159,2617,1424,593,125,-36,-225,-473,-741,-1000,-1342,-1789,-2248,-2507,-2699,-2787
2018-05-16,11:12:58.472,-2824,-2832,-2801,-2747,-2642,-2402,-2073,-1672,-1246,-870,-575,-329,-152,-43,22,45,72,117,240,385,540,713,875,1003,1117,1188,1252,1200,1022,1009,1084,1124,1126,1066,1071,1017,952,897,813,706,254,-446,-295,1458,3643,2839,847,-738,-1822,-2505,-2728,-2822,-2845,-2786,-2735,-2676,-2518,-2322,-2174,-2076,-2000,-1978,-1925,-1792,-1630,-1389,-1084,-731,-379,-39,338,744,1122,1510,1871,2156,2354,2409,2415,2385,2322,2229,2143,2014,1855,1725,1560,1431,1317,1054,867,843,746,556,329,-78,-543,-1060,-1508,-1808,-1908,-2090,-2742,-2748,-1477,1387,2576,1384,-44,-979,-1331,-1222,-1014,-909,-914,-934,-965,-941,-811,-630,-392,-142,82,208,331,454,637,815
2018-05-16,11:12:59.509,996,1165,1329,1490,1631,1805,1937,2016,2017,1965,1854,1722,1562,1373,1173,1024,829,578,177,-372,-890,-1316,-1832,-2250,-2243,-2098,-2042,-1915,-1741,-1521,-1395,-1314,-1286,-1274,-1391,-1818,-2061,-1506,889,3213,2589,1121,381,-36,-113,113,341,512,630,731,790,819,822,812,726,593,477,392,263,169,126,92,88,44,-4,-105,-309,-630,-1118,-1663,-2065,-2233,-2144,-1963,-1754,-1593,-1436,-1234,-1070,-951,-835,-704,-485,-411,-417,-261,-142,-113,-24,62,161,271,413,575,750,893,622,312,900,3151,5504,4585,2825,1582,826,402,292,245,171,102,32,-35,-115,-193,-298,-447,-636,-865,-1215,-1676,-2130,-2398,-2455,-2388,-2204,-2041,-1883,-1660
2018-05-16,11:13:00.546,-1449,-1309,-1082,-888,-757,-637,-581,-516,-442,-334,-223,-105,15,149,322,544,648,795,1129,1477,1745,2008,2200,2308,2345,2347,2298,2266,2094,1420,871,1455,3729,5287,4027,2351,1075,188,-362,-652,-959,-1371,-1830,-2290,-2687,-3003,-3233,-3336,-3338,-3315,-3277,-3307,-3344,-3260,-3010,-2601,-2142,-1649,-1221,-937,-739,-552,-370,-151,83,298,522,731,974,1208,1430,1602,1692,1771,1809,1758,1770,1697,1494,1483,1566,1620,1692,1672,1600,1504,1400,1275,1135,968,448,-266,-356,1032,3057,2214,235,-1186,-1998,-2477,-2524,-2526,-2479,-2407,-2305,-2172,-2107,-2079,-2094,-2087,-2044,-1964,-1850,-1721,-1524,-1251,-904,-506,-117,256,638,1037,1390,1730,1999,2195,2292,2351
2018-05-16,11:13:01.583,2432,2438,2365,2259,2181,2044,1895,1735,1562,1368,1150,764,380,117,-266,-884,-1623,-2389,-2823,-2835,-2630,-2389,-2168,-2119,-2548,-2541,-1390,1613,3258,1987,349,-602,-1209,-1401,-1401,-1361,-1273,-1120,-907,-637,-390,-175,9,174,310,380,426,454,518,607,798,951,1062,1167,1284,1409,1520,1616,1645,1575,1413,1218,946,568,49,-462,-880,-1134,-1277,-1367,-1396,-1398,-1594,-1640,-1489,-1388,-1252,-1039,-867,-740,-644,-554,-437,-314,-354,-820,-793,421,3129,4494,3336,1949,1055,548,521,721,898,991,1016,1026,1011,969,887,783,609,472,353,212,112,50,20,13,-56,-188,-409,-765,-1166,-1511,-1639,-1613,-1567,-1516,-1412,-1372,-1302,-1257,-1177,-1051
2018-05-16,11:13:02.621,-893,-676,-512,-390,-326,-381,-588,-574,-418,-282,-32,279,509,678,844,1020,1210,1363,1191,671,873,2388,4976,4784,3032,1719,948,514,381,314,263,164,39,-50,-121,-333,-631,-1105,-1647,-2157,-2605,-2850,-2883,-2796,-2572,-2343,-2041,-1755,-1492,-1193,-872,-591,-381,-338,-343,-427,-477,-477,-417,-300,-136,100,371,614,829,1034,1238,1287,1279,1508,1761,1943,2134,2168,2187,2142,2039,1939,1810,1638,1141,549,679,2558,4228,3258,1700,550,-489,-1427,-2060,-2594,-2986,-3134,-3083,-2913,-2762,-2636,-2457,-2256,-2025,-1790,-1641,-1510,-1399,-1301,-1174,-1048,-879,-655,-383,-59,312,673,998,1324,1577,1755,1880,1923,1903,1850,1756,1656,1556,1454,1399,1316
2018-05-16,11:13:03.658,1163,837,781,820,823,837,785,665,410,17,-407,-763,-1085,-1644,-2311,-2063,-40,2414,1881,210,-1144,-1984,-2334,-2315,-2242,-2192,-2133,-2032,-1873,-1699,-1528,-1340,-1131,-966,-791,-604,-405,-180,53,354,721,1035,1302,1507,1672,1808,1887,1892,1837,1708,1593,1466,1321,1218,1111,1033,937,806,614,263,-188,-724,-1424,-2057,-2253,-2234,-2184,-1996,-1838,-1758,-1622,-1435,-1185,-897,-674,-991,-1293,-777,1381,3535,2639,888,-158,-701,-818,-634,-431,-250,-41,181,386,525,573,579,580,544,512,503,488,492,597,711,809,907,1005,1062,1123,1219,1277,1232,1103,784,343,-79,-503,-903,-1190,-1295,-1307,-1302,-1333,-1382,-1269,-1181,-1245,-1167,-970,-858
2018-05-16,11:13:04.695,-679,-489,-383,-281,-125,44,228,386,383,-12,153,1432,4235,4850,3322,2003,1305,937,904,914,872,777,634,520,408,227,77,-48,-222,-377,-548,-778,-1089,-1483,-1930,-2350,-2596,-2642,-2472,-2176,-1852,-1574,-1319,-1139,-986,-822,-692,-555,-390,-286,-197,-128,-122,-88,-90,-14,104,-14,84,367,622,889,1154,1313,1408,1426,1383,1388,1375,1209,559,368,1215,4033,4902,3231,1627,724,23,-295,-402,-526,-859,-1408,-1912,-2305,-2567,-2704,-2720,-2666,-2605,-2527,-2425,-2343,-2227,-1998,-1743,-1477,-1252,-1070,-901,-676,-433,-219,-7,149,307,508,738,902,1118,1315,1488,1649,1753,1756,1745,1763,1617,1411,1417,1496,1526,1590,1558,1501,1438,1349
2018-05-16,11:13:05.732,1291,1160,879,100,-435,57,2089,3258,1777,-25,-1177,-1853,-2038,-1971,-1942,-1934,-1909,-1875,-1809,-1699,-1603,-1562,-1534,-1553,-1551,-1499,-1418,-1304,-1135,-889,-606,-277,53,441,812,1173,1500,1679,1766,1729,1625,1485,1352,1229,1117,1080,1009,909,835,766,699,530,249,236,216,108,-41,-340,-607,-898,-1199,-1344,-1406,-1580,-2148,-2717,-1909,1027,3317,2203,521,-818,-1718,-2142,-2110,-1912,-1702,-1470,-1222,-929,-658,-405,-206,-35,135,265,421,550,721,909,1084,1273,1401,1453,1448,1473,1538,1601,1579,1491,1377,1245,1101,911,616,230,-262,-756,-1105,-1318,-1403,-1418,-1332,-1353,-1466,-1379,-1131,-985,-777,-565,-455,-365,-258,-242,-307,-407,-728,-1304
2018-05-16,11:13:06.769,-1031,604,3508,3586,1854,571,-9,-249,-143,1,100,166,199,218,234,217,182,136,94,39,-22,-62,-67,-67,-1,67,142,154,148,9,-193,-454,-629,-782,-912,-955,-979,-990,-980,-991,-950,-885,-804,-743,-771,-872,-956,-1108,-1165,-950,-704,-442,-111,156,425,604,754,949,1095,1154,837,613,1183,3367,5104,4129,2574,1522,834,487,372,262,188,156,75,-30,-117,-239,-426,-665,-908,-1284,-1713,-2036,-2076,-1982,-1864,-1731,-1595,-1451,-1283,-1045,-768,-527,-308,-127,-19,57,57,40,48,75,109,187,274,353,386,479,595,557,639,883,1068,1204,1280,1260,1238,1165,1057,1014,952,735,3,-291,779,3414,4021,2425
2018-05-16,11:13:07.807,1051,-11,-877,-1515,-1931,-2296,-2552,-2627,-2633,-2586,-2505,-2389,-2316,-2295,-2258,-2183,-2154,-2093,-2018,-1873,-1704,-1494,-1278,-986,-651,-307,80,422,726,940,1116,1191,1288,1415,1506,1571,1631,1673,1683,1685,1640,1616,1569,1340,1201,1242,1330,1386,1432,1430,1292,1145,989,790,556,184,-729,-1363,-732,1711,2574,1139,-372,-1312,-1875,-1931,-1820,-1720,-1592,-1487,-1376,-1304,-1272,-1281,-1316,-1396,-1516,-1541,-1496,-1344,-1138,-874,-595,-333,-3,331,615,928,1194,1393,1499,1537,1510,1445,1407,1366,1284,1211,1128,1028,923,843,719,589,454,101,-295,-591,-814,-997,-1098,-1210,-1261,-1282,-1311,-1379,-1363,-1354,-1742,-1830,-840,1900,3176,1813,403,-430,-950,-1023
2018-05-16,11:13:08.844,-857,-709,-531,-393,-248,-93,71,246,377,481,545,607,634,684,790,852,933,1051,1132,1207,1290,1417,1500,1616,1566,1469,1303,1085,780,340,-162,-581,-854,-1082,-1221,-1281,-1341,-1372,-1365,-1403,-1375,-1106,-858,-722,-544,-484,-527,-561,-550,-473,-341,-207,-451,-770,-57,2352,4903,4281,2662,1490,789,420,341,286,227,168,124,82,37,-4,-86,-137,-241,-286,-381,-479,-641,-923,-1320,-1683,-1940,-2072,-2068,-1972,-1809,-1599,-1474,-1327,-1209,-1072,-961,-939,-931,-867,-778,-634,-407,-188,-45,77,258,426,364,486,805,1113,1427,1741,1935,2043,2078,2113,2129,2081,1785,1070,1011,1956,4512,5240,3412,1623,641,19,-238,-413,-646,-968
2018-05-16,11:13:09.881,-1404,-1960,-2469,-2780,-2943,-2977,-2935,-2922,-2886,-2840,-2742,-2575,-2328,-1994,-1588,-1168,-754,-352,-23,221,335,365,374,411,458,547,682,768,904,1028,1116,1254,1371,1417,1441,1470,1404,1222,1216,1322,1409,1496,1514,1475,1389,1310,1193,1066,931,606,-205,-555,299,2571,2173,327,-1114,-1988,-2528,-2632,-2560,-2525,-2455,-2344,-2212,-2073,-2015,-2002,-2024,-2054,-2022,-1898,-1739,-1514,-1209,-844,-459,-87,212,517,878,1273,1644,1919,2092,2171,2167,2175,2198,2199,2143,2043,1935,1796,1637,1525,1383,1194,1048,676,287,25,-344,-796,-1200,-1513,-1680,-1685,-1598,-1483,-1437,-1520,-1994,-2128,-1018,1789,3087,1819,322,-673,-1343,-1626,-1638,-1578,-1431,-1231,-1036,-829
2018-05-16,11:13:10.918,-630,-507,-345,-117,88,209,280,346,443,585,700,792,839,863,974,1097,1168,1191,1236,1137,968,758,422,-158,-780,-1275,-1519,-1725,-1812,-1821,-1906,-1919,-1892,-2119,-2268,-2131,-1968,-1781,-1607,-1476,-1336,-1137,-884,-710,-474,-332,-615,-518,665,3537,5140,3857,2561,1745,1284,1242,1335,1262,1092,985,871,730,573,412,298,183,84,-6,-77,-173,-342,-590,-952,-1400,-1711,-1882,-1922,-1743,-1468,-1237,-1031,-854,-783,-718,-732,-755,-718,-638,-503,-319,-144,-12,-7,-29,11,127,96,152,387,636,975,1279,1423,1538,1639,1734,1797,1831,1743,1185,955,1523,3912,5088,3797,2262,1348,698,405,267,143,33,-116,-311,-501,-827,-1371,-1992
2018-05-16,11:13:11.955,-2484,-2742,-2915,-2969,-2944,-2835,-2702,-2473,-2226,-1938,-1649,-1324,-1002,-729,-531,-386,-323,-278,-229,-130,2,172,332,459,628,823,993,1165,1284,1404,1466,1347,1359,1481,1553,1653,1742,1744,1685,1590,1465,1370,1311,1099,398,167,1074,3252,3507,1832,196,-1055,-2030,-2442,-2565,-2615,-2607,-2552,-2435,-2321,-2166,-1953,-1726,-1552,-1418,-1364,-1367,-1371,-1330,-1229,-1067,-852,-606,-342,-20,385,761,1092,1414,1614,1695,1734,1687,1600,1518,1440,1338,1247,1176,1052,913,826,751,448,243,165,29,-215,-560,-1054,-1540,-1836,-2007,-2040,-2054,-2259,-2889,-3053,-1830,1221,2277,737,-900,-2128,-2974,-3327,-3355,-3222,-2921,-2597,-2258,-1865,-1441,-1044,-649,-278,25,318
2018-05-16,11:13:12.993,590,836,1060,1271,1424,1593,1751,1871,1947,2041,2110,2148,2186,2164,2107,2058,1997,1931,1832,1720,1594,1440,1073,561,43,-606,-1044,-1274,-1509,-1422,-1189,-1007,-739,-446,-227,2,177,286,343,367,153,-472,-574,353,3123,4265,2681,1093,346,-205,-416,-396,-417,-463,-494,-504,-482,-465,-445,-419,-417,-443,-448,-471,-467,-442,-416,-330,-238,-192,-200,-226,-425,-888,-1335,-1729,-1858,-1822,-1761,-1667,-1533,-1412,-1356,-1270,-1120,-977,-859,-815,-817,-855,-1110,-1300,-1209,-1048,-833,-484,-176,135,462,787,1089,1413,1664,1454,1167,1768,4231,6347,5340,3658,2469,1608,1127,973,856,709,578,436,266,85,-122,-333,-574,-860,-1063,-1343,-1806,-2061
2018-05-16,11:13:14.030,-2121,-2051,-1931,-1789,-1685,-1617,-1452,-1078,-694,-372,-150,-7,2,-18,-34,-8,48,185,309,430,638,843,944,1008,953,762,734,720,653,553,357,201,57,-103,-198,-259,-308,-664,-1497,-1656,-205,2069,1731,103,-1500,-3025,-4485,-5415,-5943,-6310,-6548,-6717,-6818,-6766,-6528,-6105,-5621,-5094,-4545,-4115,-3782,-3467,-3022,-2487,-1850,-1104,-258,630,1472,2310,3143,3856,4448,4858,5101,5196,5172,5128,4967,4848,4733,4674,4577,4393,4220,4082,3869,3493,3348,3306,3179,3000,2794,2471,2094,1615,995,251,-477,-1002,-1610,-1271,589,3829,4292,2316,717,-169,-444,-297,-117,64,200,227,140,83,81,70,160,93,67,94,129,115,118,159,190,150
2018-05-16,11:13:15.067,479,694,904,1147,1318,1442,1568,1562,1530,1448,1302,1114,901,716,503,252,58,-126,-430,-747,-1130,-1667,-1794,-1660,-1630,-1639,-1554,-1533,-1508,-1477,-1435,-1240,-1155,-1206,-1802,-2108,-1316,1521,2541,1196,62,-445,-871,-1031,-965,-909,-720,-547,-350,-97,45,173,217,225,260,199,242,265,327,469,705,872,1017,1178,1365,1540,1638,1571,1387,1145,833,428,-25,-528,-810,-775,-789,-695,-589,-525,-529,-445,-312,-406,-488,-352,-204,-131,-113,-73,-61,-152,-139,-37,63,227,157,-333,-634,1231,3956,3381,1881,853,193,-164,-229,-216,-216,-261,-322,-338,-356,-412,-526,-625,-814,-1028,-1257,-1569,-1960,-2441,-2856,-3054,-3108,-3006,-2762,-2420
2018-05-16,11:13:16.104,-1998,-1618,-1306,-1097,-819,-588,-467,-375,-350,-425,-424,-328,-214,-53,146,410,681,774,956,1341,1692,2013,2313,2490,2606,2611,2585,2550,2509,2352,1685,1215,2069,4569,5503,3997,2567,1440,551,-69,-430,-898,-1517,-2176,-2693,-2979,-3017,-2893,-2739,-2629,-2548,-2478,-2392,-2302,-2236,-2082,-1822,-1515,-1180,-820,-468,-133,146,360,556,669,743,819,874,943,1032,1110,1225,1352,1471,1579,1608,1622,1549,1277,1215,1247,1268,1336,1331,1277,1211,1145,1012,909,772,376,-439,-730,319,2560,2065,195,-1217,-2072,-2727,-2940,-2884,-2784,-2710,-2661,-2598,-2477,-2368,-2297,-2265,-2267,-2261,-2186,-2034,-1787,-1488,-1111,-681,-266,151,497,864,1254,1632,1893,2009,2044
2018-05-16,11:13:17.141,2083,2081,2031,1955,1858,1765,1687,1615,1544,1478,1395,1371,1201,919,847,799,653,506,180,-308,-805,-1184,-1502,-1637,-1608,-1779,-2276,-1980,-13,2571,2243,637,-504,-1183,-1466,-1354,-1261,-1259,-1275,-1325,-1376,-1375,-1306,-1216,-1116,-1011,-862,-736,-533,-264,10,360,658,873,1074,1299,1535,1696,1813,1885,1845,1757,1634,1477,1303,1164,1028,877,692,427,-73,-763,-1303,-1735,-2163,-2294,-2193,-2077,-1899,-1710,-1591,-1462,-1306,-1180,-1066,-976,-1110,-1666,-1746,-701,1894,2699,1506,426,-172,-545,-562,-418,-242,-37,83,170,283,403,443,452,437,350,235,142,111,110,159,252,348,455,544,618,660,627,489,224,-187,-589,-903,-1128,-1245,-1310
2018-05-16,11:13:31.608,630,401,450,700,974,1284,1596,1994,2398,2713,2940,3358,3707,3706,3557,3485,3437,3321,3094,2509,1693,2014,3748,5281,3623,667,-1986,-4269,-5937,-5992,-5091,-4403,-3916,-3426,-3023,-2567,-2248,-2144,-2264,-2500,-2963,-3478,-3892,-3928,-3780,-3543,-3118,-2148,-1300,-572,226,1066,1626,1916,2072,2546,2705,2720,2705,2508,2362,2237,2017,1821,1784,1678,992,-1049,-3008,-3817,-3709,-3214,-2216,-1280,-698,-268,-28,227,445,279,-438,-510,857,3007,2838,1175,-131,-882,-1154,-901,-514,-134,391,802,1240,1631,1862,2079,2169,2170,2091,2040,2566,4041,3475,2602,2328,2187,1786,1015,26,-1266,-1777,-1189,-244,243,-103,-471,-705,-865,-1237,-1742,-2100,-2453,-2932,-3198,-3290,-3484
2018-05-16,11:13:32.770,-3853,-3698,-3362,-3046,-2616,-2010,-1438,-877,-288,283,745,1001,648,79,843,3123,5116,3950,1657,-504,-2291,-3418,-3714,-3529,-2957,-2152,-1385,-862,-534,-283,-103,198,436,658,1014,1220,1331,1346,1405,1318,1343,1530,1676,1788,1860,2030,2150,2086,2087,2090,2032,1943,1941,1683,1570,1363,1184,1094,981,918,184,-2073,-4369,-5626,-5837,-5247,-4338,-3532,-2926,-2399,-1931,-1458,-1250,-1541,-2034,-1440,540,3197,2354,-66,-1733,-2436,-2728,-2308,-1389,-1008,-505,163,671,1117,1570,1829,1908,2148,2101,1730,1331,1006,796,685,646,-614,-4081,-6971,-7218,-4940,-2616,-1124,-230,217,648,859,864,949,1238,1592,1913,2085,1871,1387,687,226,-243,-390,-164,276,986,1616
2018-05-16,11:13:33.807,2269,2996,3212,3620,3918,4025,3865,3105,3157,4862,7444,7205,5147,3588,2500,1564,476,-1091,-3396,-5544,-6360,-5640,-4739,-4167,-3750,-3504,-3194,-2805,-2669,-2796,-2990,-3425,-3959,-4022,-3765,-3505,-2954,-2039,-1240,-268,635,1152,1769,2425,2811,3082,3264,3589,4077,4034,3667,3504,3250,3047,2865,2447,1967,132,-2131,-3057,-2328,-1715,-1210,-811,-740,-687,-497,-662,-1222,-843,852,3211,2701,230,-1533,-2479,-2645,-2276,-1870,-1391,-878,-510,-15,643,872,1182,1663,1825,1828,1472,1973,2056,1588,1554,1697,1892,2081,2276,2415,1913,850,-687,-2105,-2644,-2349,-1869,-1650,-1648,-1647,-1754,-1921,-1919,-1977,-2317,-2980,-3386,-3482,-3334,-3002,-2623,-1988,-983,-636,133,788,1075,1156,1392
2018-05-16,11:13:34.844,1318,-88,749,4045,7464,7212,5072,3497,2282,1544,1434,1495,966,-1422,-3649,-3646,-3425,-2953,-2404,-2251,-2120,-1996,-1969,-1855,-1734,-1583,-1764,-1987,-2425,-2637,-2625,-2341,-1894,-1325,-717,199,1151,2244,3115,3429,3790,3909,4197,4059,3986,3962,3767,3562,3503,3112,2997,3109,3103,3090,2669,632,-1092,-2378,-2801,-2616,-2133,-1930,-2312,-2090,-536,2847,3943,2219,370,-1316,-2622,-3203,-3447,-3360,-2946,-2416,-1714,-586,236,875,1561,2190,2307,2364,2448,2410,2639,2934,2916,2658,2768,2895,2931,3045,3534,2479,-2124,-4501,-3368,-2532,-1729,-1335,-1132,-935,-720,-511,-307,84,369,294,119,-2,61,130,190,279,304,384,544,556,801,1195,1135,647,822,2637,5689,6418
2018-05-16,11:13:35.882,4862,2621,1328,595,251,316,319,496,591,828,1963,2054,-1057,-4815,-5897,-4838,-3868,-3568,-3453,-3381,-3410,-3508,-3458,-3449,-3677,-3545,-3259,-3302,-2900,-1947,-1380,-976,-297,-67,48,763,1177,1289,1327,1663,1894,2132,2362,2366,2406,2340,2418,2519,2495,2775,739,-2802,-3389,-2755,-2346,-2215,-2495,-1867,553,2875,2251,557,-751,-1524,-1841,-1996,-2181,-2284,-2145,-1891,-1790,-1478,-991,-568,-243,52,490,738,729,811,995,1221,1427,1182,1604,1895,2128,2189,2355,2562,2739,2837,2347,770,-1298,-3322,-3857,-2925,-2255,-1920,-1489,-1255,-1202,-1384,-1495,-1640,-1917,-2336,-2552,-2252,-2098,-1655,-1083,-277,464,876,787,702,1519,4469,7179,5883,4048,2959,2119,1413,1239,1122
2018-05-16,11:13:36.919,1208,1182,1152,1126,1044,1742,1824,-2038,-4111,-4025,-4246,-4003,-3662,-3436,-3120,-2676,-2133,-1629,-1158,-1095,-1187,-1273,-1393,-1373,-1240,-1048,-989,-804,-383,74,241,593,907,948,1097,1314,1354,1578,1641,1808,1799,1865,1913,1874,1886,1979,2391,2324,-554,-2650,-2577,417,1386,212,-1030,-1689,-1857,-1660,-1489,-1405,-1508,-1744,-2044,-2428,-2955,-3104,-3216,-3162,-2845,-2463,-2067,-1680,-909,-230,637,1104,1499,2080,2356,2882,3222,3376,3351,3201,3122,3112,2964,2944,2604,656,-1396,-1950,-2180,-2032,-1720,-1732,-1645,-1320,-1114,-953,-754,-892,-1319,-1677,-1819,-1780,-1520,-1554,-1514,-364,2235,4810,4544,3413,2633,2005,1877,2271,2162,2047,2092,1978,1890,1722,1721,1681,1602,1391
2018-05-16,11:13:37.956,1245,892,-595,-2293,-3946,-4474,-3917,-2801,-2090,-1670,-1086,-563,-251,-90,-117,-544,-1111,-1468,-1931,-1873,-1638,-1261,-789,-320,189,684,1373,1555,1688,2191,2394,2490,2792,2872,2720,2594,2423,2134,1294,679,1144,2991,2538,-1215,-3950,-4748,-4871,-4224,-3174,-2736,-2364,-1887,-1386,-753,-270,108,59,-336,-654,-658,-653,-567,-406,-91,187,229,880,1662,1965,2092,2589,2925,2922,3049,3136,2763,2175,2256,2078,2208,2266,2290,3737,6044,5177,1640,-1391,-3134,-3050,-2181,-1625,-1481,-1635,-1749,-1881,-2236,-2837,-4025,-4478,-3667,-553,335,-1463,-2603,-3025,-3195,-3002,-2769,-2456,-1474,-1013,-768,-334,-6,148,316,253,-52,29,42,40,34,236,552,344,-2012,-4876,-6413
2018-05-16,11:13:38.993,-6989,-5523,-3651,-2564,-1918,-1492,-1392,-1503,-1605,-1664,-1931,-2311,-2563,-2681,-2753,-2497,-1926,-1206,-458,528,1527,2198,2881,3993,4538,4751,4946,4408,3490,4235,6925,8724,7447,5497,3980,2931,2414,2338,1415,-925,-3408,-5678,-6212,-5328,-4497,-3792,-3235,-2825,-2487,-2333,-2216,-2306,-2739,-2791,-2349,-1985,-1566,-868,-128,593,1276,2028,2775,3147,3452,3743,3713,3759,3869,3897,3913,3825,3700,3261,3031,3030,2907,2749,1171,-1631,-3414,-3973,-3520,-2835,-2435,-2422,-2744,-2234,-486,2387,3210,1728,-17,-1398,-2545,-2924,-2783,-2456,-2188,-1919,-1437,-895,-422,-51,321,904,1385,1389,1244,1342,1464,1391,1503,1660,1728,1939,2282,2622,3002,1863,-524,-2363,-3108,-2742,-1873,-1431,-1084,-724
2018-05-16,11:13:40.030,-393,-145,77,70,69,392,121,-244,-320,-654,-991,-1154,-976,-823,-617,-131,-651,-121,2916,6334,6286,4507,2972,1799,1010,739,655,584,531,599,-149,-2855,-5055,-5085,-4612,-4048,-3252,-2870,-2585,-2432,-2287,-2072,-2005,-1902,-1930,-2110,-2394,-2443,-2335,-2130,-1860,-1512,-603,89,463,1153,2072,2482,2627,2941,2906,2704,2802,3005,2955,2919,2844,2736,2634,2684,2794,2131,-145,-2484,-4653,-4859,-1757,2128,1866,331,-923,-1665,-2018,-1705,-1434,-1659,-2136,-2558,-2879,-2993,-2940,-2568,-2070,-1545,-1018,-416,506,1118,1661,2037,2471,2865,3221,3624,3779,4214,4436,4216,4119,3999,3919,3791,3630,3504,2708,120,-1694,-2549,-3366,-3397,-3132,-2962,-2801,-2477,-2181,-2105,-2118,-2215
2018-05-16,11:13:41.068,-2616,-2892,-2994,-3551,-3558,-2135,908,2740,1960,832,374,530,941,1317,1837,2063,2159,2358,2105,2086,1912,1819,1770,1786,1816,1977,1675,-187,-2490,-4983,-6084,-5357,-3923,-2900,-2200,-1599,-1109,-819,-545,-340,-451,-832,-1264,-1661,-2003,-2105,-1977,-1850,-1679,-1269,-402,651,1478,2125,2697,3051,3396,3747,4066,3708,2518,2921,5304,8403,8199,5984,4286,2669,9,-2320,-3340,-3826,-3864,-3334,-2735,-2444,-2448,-2655,-2989,-3501,-4140,-4870,-5875,-6682,-7009,-6808,-6167,-5591,-4781,-3854,-2991,-1885,-749,232,1069,1834,2554,3029,3467,3534,3649,3828,3924,4087,4128,4554,4880,4330,2641,332,-876,-466,360,882,1094,940,338,-521,-200,2085,4714,3897,1645,-535,-2286,-3332,-3680,-3660
2018-05-16,11:13:42.105,-3439,-3161,-2422,-1570,-1114,-306,34,505,1055,1508,1876,2068,2131,2209,2237,2415,2650,2885,2352,439,-1329,-1932,-1541,-656,217,810,1032,965,789,493,106,-290,-681,-1838,-3088,-3974,-4918,-5519,-5287,-4686,-4076,-3407,-2590,-1752,-1190,-837,-745,490,4405,7305,6154,4663,3059,2275,1985,2092,2485,2941,3269,2975,1535,-619,-1921,-1609,-915,-405,-184,-119,-290,-570,-890,-1185,-1316,-1351,-1781,-2323,-2649,-2826,-2682,-2203,-1633,-1093,-595,27,739,1519,2258,2741,2919,3078,3413,3716,3849,3932,4019,4043,3954,3990,4045,3978,2308,-575,-2751,-4119,-2914,677,3481,2458,563,-1034,-2310,-2951,-3106,-3338,-3719,-3926,-3838,-3585,-3224,-2919,-2621,-2151,-1454,-865,-188,400,1102,1734
2018-05-16,11:13:43.142,2367,2843,3320,3428,3348,3288,3366,3360,3302,3382,3550,3201,1371,-1447,-3906,-4722,-4156,-3264,-2770,-2546,-2150,-1800,-1629,-1424,-1427,-1702,-1833,-2281,-2613,-2614,-2566,-2844,-2366,-498,3362,4978,4109,3373,2912,2414,2553,3037,3211,3173,3151,3142,2953,2690,2531,2369,2125,1996,711,-2462,-4947,-5547,-4452,-3315,-2532,-2124,-1949,-1709,-1479,-1150,-859,-625,-563,-743,-1162,-1733,-2280,-2397,-2386,-2089,-1671,-1032,-169,560,1769,2704,3267,3651,4098,4451,4633,4490,4031,3090,2911,4419,6787,6849,4934,3304,1057,-2636,-5834,-8249,-8524,-7307,-5902,-4910,-4206,-3547,-2902,-2322,-1926,-2006,-2317,-2650,-3028,-3068,-2905,-2464,-2029,-1573,-964,-147,613,1085,1654,2238,2650,2880,3287,3466,3553,3476
2018-05-16,11:13:44.179,3569,3515,3253,3177,3301,2458,220,-1357,-1976,-1987,-1703,-1229,-895,-1010,-1487,-1913,-1151,1298,3388,2258,41,-1863,-2927,-3239,-3127,-2819,-2177,-1644,-1233,-704,-259,394,1080,1275,1394,1669,1978,2069,2218,2293,2278,2329,2442,2517,2738,2645,848,-1545,-3640,-4731,-4940,-4169,-3091,-2577,-2167,-1705,-1276,-1163,-1279,-1169,-1535,-1940,-1685,-1350,-1083,-775,-457,-72,679,974,902,1148,2745,6303,8517,6903,5461,4281,3282,2815,2541,2410,2357,2345,2461,2509,1359,-1627,-3404,-3704,-3602,-3360,-2964,-2827,-2724,-2473,-2132,-1941,-1659,-1441,-1680,-2242,-2492,-2480,-2461,-2334,-1870,-1351,-873,-286,731,1217,1974,2782,2860,3081,3645,4311,4460,4164,3936,3829,3608,3522,3509,3359,2908,2455
2018-05-16,11:13:45.216,1143,1243,-327,-3203,-4117,-3985,-3965,-3740,-3346,-2991,-2733,-2589,-2412,-2790,-3447,-3826,-3992,-3982,-3556,-2981,-2251,-1550,-891,27,931,1705,2431,2969,3255,3548,3856,4094,4058,3857,3635,3414,3179,3047,2190,-400,-2628,-4145,-5133,-4804,-3692,-2786,-2146,-1829,-1795,-1865,-1953,-2278,-3184,-4675,-5596,-4789,-1733,905,543,-356,-366,-122,519,1607,2648,3072,3491,4105,4320,4060,4126,4034,3587,3238,3012,2669,2560,2715,1932,-540,-3085,-4963,-5594,-5175,-4174,-3330,-2650,-2085,-1608,-1296,-1054,-930,-1219,-1677,-1968,-1914,-1779,-1530,-1107,-462,340,1178,1831,2496,3015,3480,3623,3742,3598,2819,3291,5842,8357,7312,5194,3499,2366,1454,7,-3350,-6074,-7125,-6636,-5574,-4491,-4005,-3715,-3534
2018-05-16,11:13:46.254,-3395,-3093,-2556,-2059,-1691,-1535,-1575,-1595,-1297,-876,-517,-160,254,846,1572,2132,2683,3243,3541,3835,3935,4128,4119,3874,3624,3649,3412,3300,3334,3236,3121,2898,1462,-1591,-4579,-7499,-9057,-7843,-4610,-397,851,-642,-2137,-2761,-2959,-3021,-3425,-3754,-3826,-4027,-3839,-3556,-3173,-2662,-2085,-1644,-1157,-358,401,1145,1639,2193,2908,3384,3744,3931,3971,4002,4073,4171,4217,3738,1526,-367,-1795,-2981,-2958,-2446,-2156,-1940,-1685,-1577,-1630,-1682,-1842,-2242,-2609,-2525,-2318,-2009,-1672,-1770,-1172,1217,4526,5292,4177,3220,2899,2564,2830,3236,3080,3124,3081,3060,2975,2859,2852,2879,2606,1050,-1499,-3787,-5862,-6360,-5398,-4263,-3578,-3075,-2638,-2340,-2033,-1895,-2121,-2372,-2671,-2712
2018-05-16,11:13:47.291,-2663,-2231,-1613,-849,-115,478,1005,1705,2578,3360,3930,4628,4918,4879,4839,4719,4526,4120,3039,2566,3167,5051,3476,-681,-3126,-4184,-4932,-4712,-3891,-3375,-3072,-2910,-2704,-2381,-1754,-1232,-1243,-1395,-1872,-2260,-2255,-2111,-1806,-1165,-425,297,1062,2109,2682,3504,4145,4559,4939,4741,4612,4315,4124,3798,3517,3367,3179,3181,3099,1457,-1345,-3535,-5229,-5256,-4209,-3200,-2611,-2090,-1757,-2016,-2189,-1110,1690,2990,1088,-1290,-2706,-3396,-3451,-3030,-2375,-1675,-1192,-560,313,1027,1558,2055,2265,2294,2380,2383,2494,2535,2510,2495,2585,2664,2719,2880,1910,-798,-2274,-2664,-2996,-2512,-1893,-1642,-1709,-1836,-2011,-2285,-2774,-3158,-3394,-3614,-3619,-2997,-2451,-2192,-1947,-1411,-643,-111
2018-05-16,11:13:48.328,274,407,1562,4324,7259,7078,5465,4253,3118,2268,1958,1851,1914,1974,2040,1973,1125,-676,-3098,-5175,-5792,-4984,-4315,-3815,-3306,-3006,-2717,-2713,-2858,-3305,-3916,-4408,-4354,-3746,-3017,-2304,-1478,-625,285,1117,1827,2362,2993,3670,4035,4199,4264,4434,4751,4711,4328,3812,3324,2830,2135,-221,-5102,-9309,-10447,-6848,-3871,-3280,-3255,-3233,-2969,-2430,-1892,-1178,-238,731,1330,1638,1718,1544,1141,688,628,517,678,1261,1831,2328,2864,3462,3856,3935,3929,3853,3669,3345,3142,2967,2745,2935,3292,3146,1636,-1371,-3178,-3656,-3187,-2386,-1845,-1421,-1080,-887,-933,-1117,-1410,-1559,-2275,-3422,-3692,-2114,1318,2253,442,-1139,-2189,-2293,-2018,-1996,-1736,-947,-557,-130,366,851
2018-05-16,11:13:49.365,972,1066,1294,1251,1038,1006,1190,1394,410,-2279,-3919,-3694,-3036,-2527,-1756,-1197,-868,-809,-955,-1157,-1458,-1896,-2356,-3068,-3687,-4246,-4529,-4350,-3877,-3095,-2264,-1498,-655,307,1450,2498,3238,3622,3312,4093,7071,10424,10139,7713,5233,3426,3314,3374,2973,1525,-948,-3611,-5554,-5902,-4939,-3835,-3207,-2669,-2230,-1969,-1821,-1792,-2011,-2232,-2510,-2910,-3182,-3246,-2967,-2413,-1790,-1200,-645,-44,854,1714,2462,3179,3877,4449,4751,4752,4815,4805,4679,4429,3992,3204,792,-2332,-3619,-3227,-3330,-3663,-2685,-126,3389,3752,2067,585,-480,-1099,-1480,-2176,-2889,-3325,-3153,-2738,-2113,-1350,-600,108,944,1964,2694,3342,3813,4363,4863,5067,4976,4891,4730,4464,4139,3943,3886,3792
2018-05-16,11:13:50.402,3642,2879,1119,-874,-2440,-3862,-4338,-3983,-3634,-3387,-3282,-3162,-2709,-2296,-2213,-2267,-2573,-2988,-3170,-3434,-4054,-3625,-1494,2793,4194,2929,1630,1198,1309,1929,2364,2852,3504,3571,3717,3576,3098,2701,2430,2094,1695,891,-2235,-6274,-7581,-5956,-3908,-2669,-1947,-1522,-1230,-1038,-817,-481,-236,-188,-143,-472,-1170,-1799,-2133,-2186,-2053,-1580,-800,227,1335,2210,2926,3883,4564,4952,5119,5357,4723,3650,3819,5801,8160,7852,5835,4158,2951,1489,-514,-2835,-4771,-5889,-5828,-5116,-4510,-4275,-4010,-3730,-3403,-3101,-2954,-3161,-3578,-3964,-4186,-4171,-3850,-3491,-3068,-2290,-1580,-301,940,1754,2307,3032,3631,4075,4571,4838,4862,4325,3876,3654,3468,3192,2978,2419,-62,-4286,-6772,-6892
2018-05-16,11:13:51.440,-5477,-4353,-3974,-3464,-1477,1145,1145,100,-782,-1322,-1675,-1913,-2309,-2620,-2654,-2447,-2015,-1430,-885,-342,543,1332,2001,2657,3457,3991,4614,4610,4571,4606,4487,4388,4327,4226,4224,4298,3994,2334,-449,-3122,-5100,-5781,-5034,-4135,-3847,-3740,-3372,-3064,-2846,-2713,-2715,-3016,-3578,-3993,-3990,-3730,-3825,-4142,-3218,84,3254,3207,2433,1891,1852,1784,2102,2557,2961,3192,3122,3099,2970,2757,2490,2306,1797,-1023,-4478,-5703,-5010,-4243,-3243,-2089,-1128,-403,43,257,423,259,-142,-936,-2311,-3845,-5039,-5639,-5491,-4788,-3712,-2601,-1163,488,1911,3224,4660,5592,5915,6233,6344,6153,5806,4798,4260,5567,8350,9377,7716,5739,3517,382,-2574,-4283,-4414,-3518,-2798,-2494,-2265,-2023
2018-05-16,11:13:52.477,-1873,-1729,-1672,-2089,-2585,-3109,-3332,-3303,-3174,-2763,-2122,-1355,-722,-71,1015,1919,2729,3627,4210,4523,4843,5041,5180,5172,5034,4700,4223,4036,3933,3947,3680,223,-2822,-2837,-2059,-2087,-2315,-2560,-3074,-2897,-1251,1824,3096,1574,-509,-2073,-3397,-4113,-4121,-4047,-3880,-3476,-2948,-2453,-1744,-1227,-633,398,973,1288,1399,1538,1809,2081,2122,2235,2125,1926,2099,2402,3049,4195,3813,1364,-1456,-3486,-4374,-3941,-3153,-2597,-2351,-2279,-2179,-2020,-1773,-2070,-2672,-3139,-3391,-3346,-3151,-2869,-2751,-3065,-2555,-24,4116,5289,3909,2608,1558,992,1072,1231,1160,1326,1497,1197,1011,1029,1046,855,-1286,-4058,-4808,-4903,-5095,-4668,-3786,-3118,-2489,-2035,-1706,-1422,-1025,-732,-925,-1403
2018-05-16,11:13:53.514,-2104,-2758,-3194,-3054,-2210,-1250,-315,468,1458,2479,3357,4248,4925,5177,5320,5296,5355,5135,4738,3990,3011,3408,5307,7374,6988,5012,923,-2602,-4938,-5653,-5042,-4330,-3688,-3333,-2985,-2586,-2188,-1987,-1840,-1960,-2540,-2772,-2426,-1687,-957,-330,-36,208,856,1687,1903,2410,2727,3016,3296,3537,3671,4163,4110,3850,3593,3227,2805,2605,2563,1418,-1960,-4258,-5115,-4699,-3872,-3105,-2639,-2346,-2419,-2395,-1225,1939,4124,3000,1120,-437,-1645,-1918,-1917,-1759,-1467,-1193,-967,-543,-212,9,3,216,628,715,492,821,927,934,1036,1169,1174,1376,2903,6005,8246,6850,3062,827,-434,-640,-558,-575,-724,-779,-809,-689,-644,-926,-928,-1197,-2079,-2828,-3241,-3858,-4026,-3940
2018-05-16,11:13:54.551,-4291,-4702,-3785,-30,3160,2766,1848,851,182,-16,106,123,109,-56,-311,-476,-600,-655,-1028,-3308,-6737,-8513,-8022,-6325,-4684,-3607,-2954,-2414,-1856,-1465,-956,-284,440,1022,1084,749,315,-187,-348,-358,-222,22,139,629,1575,2401,2981,3665,3847,4214,4370,4037,3771,3599,3233,2204,2014,3199,5349,5533,3150,-208,-2687,-4518,-5615,-5176,-4421,-4137,-3796,-3367,-2655,-1994,-1444,-988,-770,-1123,-1656,-1796,-1898,-1998,-1926,-1655,-1364,-1016,-565,166,656,952,1733,2133,2560,2837,2978,2819,3032,3079,2762,2472,2351,2421,2458,1154,-1050,-1784,-2144,-2463,-2247,-1743,-1721,-2188,-1970,-274,2757,3531,1517,-651,-2259,-3489,-3701,-3361,-3087,-2848,-2501,-2092,-1547,-1152,-656,-6
2018-05-16,11:13:55.588,450,1216,1437,1402,1806,1765,2182,2441,2294,2403,3001,3271,3398,3594,3220,1882,47,-1449,-2189,-1954,-1378,-1098,-1120,-1245,-1207,-1156,-1392,-2035,-2440,-2680,-2927,-2847,-2333,-1758,-1218,-1291,-1249,57,3994,7102,6127,4757,3921,3307,2995,3047,3070,2940,2839,2617,2386,2250,2155,2164,1152,-1502,-3659,-4814,-4915,-4079,-3317,-2846,-2571,-2209,-1748,-1150,-286,589,1043,964,479,140,51,-82,-80,178,393,504,954,1530,2327,3364,4214,4266,4247,4055,3793,3891,3475,2587,1745,2310,4431,6073,4556,1039,-2682,-5225,-7485,-8012,-6965,-5904,-5216,-4535,-3838,-3262,-2754,-2379,-2543,-3069,-3405,-3630,-3294,-2725,-2131,-1385,-463,249,776,1473,1858,2263,2939,3191,3381,3764,3846,3715
2018-05-16,11:13:56.626,3309,3013,2695,2293,2065,1933,1826,1778,374,-2519,-3667,-3485,-3059,-2348,-1935,-2130,-2053,-330,2763,3707,1705,-370,-1689,-2584,-2897,-2975,-2727,-2288,-1737,-1262,-942,-626,-144,397,805,1221,1619,1626,1745,1834,1851,2566,2518,2136,2319,2100,2126,2528,2687,2624,2233,582,-2255,-4534,-5567,-5123,-4264,-3787,-3304,-3004,-2961,-3007,-3140,-3398,-3797,-3887,-3526,-2950,-2383,-2200,-2065,-919,2748,5631,4699,3111,2680,2233,2267,2647,2808,3069,3194,3272,3197,2813,2638,2489,2148,1965,1920,1178,-1358,-3288,-3478,-3383,-3050,-2662,-2477,-2397,-2197,-2105,-1958,-1708,-1389,-1212,-1558,-2083,-2565,-2495,-2445,-2135,-1643,-1091,-460,467,1415,1874,2494,3171,3565,3662,3551,2896,2705,4279,7086,7628
2018-05-16,11:13:57.663,5303,3313,1979,838,-1410,-3570,-5424,-6887,-7175,-6372,-5450,-4714,-4073,-3413,-2843,-2411,-2078,-1681,-1798,-1905,-1807,-1905,-2027,-1935,-1730,-1238,-703,-111,828,1807,2305,2907,3520,3902,4232,4422,4288,4269,4296,4140,3710,3368,2961,1560,-1320,-3526,-3897,-3161,-2995,-2853,-1424,1704,3701,2422,693,-543,-1281,-1463,-1765,-2451,-3224,-3320,-2895,-2412,-1918,-1348,-763,-215,339,967,1564,2312,2424,2985,3685,3598,3492,3437,3368,3158,2845,2825,2839,2843,2983,2970,2675,1331,-768,-2374,-3721,-3987,-3295,-2811,-2376,-1988,-1965,-1842,-1779,-1922,-2231,-2811,-3820,-4086,-2772,827,3131,2024,671,-4,-596,-397,344,865,1203,1580,2067,2454,2682,2733,2690,2593,2443,2147,1898,1753,1850,1869
2018-05-16,11:13:58.700,-112,-2753,-3341,-2785,-2504,-2391,-2136,-2113,-1920,-1705,-1603,-1367,-1337,-1558,-1961,-2682,-3098,-3111,-2624,-1945,-1279,-838,-286,283,815,1774,2787,2647,1981,3512,6263,8713,8105,5926,4056,2672,1800,1524,1481,1545,1582,1438,-360,-2154,-3787,-4937,-4592,-3906,-3916,-3609,-3372,-3055,-2628,-2382,-2582,-2718,-2886,-3254,-3220,-2666,-2071,-1481,-867,-131,314,1035,1566,2475,2828,2930,3401,3765,3882,4176,4269,4177,3827,3562,3459,3269,2758,1713,-11,-479,2161,2511,728,-875,-1839,-2361,-2261,-2190,-2345,-2491,-2603,-2808,-3226,-3778,-4068,-4120,-4055,-3876,-3558,-3046,-2459,-1702,-998,56,943,1475,2081,2175,2212,2699,2734,2637,2570,2267,2240,2246,2317,2388,2650,3586,1901,-718,-2183,-2939
2018-05-16,11:13:59.737,-2374,-2061,-1921,-1533,-1333,-1513,-2464,-2998,-1917,893,1647,-280,-1779,-2228,-2262,-1649,-988,-710,-461,12,408,629,1176,1486,2260,2351,2735,2698,2457,2436,2440,2481,2550,2570,2652,2791,1584,-1677,-3356,-3206,-2752,-2741,-2746,-2772,-2608,-2375,-2115,-1930,-1635,-1262,-1194,-1387,-1527,-1819,-1510,-1094,-819,-481,-99,0,-197,993,4118,7373,7420,5742,4231,3276,2411,2110,2033,1738,1487,1254,1364,1458,1712,2502,2287,-352,-2963,-4579,-5023,-4523,-3796,-3229,-2739,-2407,-2408,-2589,-2880,-3288,-3793,-4181,-4210,-3772,-3220,-2789,-2399,-1950,-1609,-1237,-386,637,1247,2048,2604,3033,3497,3731,3977,3702,2774,1743,2314,5279,8084,6877,4587,2674,-498,-3885,-5169,-5262,-4629,-3529,-2603,-2301
2018-05-16,11:14:00.774,-2118,-2031,-2052,-1954,-1929,-2074,-2255,-2506,-2790,-2724,-2279,-1649,-995,-126,687,1617,2669,3549,4140,4973,5219,5428,5694,5581,5175,5013,4809,4616,4503,4467,4458,4437,4086,2532,-734,-3840,-6011,-6771,-6833,-5911,-3333,571,1349,-658,-2753,-4312,-5661,-6491,-6453,-5476,-4629,-3613,-2465,-1419,-740,-171,897,1796,2435,2951,3383,3445,3383,3767,4019,4221,4084,3738,3538,3479,3390,3111,2812,2601,2305,442,-2730,-4314,-5055,-4858,-4213,-3671,-3145,-2604,-2235,-2038,-2133,-2407,-2841,-3588,-4528,-5517,-5338,-3093,706,2416,1611,749,536,663,1404,2081,2772,3082,3437,3650,3313,2996,2839,2757,2434,2199,2052,2056,1715,354,-1954,-4204,-5869,-6008,-5002,-3979,-3173,-2647,-2378,-2414,-2885,-3533
2018-05-16,11:14:01.812,-4131,-4721,-5078,-4874,-4307,-3523,-2474,-1382,-313,578,1721,2475,3144,4084,4288,3753,3357,4318,7512,9940,8514,6351,4538,3233,2371,2137,2041,915,-2188,-4277,-4736,-3985,-3445,-3153,-2925,-2792,-2801,-2798,-2836,-2875,-2755,-2725,-3073,-3537,-4015,-3862,-3168,-2321,-1546,-637,367,1186,2090,2914,3977,4745,4781,5004,5343,5331,5656,5127,4742,4554,4203,3993,3876,3680,2918,875,-1876,-2455,-2600,-4202,-5117,-5327,-5373,-5100,-4878,-4619,-4477,-4415,-4669,-5108,-5269,-5085,-4732,-4244,-3636,-2984,-2455,-1827,-709,241,1486,2403,2784,3328,3785,4348,4757,5223,5388,5203,5014,4753,4388,4052,3670,3334,1799,-787,-1848,-2095,-2448,-2493,-2225,-2025,-1822,-1563,-1760,-2031,-847,2150,4487,2988,396,-1369
2018-05-16,11:14:02.849,-2425,-2583,-2369,-1898,-1439,-962,-437,206,673,1367,1696,2022,2060,2468,2941,2820,2623,2714,2917,3162,3165,3170,2092,5,-1633,-3320,-4025,-3637,-3126,-2750,-2516,-2376,-2356,-2685,-2768,-2930,-3511,-3699,-3196,-2464,-1611,-780,-162,392,961,775,1135,3079,7185,8737,6924,5098,3945,2985,2926,3310,3701,3285,2790,3111,3657,5022,6278,5928,4353,2181,113,-1580,-2339,-2761,-2770,-2796,-2848,-2853,-3101,-3684,-4424,-5273,-5888,-6126,-6095,-5698,-5015,-4329,-3398,-2804,-2246,-1392,-676,159,894,1815,2791,2957,2820,2792,2589,1863,656,1881,4795,6626,5144,3391,1508,-1435,-3811,-5169,-5521,-4918,-3694,-2875,-2395,-1819,-1208,-692,-375,-363,-633,-1062,-1398,-1604,-1444,-1005,-529,-231,-254,540
2018-05-16,11:14:03.886,1001,1329,1849,2042,2205,2488,2584,2989,3091,2854,2830,3030,3109,3122,3223,3062,1691,-148,-1060,-1283,-1783,-2686,-2752,-1281,1802,2903,1332,-355,-1515,-2431,-3222,-3852,-4215,-4229,-4044,-3527,-3047,-2526,-2097,-1676,-1286,-550,130,1083,1663,1921,2136,2342,2512,2469,2440,2407,2321,2359,2363,2524,2725,1635,-968,-2636,-3620,-4001,-3678,-2897,-2292,-1900,-1476,-1070,-869,-976,-945,-1520,-2185,-2924,-3761,-3444,-968,2784,2727,1158,383,384,356,959,1617,2046,2424,2794,3316,3540,3544,3550,3143,2705,2411,2154,1877,1708,999,-2148,-4155,-3677,-3057,-2984,-2731,-2638,-2679,-2578,-2448,-2364,-2184,-1941,-1889,-2396,-3052,-3357,-3089,-2603,-1934,-1114,-335,552,1584,2142,2889,3114,2446,3546
2018-05-16,11:14:04.923,6682,9554,8717,6546,4307,3351,2629,1979,1920,1966,2218,2635,3024,664,-2694,-5093,-6265,-5991,-5218,-4718,-4345,-3999,-3565,-3113,-2760,-2782,-3085,-3374,-3399,-3106,-2657,-2226,-1717,-1532,-1310,-868,-528,-129,269,842,1452,2243,3001,3333,3777,3966,3716,3573,3278,2302,1475,2268,5204,6253,1994,-1495,-3398,-4969,-5100,-4131,-3394,-3114,-2918,-3114,-3588,-4055,-5187,-7340,-9670,-10655,-10483,-9561,-7979,-6190,-4716,-2933,-1168,236,1574,3039,4721,5906,6756,7134,7183,7180,7109,6876,6548,6183,5940,5966,5620,4178,2038,-84,-1790,-2373,-1943,-1389,-894,-1145,-1914,-1497,1299,4601,3719,1283,-759,-2146,-2797,-2859,-2779,-2698,-2487,-1642,-889,-487,237,888,1302,1599,2095,2802,2811,2754,2979,2925
2018-05-16,11:14:05.960,2599,2394,2209,1618,-864,-3368,-3345,-2210,-1823,-1892,-1600,-981,-293,-67,83,-2,-337,-733,-1354,-2660,-3962,-4939,-5113,-4418,-3394,-2605,-2118,-185,3676,7796,8844,8187,7663,7283,6953,7075,6998,6676,6514,5927,5475,5417,5043,3726,3300,2622,-564,-3679,-5035,-5329,-4939,-3890,-2975,-2383,-2093,-1788,-1516,-1540,-1781,-2151,-2818,-3440,-3657,-3715,-3693,-3588,-3417,-2952,-2048,-1359,-374,844,1603,2385,3065,3694,4071,3555,2281,2520,5371,8146,6638,4249,2697,1867,1005,-1064,-4144,-5455,-4652,-3357,-2476,-1867,-1459,-1328,-1424,-1657,-1850,-2106,-2427,-3237,-4448,-5814,-6828,-7173,-6853,-6035,-5061,-4057,-3017,-2039,-1079,16,1614,2792,3546,3949,4283,4572,4565,4271,4264,4425,4397,4352,4787,5328
2018-05-16,11:14:06.997,5515,4236,970,-1753,-1254,1913,2725,1696,404,-817,-1583,-1819,-1877,-2211,-2662,-3348,-4291,-4844,-4899,-4704,-4240,-3668,-2926,-2168,-1494,-424,712,1805,2628,3372,3813,4292,4629,4885,4992,4878,4645,4402,4119,3876,3728,3189,651,-2236,-2846,-1520,-610,-576,-326,-66,67,16,-90,-525,-1611,-1580,809,3928,3631,623,-2151,-4149,-5283,-5480,-5241,-4754,-3884,-3013,-2216,-1160,-335,457,1143,1568,1858,1850,1619,1504,1448,1346,1334,1496,1816,2227,2200,526,-2152,-3874,-4187,-3646,-2899,-2244,-1764,-1412,-1178,-869,-740,-704,-1060,-1624,-2276,-2904,-3396,-3560,-3389,-3284,-3853,-3631,-1383,3043,5466,4204,2900,2745,2554,2759,3168,3159,2968,3012,3000,2955,3005,3132,3067,2309,-258,-2568
2018-05-16,11:14:08.035,-2814,-2643,-2747,-2618,-2022,-1524,-1151,-776,-465,-196,68,233,44,-643,-1641,-2448,-3011,-3304,-3104,-2537,-1485,-801,-422,191,853,1459,2257,3044,3203,3138,2534,2505,4461,7552,7711,5491,3591,2200,250,-3169,-7544,-10861,-10466,-8108,-6410,-5257,-4217,-3317,-2383,-1464,-661,-142,32,84,211,519,588,690,895,1074,1168,1702,2747,3195,3535,4149,4453,4574,4597,4599,4336,4248,4229,3998,3999,3757,3414,3031,2167,-1039,-4283,-5506,-5225,-3828,-701,2594,2233,363,-1132,-1872,-2088,-1892,-1780,-1771,-1752,-1921,-2323,-2667,-2816,-2568,-2291,-1992,-1608,-1051,-504,210,893,1417,1824,2458,2744,2688,2516,2573,2709,2647,2470,2481,2164,1090,-488,-2451,-4853,-6324,-5897,-4589,-3497,-2926
2018-05-16,11:14:09.072,-2519,-2001,-1683,-1512,-1687,-2662,-4240,-4283,-1359,2047,1427,-695,-2232,-2841,-2919,-2298,-1307,-117,773,1650,2377,2880,3229,3605,3896,3809,3443,2957,2559,2224,1899,1581,1065,-1026,-4127,-5358,-4765,-3515,-2606,-2053,-1584,-1063,-565,-132,234,224,-50,-466,-1298,-2049,-2266,-2047,-1649,-1180,-684,-293,251,740,870,2230,5072,8353,8847,7408,5705,4436,3455,2967,2710,2459,2069,1829,1529,500,-1721,-4476,-7501,-8804,-7973,-6718,-5551,-4619,-3786,-2868,-2173,-1796,-1620,-1791,-1931,-1991,-2016,-1910,-1685,-1437,-1158,-778,-370,-37,736,1583,2335,3313,4387,5175,5828,6186,6132,6087,5849,5233,3838,3171,4758,7235,5869,1365,-3844,-6501,-6285,-4065,-2287,-1516,-1264,-1298,-1246,-929,-817,-589
2018-05-16,11:14:10.109,-334,-421,-677,-1192,-1706,-2497,-2888,-2972,-2823,-2745,-2445,-1931,-1189,-411,132,724,1426,1917,1826,1595,1507,1277,1316,1631,2126,2711,2986,1945,-585,-2444,-2459,-1620,-1216,-1712,-1921,-218,3121,4058,2493,1020,-334,-1441,-1855,-1954,-1997,-2156,-2324,-2467,-2584,-2579,-2561,-2383,-1641,-1065,-187,788,1654,2182,2756,3346,3908,4066,3998,3990,4041,4041,3947,3386,1644,-1248,-3717,-3152,-1931,-2124,-2202,-1956,-1732,-1700,-1534,-1651,-1898,-2258,-2704,-3034,-3416,-4039,-4351,-3233,-236,2220,1643,243,-470,-478,131,1044,1560,2289,2763,2552,2468,2321,2155,2205,2078,1774,1479,1579,776,-991,-2568,-3853,-4285,-3671,-2822,-2109,-1631,-1242,-688,-416,-368,-609,-1029,-1674,-2296,-2628,-2496,-2665
2018-05-16,11:14:11.146,-2644,-2222,-1644,-1032,-404,167,957,1972,2647,2693,2729,4492,8677,10508,8702,6750,5083,3677,2836,2432,1917,1294,-603,-4025,-6345,-6617,-5245,-3667,-2962,-2698,-2541,-2123,-1568,-1007,-574,-170,206,396,364,332,298,113,187,311,495,597,736,1187,1915,2340,2817,3377,3862,4427,4445,4581,4330,4206,3874,3586,3310,2393,1425,1154,1866,531,-2178,-4197,-4725,-4588,-4192,-3864,-3585,-3038,-2423,-2011,-1872,-2192,-2693,-3243,-3525,-3659,-3777,-3627,-3146,-2803,-2014,-891,-84,797,2104,3186,3998,4771,5437,5427,5234,5234,4901,4326,3701,3126,2755,2339,1660,866,-1180,-3726,-4648,-3752,-2446,-1859,-1915,-2525,-1928,745,3070,2385,566,-611,-1334,-1797,-1819,-1753,-1747,-1678,-1502,-1135
2018-05-16,11:14:12.183,-622,-114,199,581,1328,1687,2128,2339,2525,2920,3199,3097,2876,2621,2623,2606,2507,2565,3182,3669,2648,1234,-496,-1892,-2192,-1487,-1334,-1433,-1492,-1611,-1982,-2455,-2938,-3414,-3967,-4396,-5291,-6070,-5048,-1777,54,-1356,-2737,-3717,-4171,-3953,-3121,-2254,-1505,-653,115,552,783,767,751,574,320,248,344,447,491,-224,-2344,-4245,-4586,-3595,-2308,-1408,-783,-497,-134,100,191,223,166,20,-274,-505,-779,-996,-1014,-977,-909,-663,-324,281,891,1752,2027,2642,4821,8111,9369,7900,6132,4982,3652,3047,2940,2472,2146,2047,1684,605,-1502,-3924,-5309,-5178,-4454,-3989,-3544,-3264,-2987,-2496,-1896,-1216,-674,-333,-170,-59,-137,-421,-625,-790,-798,-594,-333,-165
2018-05-16,11:14:13.221,381,1342,2227,2910,3699,4287,4554,4674,4447,4342,4123,3371,2322,2819,5308,7511,6211,3469,-486,-3787,-4544,-3544,-3461,-3670,-3578,-3464,-3214,-2966,-2820,-2639,-2629,-2974,-3320,-3651,-3856,-3826,-3684,-3379,-2985,-2459,-1932,-1512,-943,-324,180,764,1289,1737,2060,2283,2331,2425,2474,2552,2622,2699,2880,2917,2384,682,-1042,-1686,-1790,-1564,-970,1101,4084,4359,2913,1427,161,-734,-1353,-1773,-2211,-2585,-2791,-2932,-3017,-2986,-2727,-2632,-2310,-1713,-1461,-1017,15,756,1140,1795,2337,2515,2597,2904,3021,2972,3044,3142,3088,2918,2416,526,-2563,-4152,-3760,-2496,-2066,-1845,-1707,-1614,-1574,-1642,-1692,-1885,-2940,-4041,-3598,-1138,947,303,-855,-1200,-1185,-869,-227,398,839,1413
2018-05-16,11:14:14.258,2293,2599,2816,2848,2801,2756,2190,1932,1885,1869,1939,2169,2428,2576,1467,-1028,-3216,-5385,-6537,-6151,-5076,-4275,-3747,-3220,-2804,-2541,-2420,-2076,-1994,-2021,-1852,-1540,-1153,-897,-616,-306,-73,123,142,411,2615,7175,8976,7434,5953,4712,3798,3436,3316,3084,2720,2307,1958,1666,733,-2284,-5035,-5705,-4767,-4085,-3735,-3203,-2626,-2120,-1745,-1475,-1284,-1234,-1454,-1859,-2470,-2946,-3297,-3344,-3105,-2751,-2191,-1710,-1254,-502,553,1371,1991,2807,3521,3882,4237,4452,4169,3232,2352,3667,7073,8844,7105,5021,2536,-313,-2553,-4107,-4887,-4840,-4513,-4121,-3864,-3723,-3684,-3794,-4049,-4549,-5371,-5678,-5619,-5221,-4670,-3857,-2909,-2011,-1305,-583,331,1315,1935,2737,3367,3883,4394,4968
2018-05-16,11:14:15.295,5238,5257,5348,5338,5335,5379,5300,3724,-145,-3194,-4418,-4242,-3537,-3303,-2560,-323,3115,3712,1947,382,-465,-803,-1132,-1464,-1730,-1579,-1094,-397,306,1057,1767,2498,3066,3874,4567,5231,5637,5847,6049,6005,5564,5632,5489,4498,4463,4268,3517,3223,3171,3138,3435,4009,2861,-1184,-4989,-7527,-7801,-6744,-5906,-5239,-4682,-4472,-4533,-4814,-5762,-6730,-6094,-2858,784,668,-722,-1708,-2285,-2123,-1612,-1230,-590,12,361,1197,1769,2017,2366,2728,2877,2882,2745,2488,2315,2226,2361,2433,1730,-748,-3181,-3929,-4102,-3952,-3191,-2183,-1262,-1024,-1128,-1704,-2485,-3372,-4784,-6514,-7554,-7524,-6829,-5534,-4028,-2388,-1085,-318,-329,398,2916,7006,9067,7932,6591,5530,4524,4151,4367,3786
2018-05-16,11:14:16.332,4125,4221,3806,3743,3979,4178,4160,3436,1364,-1981,-5486,-7615,-7612,-6465,-5407,-4654,-4229,-4101,-4126,-4296,-4607,-4772,-4857,-4404,-3543,-2793,-1946,-1370,-801,-60,377,1378,2331,3039,3692,4420,5182,5764,6067,5807,4912,4875,7087,10231,9826,7417,5217,2472,-2516,-6461,-8436,-8583,-7537,-6215,-5231,-4675,-3986,-3203,-2502,-1865,-1315,-915,-765,-792,-852,-831,-696,-381,140,921,1603,2107,2645,3288,4025,4804,4984,5281,6097,5811,5327,5892,5827,5065,4665,4531,4349,3948,3602,3358,2847,791,-2931,-5985,-6802,-4404,-3365,-4229,-5372,-6129,-6620,-6510,-6123,-5925,-6059,-6204,-5936,-5326,-4703,-4105,-3741,-3417,-2998,-2519,-1977,-993,83,1191,2179,3048,3788,4399,4879,5164,5266,5191,5005,4556
2018-05-16,11:14:17.369,4092,3738,3495,3295,2824,546,-2077,-3202,-3454,-3233,-2725,-2109,-1518,-1234,-1345,-2050,-1842,307,3402,3421,1112,-833,-2072,-2499,-2337,-1779,-1238,-825,-401,41,414,774,1214,1445,1743,1741,2035,2331,2387,2502,2737,2886,3044,3167,3328,3400,3343,2460,389,-1919,-3887,-5121,-5109,-4457,-4083,-3909,-3580,-3249,-3028,-2860,-2942,-3047,-3167,-3252,-3117,-2766,-2561,-2900,-2601,-846,2992,4326,2861,1663,1361,1449,2124,2695,3081,3407,3667,3877,3797,3537,3396,3400,3092,2702,2118,451,-3475,-7415,-9241,-8423,-6253,-4423,-3081,-2096,-1382,-807,-244,354,950,1527,2003,2523,2802,2759,2498,2049,1479,949,531,329,312,428,708,1031,1188,683,665,2650,5983,6668,4455,2300,731,-434
2018-05-16,11:14:18.407,-1085,-1582,-2094,-2547,-3205,-4412,-5893,-7039,-7298,-6466,-5151,-3910,-3053,-2327,-1467,-531,392,1259,1942,2497,2893,3104,3181,3119,2858,2464,2010,1659,1380,1045,761,519,498,581,573,535,333,-108,-782,-1504,-2355,-3494,-5158,-7288,-8220,-6537,-2866,-2700,-4732,-6245,-7325,-8118,-8273,-8035,-7623,-7069,-6379,-5590,-4712,-3803,-2943,-2073,-1105,-9,1123,2260,3374,4486,5618,6633,7469,8163,8645,8897,8918,8743,8419,8028,7544,6995,6425,5871,5309,4612,4123,3823,3537,3242,2904,2482,1973,1401,790,149,-661,-2037,-3404,-3630,-2068,-1300,-3207,-5440,-6729,-7253,-6960,-6340,-5677,-4777,-3564,-2171,-845,193,847,1197,1357,1402,1364,1382,1529,1766,2045,2341,2654,2991,3340,3713,4106,4409
2018-05-16,11:14:19.444,4548,4589,4636,4651,4632,4599,4564,4385,4056,3920,3868,3729,3604,3424,3148,2769,2338,1875,1370,578,-833,-1960,-2074,-282,-1141,-3793,-5668,-6561,-6936,-6761,-6467,-6258,-6042,-5655,-5224,-4815,-4356,-3879,-3537,-3209,-2885,-2553,-2119,-1432,-542,348,1200,2045,3000,4053,5002,5719,6184,6547,6728,6602,6316,5961,5602,5158,4548,4097,3774,3478,3237,2944,2616,2224,1802,1403,1040,476,-626,-1348,-348,2352,3182,1030,-855,-2134,-3036,-3358,-3388,-3495,-3618,-3661,-3764,-3852,-3798,-3694,-3570,-3405,-3207,-3041,-2868,-2606,-2224,-1862,-1494,-1086,-666,-220,239,646,968,1211,1421,1556,1629,1632,1542,1397,1156,917,901,953,999,1115,1137,1084,1006,921,863,758,600,-182,-468,822
