2018-05-17,13:22:06.256,-30,-34,-39,-23,138,655,1168,1063,-930,-2489,-1883,-829,-97,243,297,281,255,259,266,262,265,247,238,232,238,255,242,223,204,190,184,130,70,8,-73,-146,-206,-239,-268,-273,-271,-264,-269,-273,-265,-249,-232,-226,-214,-201,-202,-194,-183,-180,-173,-172,-167,-179,-183,-168,-131,-130,-160,-169,-173,-157,-122,-104,-104,-105,-135,-143,-151,-141,-116,-76,-86,-84,-61,-41,-31,-14,273,861,1293,645,-1687,-2657,-1584,-491,143,364,370,378,393,418,419,391,362,384,391,400,393,387,381,384,373,356,333,277,198,166,133,41,-30,-96,-141,-157,-171,-148,-144,-186,-204,-177,-155,-151,-139,-116
2018-05-17,13:22:07.293,-120,-92,-80,-100,-93,-97,-91,-77,-73,-81,-100,-87,-62,-81,-63,-49,-59,-49,-39,-50,-80,-94,-108,-98,-58,-49,-51,-41,-44,-34,-27,88,562,1135,1241,-368,-2378,-2160,-985,-195,246,358,366,391,394,390,382,368,359,350,340,341,344,346,325,314,300,274,244,224,155,71,1,-72,-137,-176,-204,-204,-204,-203,-198,-208,-198,-174,-169,-157,-138,-113,-100,-82,-99,-80,-70,-71,-82,-96,-112,-120,-115,-124,-124,-113,-109,-106,-95,-84,-98,-127,-160,-174,-140,-127,-147,-139,-115,-97,-94,-35,353,958,1306,232,-2269,-2751,-1480,-464,115,276,292,319,337,330,322,328,330,328,323,331
2018-05-17,13:22:08.331,324,331,353,347,330,317,288,247,191,125,49,-40,-116,-165,-191,-202,-193,-204,-214,-216,-180,-164,-135,-109,-104,-84,-75,-71,-49,-33,-26,-19,-25,-21,-23,-27,-50,-63,-65,-63,-65,-57,-62,-59,-40,-24,-29,-53,-69,-94,-99,-65,-26,-42,-39,-21,-10,-14,76,517,1110,1342,-117,-2534,-2501,-1149,-185,271,355,346,357,369,364,349,339,332,338,327,326,335,346,337,328,326,311,265,218,165,103,18,-71,-131,-164,-200,-222,-243,-247,-253,-261,-249,-231,-214,-202,-193,-172,-159,-149,-132,-114,-101,-94,-100,-96,-88,-76,-77,-83,-78,-69,-66,-64,-63,-68,-64,-65,-69,-75,-80
2018-05-17,13:22:09.368,-96,-115,-93,-60,-77,-79,-77,-74,-56,-42,136,658,1151,953,-1123,-2722,-1958,-783,-52,227,265,272,286,296,294,299,298,295,295,294,300,318,321,312,314,298,264,228,187,127,62,-9,-92,-148,-179,-196,-196,-184,-189,-212,-210,-191,-175,-161,-140,-138,-130,-121,-108,-84,-75,-82,-82,-60,-69,-89,-82,-60,-53,-66,-65,-48,-42,-35,-20,-20,0,6,14,6,-27,-64,-42,7,22,11,5,14,29,35,103,481,1026,1241,-49,-2192,-2314,-1119,-216,259,362,379,379,379,393,393,376,351,339,344,362,354,347,349,349,361,339,291,252,196,108,24,-56,-111,-142,-164,-169,-177
2018-05-17,13:22:10.405,-161,-165,-174,-159,-157,-132,-103,-105,-111,-108,-114,-103,-95,-97,-89,-85,-85,-87,-77,-62,-79,-83,-81,-67,-79,-70,-38,-24,-27,-37,-41,-47,-76,-82,-28,-18,-18,-8,-2,5,11,97,512,1058,1213,-121,-2139,-2198,-1076,-281,183,326,333,350,354,329,327,321,327,326,326,337,324,320,314,308,301,279,244,201,130,41,-20,-86,-135,-168,-179,-182,-182,-183,-172,-154,-135,-139,-125,-105,-86,-77,-60,-48,-48,-53,-54,-38,-42,-41,-36,-33,-33,-31,-36,-46,-45,-38,-29,-10,7,1,-39,-50,-63,-89,-55,-15,-38,-50,-39,-30,-17,1,278,875,1325,717,-1795,-2849,-1624,-498
2018-05-17,13:22:11.442,174,353,357,372,393,404,396,387,390,398,407,408,411,419,440,464,450,421,403,375,319,255,174,105,48,9,5,-22,-42,-38,-29,-32,-11,9,24,51,62,68,78,85,96,101,96,98,97,86,67,69,54,28,26,26,23,15,14,17,16,27,35,16,-4,-31,-55,-53,-28,-23,-35,-41,-48,-48,-52,62,532,1077,1125,-823,-2909,-2311,-1039,-197,118,153,170,168,167,168,148,121,113,103,89,87,96,90,77,67,65,60,19,-26,-80,-148,-227,-301,-360,-401,-423,-426,-437,-449,-449,-446,-412,-382,-369,-357,-329,-310,-309,-290,-278,-277,-289,-294,-284,-273,-268,-276
2018-05-17,13:22:12.479,-266,-248,-235,-236,-238,-225,-198,-182,-167,-152,-147,-147,-142,-141,-146,-116,-78,-87,-94,-77,-51,-36,-26,203,773,1220,818,-1476,-2644,-1638,-550,116,333,356,358,362,370,370,366,360,345,363,373,358,338,352,355,339,331,308,265,230,163,80,18,-24,-77,-113,-132,-137,-148,-148,-145,-128,-106,-102,-102,-94,-88,-76,-62,-40,-45,-52,-55,-61,-41,-44,-53,-59,-30,-29,-46,-43,-38,-44,-29,-9,-3,-20,-34,-39,-35,-6,12,-21,-33,-14,0,20,69,424,993,1293,166,-1985,-2327,-1239,-400,128,330,350,356,370,366,376,383,376,363,363,375,364,343,339,339,339,328,307
2018-05-17,13:22:13.516,266,210,149,72,7,-67,-102,-106,-103,-101,-94,-98,-99,-88,-82,-72,-67,-61,-47,-35,-42,-34,-8,0,-11,-7,-11,-21,-32,-15,-5,-6,-9,-23,-18,-22,-24,-43,-58,-83,-113,-94,-65,-88,-96,-105,-104,-92,-86,93,650,1184,903,-1427,-2886,-1967,-858,-146,161,192,195,208,207,206,210,192,160,173,185,175,170,174,182,174,152,125,101,52,1,-78,-153,-221,-245,-269,-284,-283,-288,-283,-274,-270,-261,-244,-222,-204,-184,-159,-139,-120,-109,-88,-58,-48,-48,-25,-21,-8,-11,-7,-4,5,26,42,73,89,85,87,97,82,84,133,163,141,136,163,203,210,286,756
2018-05-17,13:22:14.554,1383,1555,-221,-2414,-2043,-751,115,478,517,508,531,524,498,491,498,486,476,488,488,470,458,446,455,444,439,392,338,282,205,126,57,22,-2,-48,-87,-115,-127,-133,-142,-115,-108,-126,-136,-129,-126,-129,-109,-99,-102,-111,-127,-136,-139,-135,-135,-144,-122,-115,-121,-134,-147,-150,-123,-131,-167,-194,-194,-190,-187,-154,-156,-180,-195,-191,-186,-166,-49,457,1008,1063,-878,-2776,-2235,-990,-194,131,197,214,227,223,213,193,187,189,202,194,194,197,197,187,163,141,134,100,39,-29,-100,-187,-252,-280,-293,-304,-330,-332,-342,-333,-330,-313,-301,-278,-255,-238,-205,-200,-193,-191,-177,-163
2018-05-17,13:22:15.591,-129,-131,-146,-153,-143,-108,-103,-108,-103,-91,-67,-45,-45,-34,-8,4,-1,-14,2,29,35,49,41,45,65,62,242,748,1241,954,-1165,-2521,-1719,-657,23,313,343,345,374,353,339,347,337,331,348,348,319,315,322,314,302,274,239,218,148,73,11,-49,-102,-154,-179,-207,-226,-233,-219,-217,-221,-200,-178,-183,-187,-176,-150,-143,-148,-150,-155,-153,-158,-146,-133,-129,-121,-122,-117,-111,-124,-133,-120,-116,-104,-114,-112,-126,-147,-110,-69,-68,-82,-89,-60,-45,-37,222,816,1248,601,-1661,-2555,-1536,-540,85,320,339,353,368,355,349,350,323,320,329,338,346,347,339,330,334
2018-05-17,13:22:16.628,324,276,221,174,109,30,-45,-103,-146,-173,-187,-197,-201,-199,-189,-188,-180,-175,-151,-139,-131,-123,-122,-125,-97,-85,-88,-91,-89,-80,-83,-67,-58,-66,-62,-62,-56,-47,-38,-22,-12,-36,-61,-93,-103,-75,-53,-64,-61,-52,-60,-62,-19,299,925,1345,455,-2060,-2762,-1541,-457,135,303,317,328,338,334,329,332,336,314,305,324,337,356,368,371,340,311,290,258,204,142,61,-30,-105,-145,-158,-174,-175,-175,-177,-180,-182,-149,-127,-132,-117,-100,-79,-77,-69,-70,-72,-66,-61,-56,-51,-47,-47,-55,-55,-49,-47,-53,-61,-42,-41,-47,-71,-83,-95,-115,-93,-53,-50,-59,-61
2018-05-17,13:22:17.665,-43,-24,-22,164,706,1235,987,-1287,-2810,-1926,-724,14,277,305,314,336,342,340,328,309,302,307,313,318,314,299,299,300,283,248,215,172,119,43,-31,-95,-143,-167,-183,-197,-203,-206,-216,-217,-195,-172,-164,-154,-136,-121,-97,-85,-85,-91,-87,-71,-77,-86,-81,-89,-86,-78,-69,-60,-64,-47,-33,-27,-5,9,18,15,-5,-4,-31,-44,0,27,18,19,30,49,64,115,516,1106,1364,-25,-2225,-2316,-1098,-159,305,412,426,455,464,451,448,456,444,456,444,426,476,509,521,529,512,512,529,485,424,386,323,236,199,184,159,110,82,81,114,103,102,87,74,107
2018-05-17,13:22:18.702,117,133,134,122,108,124,129,116,124,108,90,79,98,96,73,71,85,70,51,64,93,82,38,47,88,43,6,17,40,15,40,38,2,-5,14,335,883,1117,-50,-2115,-2476,-1464,-612,-75,90,92,90,108,84,54,40,41,59,60,58,49,39,20,-6,-17,-22,-42,-91,-102,-85,-150,-246,-336,-398,-447,-431,-441,-467,-473,-474,-474,-472,-474,-478,-461,-425,-417,-437,-436,-402,-382,-376,-404,-428,-393,-352,-397,-383,-367,-382,-390,-324,-279,-277,-350,-372,-400,-357,-357,-346,-345,-330,-340,-297,-246,-218,-105,518,1182,1103,-1137,-3301,-2519,-1056,-147,241,284,286,291,323,322,301,285
2018-05-17,13:22:19.740,314,335,338,324,291,327,340,352,356,264,241,261,195,99,18,-59,-108,-113,-125,-161,-186,-180,-187,-158,-140,-137,-115,-85,-70,-38,-13,-11,-7,10,25,36,39,27,19,30,31,23,21,24,42,49,33,44,38,28,38,32,12,39,80,63,45,63,94,103,155,520,1144,1502,299,-2191,-2512,-1232,-215,333,467,499,506,480,540,538,504,471,453,453,457,446,453,440,431,404,370,337,311,260,193,118,50,5,-31,-63,-83,-111,-107,-102,-104,-72,-66,-70,-54,-25,-26,-27,-31,-33,-33,-26,-18,-17,0,-19,-26,-14,-10,-15,-19,-10,-19,1,19,31,17,0
2018-05-17,13:22:20.777,-4,-37,-39,11,10,-6,3,19,27,21,147,653,1228,1179,-868,-2727,-2138,-897,-77,277,323,318,342,342,319,303,298,303,299,267,270,287,270,265,272,266,232,188,128,66,0,-62,-120,-190,-211,-235,-276,-274,-261,-276,-274,-261,-234,-222,-219,-199,-195,-160,-146,-142,-144,-110,-106,-106,-87,-85,-90,-97,-109,-82,-72,-74,-81,-56,-47,-71,-85,-104,-99,-50,-40,-54,-49,-44,-35,-13,76,513,1125,1233,-429,-2444,-2251,-1068,-234,208,329,334,357,356,353,346,331,335,326,309,309,309,321,312,302,282,253,222,175,104,27,-37,-106,-174,-200,-191,-181,-175,-182,-172,-150,-146
2018-05-17,13:22:21.814,-139,-125,-114,-100,-86,-76,-44,-25,-11,-10,-6,0,-5,-7,0,-7,-11,-18,-21,-18,-15,-5,-21,-29,-53,-62,-44,-12,-26,-43,-33,-15,0,27,335,962,1419,606,-1960,-2782,-1552,-435,201,367,370,390,396,391,390,384,377,370,365,360,351,364,365,372,355,334,308,253,202,129,50,-20,-80,-141,-175,-183,-193,-200,-191,-199,-198,-186,-174,-163,-133,-104,-100,-81,-66,-55,-48,-51,-64,-59,-52,-52,-37,-34,-33,-31,-27,-15,-11,-11,-31,-26,-60,-83,-59,-32,-42,-50,-37,-22,-25,5,346,967,1411,381,-2166,-2731,-1459,-392,189,344,353,372,387,360,349,354,370,359
2018-05-17,13:22:22.851,351,366,387,399,417,423,404,388,381,349,287,215,142,74,19,-21,-48,-56,-78,-71,-57,-62,-37,-25,-8,9,32,66,83,70,70,67,60,64,56,65,64,66,69,57,51,46,52,67,82,73,43,31,0,-32,-13,2,-31,-46,-33,-31,-33,-4,311,907,1301,353,-2020,-2679,-1526,-536,48,258,268,272,272,265,251,255,207,183,167,128,139,138,125,113,103,95,57,0,-83,-158,-229,-306,-373,-427,-470,-488,-491,-488,-477,-459,-434,-436,-462,-429,-413,-394,-389,-388,-374,-366,-371,-362,-352,-336,-335,-328,-317,-310,-307,-288,-266,-257,-270,-277,-277,-298,-269,-206,-185,-206
2018-05-17,13:22:23.888,-207,-191,-170,-171,-58,462,1058,1087,-798,-2698,-2275,-1068,-237,180,281,302,314,327,341,337,324,326,328,333,339,361,382,389,380,379,360,321,275,204,132,42,-36,-74,-116,-146,-161,-158,-179,-194,-188,-169,-151,-138,-127,-112,-109,-96,-90,-76,-60,-64,-63,-60,-58,-55,-40,-48,-51,-24,-6,-1,12,15,-2,-3,-13,-7,41,45,21,23,38,46,39,211,805,1427,1339,-1023,-2943,-2089,-741,77,382,410,413,427,417,402,401,393,382,376,361,364,362,367,363,373,376,343,309,255,199,127,32,-44,-93,-129,-165,-186,-196,-221,-217,-205,-199,-190,-181,-150,-120,-91,-72,-42
2018-05-17,13:22:24.925,-29,-51,-66,-47,-26,-22,-38,-46,-43,-39,-28,-15,-13,-6,11,0,-8,-7,-45,-50,-1,11,-3,-1,9,25,51,197,760,1384,1388,-883,-2857,-2097,-775,67,400,456,448,451,451,446,423,396,386,393,392,390,365,358,364,360,350,328,296,234,164,97,9,-70,-132,-193,-235,-259,-263,-252,-256,-259,-257,-241,-223,-198,-175,-163,-143,-130,-116,-115,-134,-123,-121,-122,-124,-134,-125,-113,-109,-113,-106,-92,-87,-82,-76,-87,-86,-113,-135,-89,-71,-85,-81,-57,-48,-29,34,443,1081,1457,-8,-2519,-2579,-1236,-253,258,394,390,398,400,395,384,368,359,345,343,340,336,318,334
2018-05-17,13:22:25.963,318,310,282,248,212,162,75,14,-32,-93,-146,-154,-180,-193,-200,-202,-181,-173,-166,-133,-136,-135,-118,-102,-121,-157,-148,-146,-151,-144,-123,-128,-122,-107,-97,-80,-70,-65,-80,-75,-55,-39,-39,-30,-25,-34,-39,-47,-62,-14,3,-29,-28,-7,0,29,181,715,1256,1098,-909,-2553,-1959,-856,-102,272,358,367,364,374,368,353,351,334,331,337,342,347,352,347,351,366,329,269,225,166,88,11,-70,-135,-167,-188,-191,-186,-184,-192,-193,-181,-162,-161,-158,-152,-146,-155,-136,-136,-123,-102,-112,-125,-115,-104,-103,-101,-89,-80,-91,-75,-53,-40,-24,-23,-50,-47,-79,-93,-45,-24
2018-05-17,13:22:27.000,-47,-54,-38,-28,-24,57,527,1169,1394,-235,-2557,-2463,-1173,-228,268,370,362,384,403,412,406,400,384,372,364,363,361,355,353,356,349,328,295,245,176,101,22,-60,-147,-195,-218,-221,-240,-260,-263,-269,-253,-240,-224,-201,-175,-156,-151,-140,-127,-113,-116,-124,-109,-94,-96,-93,-100,-104,-96,-89,-90,-60,-39,-23,-11,-27,-40,-45,-60,-25,14,-1,-19,-2,18,23,44,346,976,1465,750,-1878,-2891,-1674,-505,157,348,349,364,382,395,383,347,325,336,327,326,339,343,343,331,332,325,307,265,205,145,62,-20,-103,-160,-194,-219,-240,-249,-253,-261,-249,-228,-211,-207,-193
2018-05-17,13:22:28.037,-172,-146,-129,-127,-121,-134,-121,-106,-111,-115,-119,-114,-114,-118,-115,-122,-116,-105,-113,-115,-124,-123,-119,-133,-122,-68,-65,-69,-63,-51,-26,-11,216,818,1359,919,-1569,-2901,-1848,-655,64,324,350,359,375,370,372,358,349,334,349,350,352,355,350,345,343,332,310,266,219,152,77,4,-64,-119,-148,-164,-172,-171,-194,-210,-197,-170,-148,-115,-104,-98,-97,-91,-79,-77,-78,-78,-81,-73,-76,-80,-69,-76,-71,-75,-78,-68,-58,-37,-36,-59,-68,-59,-74,-107,-103,-47,-45,-60,-49,-55,-53,-46,124,668,1205,1019,-1084,-2698,-1976,-819,-58,267,318,335,337,341,337,332,329,306
2018-05-17,13:22:29.074,318,326,323,322,321,314,302,307,306,249,198,132,52,-9,-68,-125,-196,-213,-222,-226,-235,-234,-213,-212,-195,-187,-192,-186,-174,-156,-142,-133,-125,-122,-110,-104,-115,-127,-113,-110,-116,-117,-101,-110,-96,-79,-63,-68,-75,-79,-101,-88,-29,-9,-27,-27,-21,-9,-2,151,686,1232,1086,-909,-2528,-1953,-850,-88,291,367,361,379,383,401,386,366,367,355,344,351,357,351,343,323,310,278,227,182,118,48,-28,-109,-159,-190,-209,-207,-188,-201,-199,-198,-194,-176,-158,-138,-126,-117,-116,-109,-93,-102,-99,-91,-99,-97,-75,-77,-68,-62,-55,-61,-58,-40,-30,-19,-37,-42,-50,-72
2018-05-17,13:22:30.111,-56,-17,-35,-42,-23,-11,-8,6,265,894,1397,818,-1707,-2890,-1758,-561,151,370,373,391,412,406,392,382,368,362,339,319,323,323,319,317,307,300,267,211,148,82,11,-64,-137,-195,-221,-250,-262,-250,-245,-245,-237,-226,-211,-193,-162,-142,-126,-118,-108,-94,-83,-83,-78,-79,-75,-71,-72,-67,-60,-62,-69,-56,-41,-38,-36,-46,-55,-70,-103,-91,-34,-36,-48,-35,-25,-15,5,228,814,1382,1043,-1365,-2828,-1835,-603,159,428,448,466,482,485,494,492,494,494,507,521,514,518,521,524,519,507,488,455,409,353,289,206,124,65,24,2,-4,-17,-20,-29,-45,-31,-20
2018-05-17,13:22:31.149,6,19,24,37,37,29,29,44,42,37,35,14,-2,-2,-4,-1,-8,-18,-30,-28,-38,-48,-79,-96,-138,-130,-81,-84,-144,-140,-132,-118,-122,-10,464,1061,1109,-756,-2718,-2290,-1024,-185,188,241,247,259,256,226,209,202,185,196,184,183,205,182,179,191,174,133,108,70,-8,-81,-163,-243,-289,-320,-349,-363,-362,-360,-357,-367,-368,-351,-339,-335,-319,-317,-312,-318,-306,-300,-294,-286,-275,-274,-263,-259,-251,-257,-257,-233,-221,-211,-223,-223,-248,-268,-232,-179,-175,-171,-165,-150,-130,-100,237,853,1212,210,-2076,-2616,-1523,-572,39,245,261,275,285,274,263,243,234,249,270,274
2018-05-17,13:22:32.186,283,301,294,294,276,267,254,190,125,48,-24,-92,-146,-172,-201,-204,-197,-209,-219,-197,-171,-163,-155,-127,-114,-90,-77,-73,-74,-66,-64,-75,-70,-51,-61,-67,-65,-67,-62,-59,-62,-59,-77,-77,-97,-128,-112,-76,-75,-79,-64,-51,-36,-5,257,907,1414,700,-1895,-2849,-1661,-507,173,376,383,398,407,413,402,386,373,348,343,365,359,336,325,333,328,311,283,240,190,135,60,-33,-99,-145,-185,-206,-202,-203,-203,-191,-183,-163,-151,-147,-131,-108,-98,-97,-95,-69,-70,-74,-66,-64,-56,-62,-71,-69,-46,-37,-34,-29,-42,-55,-63,-75,-45,-5,-12,-5,10,6,1,11
2018-05-17,13:22:33.223,295,908,1399,652,-1911,-2723,-1543,-458,189,377,395,420,423,424,413,411,398,395,399,400,377,365,371,365,353,350,318,254,190,123,71,16,-48,-99,-140,-166,-167,-172,-189,-183,-185,-158,-129,-131,-126,-105,-88,-94,-76,-75,-71,-53,-54,-61,-59,-51,-37,-18,-8,-9,-1,-24,-41,-54,-62,-31,-6,-28,-16,5,8,9,48,398,992,1333,293,-2030,-2434,-1269,-350,206,376,385,394,381,370,388,384,374,370,379,397,384,392,387,389,383,358,339,272,176,110,37,-26,-85,-131,-172,-189,-195,-208,-212,-208,-218,-210,-188,-182,-166,-155,-145,-141,-155,-150,-138,-127,-124,-117,-122
2018-05-17,13:22:50.495,300,291,288,244,175,110,106,46,-47,-125,-174,-243,-315,-369,-390,-426,-438,-421,-407,-345,-261,-195,-129,-80,-27,-9,-10,10,24,53,125,140,165,192,253,252,255,244,216,198,168,154,134,85,32,54,89,70,113,72,53,75,11,28,157,88,93,165,229,138,169,386,913,1348,949,-1227,-2353,-1429,-482,134,422,473,483,486,475,474,437,410,385,341,310,270,218,195,150,186,139,54,83,63,-40,-86,-121,-217,-303,-269,-319,-392,-366,-383,-389,-376,-393,-364,-296,-283,-275,-236,-256,-278,-282,-289,-296,-286,-270,-218,-170,-162,-141,-67,-16,13,38,68,71,51,44,58
2018-05-17,13:22:51.770,83,96,122,125,124,116,125,336,841,1245,883,-1254,-2828,-2121,-1126,-534,-225,-146,-83,-3,83,195,316,433,519,593,631,619,561,502,453,377,335,284,238,184,112,68,75,48,7,0,7,16,12,-6,-12,-46,-48,-61,-17,-41,-19,34,27,63,48,11,69,79,50,67,100,88,74,70,98,121,126,126,102,88,86,88,117,138,150,185,239,247,246,230,399,872,1240,949,-1051,-2447,-1764,-817,-217,137,278,282,287,358,358,323,290,270,238,199,152,160,146,133,146,139,128,75,14,-53,-154,-248,-335,-415,-461,-484,-496,-479,-447,-421,-377,-324,-315,-315,-288,-271
2018-05-17,13:22:52.807,-254,-212,-189,-157,-150,-137,-133,-140,-111,-69,-151,-213,-252,-295,-331,-363,-400,-433,-461,-463,-400,-297,-226,-174,-111,-42,15,23,126,554,1071,1167,-218,-2280,-2251,-1171,-390,120,333,373,457,505,490,475,534,501,483,429,424,429,394,377,406,435,351,322,315,260,162,130,37,-17,-90,-117,-109,-110,-128,-175,-171,-151,-168,-168,-115,-105,-95,-60,-32,28,93,144,145,154,122,42,12,-52,-29,-126,-143,-160,-199,-195,-181,-163,-192,-179,-133,-122,-135,-129,-106,-81,-87,24,439,942,1202,11,-2169,-2292,-1229,-471,-17,128,99,95,97,67,82,121,160,194,229,249,268,295,292,269
2018-05-17,13:22:53.844,242,228,184,142,81,19,-55,-134,-205,-241,-255,-258,-245,-266,-319,-357,-423,-487,-481,-500,-489,-443,-375,-309,-220,-158,-58,44,121,169,200,186,172,160,161,149,154,178,203,180,225,215,199,221,221,205,161,103,83,42,45,278,804,1215,981,-989,-2296,-1550,-615,30,356,464,452,526,570,455,419,411,430,423,427,416,416,418,406,411,454,468,441,414,398,296,177,79,-17,-124,-170,-194,-245,-266,-280,-265,-246,-223,-214,-170,-138,-117,-120,-122,-150,-149,-150,-159,-158,-161,-164,-167,-139,-137,-167,-152,-126,-156,-200,-227,-247,-223,-191,-190,-194,-183,-157,-113,-69,236,797,1166
2018-05-17,13:22:54.881,498,-1706,-2377,-1350,-553,-28,234,287,256,245,239,211,194,149,160,125,75,53,-16,-63,-98,-114,-129,-109,-89,-116,-99,-85,-101,-140,-147,-166,-154,-168,-159,-169,-188,-168,-127,-98,-41,-17,27,135,97,92,128,65,10,29,-10,-51,-72,-62,-82,-86,-62,50,-37,-51,-5,-37,-90,-18,29,-83,9,94,56,-11,122,598,1152,1309,-179,-2534,-2316,-1011,-180,316,486,508,526,502,463,404,322,301,277,244,257,274,198,209,220,259,196,167,147,21,-64,-121,-207,-297,-327,-310,-276,-318,-346,-273,-280,-286,-270,-251,-254,-260,-253,-246,-200,-160,-159,-154,-130,-107,-102,-93,-87,-76
2018-05-17,13:22:55.918,-53,-70,-46,-70,-124,-165,-177,-151,-135,-131,-108,-61,-45,-15,-12,101,529,1064,1148,-359,-2620,-2483,-1260,-484,-12,156,183,215,337,315,388,388,383,395,404,438,438,441,460,455,528,537,497,471,395,341,257,121,12,-46,-90,-159,-141,-129,-142,-177,-96,-81,-57,-9,32,89,93,63,90,131,139,61,81,59,39,41,64,58,60,58,58,132,148,123,164,207,185,171,139,166,100,64,345,864,1207,564,-1596,-2478,-1458,-526,21,260,349,269,226,248,207,202,155,135,145,138,131,119,112,129,120,109,71,24,-15,-75,-181,-234,-272,-333,-363,-363,-350,-325,-286,-278
2018-05-17,13:22:56.956,-270,-245,-198,-179,-172,-148,-133,-123,-83,-106,-94,-47,-75,-80,-77,-96,-109,-122,-169,-226,-253,-327,-401,-337,-259,-290,-247,-188,-127,-72,4,197,752,1284,1123,-744,-2325,-1757,-744,-96,336,445,474,492,475,458,439,428,409,384,410,311,285,276,287,267,233,238,259,196,185,112,35,62,-90,-151,-100,-78,-171,-132,-152,-182,-135,-124,-128,-95,-39,-7,12,7,25,55,90,98,121,122,86,5,7,-22,-36,-92,-145,-155,-162,-221,-171,-92,-107,-73,-39,-92,-125,-118,83,589,1097,936,-1143,-2790,-2003,-963,-293,29,87,148,140,114,71,38,11,6,51,57,94,140,191,227
2018-05-17,13:22:57.993,228,224,255,202,125,44,-24,-96,-164,-218,-237,-227,-208,-171,-121,-131,-128,-99,-107,-146,-171,-232,-311,-354,-372,-397,-400,-372,-317,-269,-210,-155,-57,-5,30,109,121,103,107,58,66,193,208,187,207,250,240,288,330,706,1232,1391,-50,-2140,-2057,-958,-287,183,362,379,342,377,442,401,410,427,408,404,461,485,441,392,363,332,269,236,205,140,85,30,-17,-54,-71,-58,-2,31,18,-3,-25,-49,-59,-75,-70,-96,-130,-159,-173,-153,-119,-106,-114,-117,-139,-183,-219,-210,-225,-233,-235,-192,-172,-202,-213,-167,-137,-144,-166,-176,-174,-186,-196,-5,487,965,851,-996,-2494,-1769
2018-05-17,13:22:59.030,-775,-117,222,308,326,329,338,314,344,338,327,310,296,308,338,332,295,285,265,200,118,38,-29,-111,-218,-284,-318,-309,-279,-224,-150,-132,-123,-90,-56,-58,-52,-57,-66,-18,33,16,-2,40,78,107,145,132,146,125,74,83,54,-23,-100,-113,-120,-55,-67,-120,3,27,-42,42,143,485,1012,1306,261,-1957,-2279,-1172,-364,155,356,387,360,375,362,360,357,342,357,367,392,418,428,410,402,388,361,265,162,61,-42,-170,-249,-270,-360,-382,-318,-350,-389,-316,-351,-347,-313,-301,-262,-231,-227,-231,-223,-206,-202,-207,-241,-279,-244,-266,-322,-336,-291,-295,-316,-325,-320,-306
2018-05-17,13:23:00.067,-249,-164,-123,-118,-88,-88,-59,-24,-10,330,915,1270,459,-1872,-2527,-1338,-394,167,406,429,422,369,290,264,211,133,80,30,-8,32,54,29,48,119,138,143,132,96,39,28,-43,-107,-120,-82,-21,4,45,81,96,111,160,123,96,67,59,29,-12,-20,-9,-56,-75,-80,-98,-79,5,-30,-28,41,-36,-55,-38,-72,-104,-38,-20,-59,-61,-32,-1,30,152,544,1177,1491,546,-1711,-2193,-1073,-186,303,518,484,476,412,350,312,356,383,327,349,336,341,343,314,346,335,371,338,292,267,218,129,28,-34,-5,-79,-108,-83,-90,-77,-76,-91,-46,8,39,74,100,104
2018-05-17,13:23:01.104,128,197,188,162,134,105,102,94,133,104,96,94,60,44,38,-5,2,0,-68,-165,-196,-268,-351,-401,-290,128,635,598,-1270,-3047,-2408,-1317,-627,-253,-95,-98,-97,-111,-86,-74,-70,-30,73,92,99,155,180,186,200,190,195,217,142,102,13,-63,-140,-172,-219,-231,-220,-199,-213,-219,-218,-185,-213,-233,-110,0,-22,-83,-55,-26,13,47,21,56,69,133,191,237,269,264,238,217,163,146,152,164,60,-21,52,84,-5,87,498,1084,1377,263,-2127,-2340,-1114,-307,193,403,419,382,410,374,427,426,416,394,398,391,362,366,365,409,394,348,343,295,248,194,106,48
2018-05-17,13:23:02.141,-6,-81,-83,-114,-137,-179,-187,-200,-179,-193,-170,-147,-149,-120,-89,-64,-40,-72,-112,-163,-246,-307,-403,-521,-587,-643,-661,-664,-652,-640,-645,-634,-588,-483,-403,-378,-355,-324,-281,-229,-61,497,1002,962,-777,-2415,-1820,-775,-48,293,373,389,382,380,348,309,290,290,285,276,249,244,258,288,250,219,292,288,187,142,31,48,70,-6,-37,-28,-19,0,15,30,71,124,167,188,192,212,192,150,107,130,84,52,61,73,36,17,1,-29,-13,-30,-39,-61,-88,-90,-115,-120,-15,9,24,22,30,111,122,144,487,1016,1281,404,-1758,-2209,-1172,-401,147,360,373,423,457,484
2018-05-17,13:23:03.179,466,458,433,441,391,370,373,343,323,312,308,297,307,272,195,114,-30,-190,-327,-458,-579,-587,-643,-644,-625,-543,-512,-428,-336,-289,-197,-119,-95,-73,-58,-42,-32,-21,-1,21,30,38,42,78,78,57,-1,-6,-47,-79,-126,-69,-56,-94,-107,-113,-116,-70,165,709,1131,749,-1215,-2483,-1562,-632,-119,230,342,345,351,403,416,415,420,457,461,496,535,552,547,467,409,337,249,142,122,-5,-102,-125,-195,-275,-288,-283,-303,-287,-313,-316,-292,-285,-254,-233,-196,-172,-175,-157,-172,-174,-139,-122,-130,-136,-136,-96,-85,-66,-30,-11,-16,14,3,19,58,100,96,65,75,59
2018-05-17,13:23:04.216,57,44,329,930,1361,842,-1460,-2432,-1405,-485,42,223,172,50,-57,-113,-158,-199,-213,-173,-136,-82,-81,-47,1,16,21,32,8,-34,-61,-109,-173,-216,-230,-245,-233,-144,-109,-110,-96,-93,-119,-116,-109,-63,-94,-124,-115,-57,-31,-80,-62,7,-50,-11,-1,29,39,22,10,0,-5,-57,-52,-26,0,14,33,65,129,205,273,436,966,1523,1565,-346,-2374,-1776,-674,25,443,452,418,411,403,357,340,345,341,372,345,379,334,306,313,317,322,328,276,259,175,66,87,-13,-99,-130,-172,-180,-141,-167,-199,-162,-119,-93,-46,-13,-8,-5,-14,-35,-48,-53,-59,-72,-106,-127
2018-05-17,13:23:05.253,-78,-93,-94,-58,-18,-35,-54,-108,-127,-143,-144,-199,-319,-355,-376,-365,-145,353,821,741,-1052,-2578,-1912,-895,-232,112,193,191,229,253,267,297,312,305,399,408,371,368,334,328,318,286,216,183,141,68,-23,-63,-163,-203,-214,-183,-160,-180,-129,-70,-86,-95,-117,-91,-91,-91,-70,-70,-62,-27,-23,7,48,103,128,171,220,239,232,171,96,23,27,71,-16,-28,-21,-21,4,21,145,604,1132,1226,-357,-2439,-2150,-983,-364,104,337,285,250,303,327,329,283,295,358,326,335,336,380,404,369,372,390,368,336,270,179,90,-2,-51,-149,-189,-164,-169,-143,-135,-136,-120
2018-05-17,13:23:06.290,-91,-16,-42,-59,-109,-172,-228,-337,-412,-477,-545,-587,-568,-547,-521,-491,-451,-437,-409,-421,-420,-373,-340,-316,-299,-311,-322,-209,-136,204,758,1117,589,-1565,-2439,-1422,-531,49,307,367,346,312,302,309,302,333,351,334,318,304,350,398,370,388,408,364,341,317,290,281,227,166,148,180,190,228,252,232,230,219,152,77,48,58,0,-8,0,-7,-19,-10,-41,-77,-83,-85,-118,-192,-180,-169,-196,-173,-203,-161,-112,-123,-100,-59,-66,-50,-31,100,612,1115,1037,-835,-2478,-1843,-818,-102,259,374,420,427,405,392,382,380,372,364,366,348,369,342,363,425,380,324,229,107
2018-05-17,13:23:07.327,-82,-269,-437,-581,-702,-773,-743,-694,-640,-606,-566,-487,-358,-282,-258,-213,-132,-97,-68,-38,-27,-8,10,33,37,20,58,38,0,-19,-41,-90,-83,-110,-83,-62,-71,-54,-33,-3,32,260,805,1272,868,-1107,-2372,-1555,-606,-16,378,529,529,557,581,590,588,620,663,682,692,661,657,668,629,560,479,418,377,295,193,92,-16,-77,-117,-214,-224,-192,-266,-269,-263,-297,-272,-282,-254,-242,-248,-232,-211,-190,-229,-236,-153,-178,-156,-194,-152,-116,-145,-139,-169,-176,-99,-65,-11,-52,-48,-35,-28,-41,-30,263,847,1279,854,-1421,-2559,-1530,-556,61,329,399,371,295,251,191,131,122
2018-05-17,13:23:08.365,52,-5,-41,-72,-69,-88,-23,-4,-59,-73,-102,-159,-255,-367,-412,-453,-473,-492,-394,-328,-313,-280,-218,-211,-199,-158,-147,-193,-183,-176,-187,-178,-164,-168,-144,-91,-124,-107,-39,-16,17,48,14,28,56,84,142,137,140,175,253,319,401,610,1180,1742,1704,-289,-2367,-1794,-625,14,394,481,469,476,481,390,341,315,291,233,216,169,205,258,156,159,185,185,176,113,70,-2,-68,-143,-224,-247,-257,-287,-302,-293,-299,-239,-194,-167,-136,-68,-61,-60,-25,-20,-25,-40,-27,-15,0,10,15,9,74,57,46,11,-37,-39,-30,-92,-152,-178,-207,-258,-273,-53,507,923,740,-1445
2018-05-17,13:23:09.402,-2821,-1826,-813,-194,57,129,156,165,170,168,224,264,258,280,298,333,327,328,309,289,271,219,207,149,108,18,-63,-110,-155,-180,-169,-141,-153,-102,-125,-128,-67,-90,-59,-29,-44,47,63,67,71,138,185,223,262,286,285,289,263,237,162,59,59,30,68,100,57,30,24,37,26,219,730,1207,999,-1125,-2696,-1835,-901,-176,188,306,269,269,306,300,294,305,289,272,334,349,324,332,393,394,347,317,337,296,192,131,61,-18,-100,-136,-84,-101,-102,-69,-64,-82,-27,26,16,-41,-76,-92,-104,-161,-279,-368,-430,-460,-521,-553,-555,-505,-451,-452,-461,-410,-462,-476
2018-05-17,13:23:10.439,-388,-363,-391,-330,-305,-268,-248,-77,488,971,1028,-530,-2543,-2253,-1104,-365,84,216,212,250,276,262,327,365,303,275,387,384,376,401,401,385,418,412,340,350,311,239,143,82,61,34,26,60,70,63,43,3,-63,-46,-9,-111,-86,-132,-125,-112,-124,-131,-155,-157,-178,-176,-133,-177,-183,-176,-170,-162,-193,-239,-193,-118,-135,-142,-130,-145,-118,-65,169,675,1124,807,-1297,-2398,-1507,-563,15,280,352,362,353,335,342,333,321,337,321,323,328,322,338,335,348,282,202,114,-9,-129,-266,-405,-521,-588,-612,-603,-551,-533,-511,-436,-372,-332,-269,-242,-214,-181,-182,-169,-46,-70
2018-05-17,13:23:11.476,-82,-24,-3,-15,17,12,4,-26,-54,-54,-88,-145,-154,-117,-66,-54,-47,6,53,39,224,704,1223,1373,122,-1979,-2006,-923,-162,329,524,573,600,667,705,734,765,788,817,793,744,728,718,775,647,547,526,448,364,290,184,88,40,-88,-123,-132,-126,-146,-201,-244,-225,-207,-184,-205,-167,-173,-169,-184,-194,-224,-202,-145,-208,-229,-203,-157,-141,-139,-135,-108,-101,-135,-155,-111,-100,-130,-142,-112,-129,-145,-38,471,978,1191,-251,-2417,-2345,-1196,-497,-110,-6,-83,-122,-181,-235,-243,-167,-176,-96,-48,-16,31,71,113,143,151,150,140,139,84,15,-55,-118,-196,-202,-116,-199,-140
2018-05-17,13:23:12.513,-137,-171,-181,-162,-191,-179,-163,-149,-125,-103,-109,-104,-24,-62,32,62,20,76,63,66,92,70,4,-35,2,56,82,94,110,142,200,210,248,594,1229,1552,825,-1641,-2547,-1357,-296,301,482,475,463,472,449,412,403,393,377,340,348,276,232,262,243,169,201,158,111,63,-19,-60,-136,-216,-274,-273,-285,-293,-300,-280,-235,-224,-201,-136,-100,-70,-49,-5,-33,-68,-61,-56,-85,-115,-92,-82,-64,-52,-26,-48,-94,-133,-166,-230,-273,-327,-371,-407,-415,-347,-242,38,587,1016,574,-1606,-2498,-1532,-611,-39,241,304,343,415,434,477,509,495,560,568,513,482,463,390,378,364
2018-05-17,13:23:13.550,292,231,207,141,75,-4,-34,-101,-89,-102,-64,-23,-51,-37,-21,-15,-18,-23,17,40,78,134,133,119,145,198,245,279,274,279,275,231,268,242,129,74,16,41,69,60,50,27,-7,-3,-9,102,517,1025,1150,-350,-2450,-2254,-1076,-356,93,275,277,319,310,272,303,276,229,244,283,282,308,320,338,288,272,253,242,189,122,45,-46,-126,-179,-226,-298,-219,-229,-274,-193,-253,-277,-293,-372,-404,-409,-421,-437,-458,-410,-354,-340,-313,-249,-251,-231,-223,-230,-254,-259,-289,-346,-278,-227,-185,-142,-115,-103,-43,-32,181,746,1144,927,-1015,-2583,-1907,-937,-284,150,257,220,270
2018-05-17,13:23:14.588,371,332,308,336,333,336,381,364,359,357,345,372,369,345,317,285,254,211,151,127,106,69,75,51,13,-5,-18,-20,-77,-86,-58,-47,-34,-74,-86,-94,-105,-108,-147,-166,-164,-219,-230,-137,-106,-180,-212,-181,-186,-224,-197,-127,-171,-180,-145,-122,-128,32,526,1060,1146,-442,-2334,-1999,-888,-158,229,333,332,381,381,361,362,359,316,310,279,285,229,186,143,68,-9,-65,-141,-254,-342,-418,-428,-455,-471,-469,-396,-312,-289,-252,-235,-235,-212,-185,-135,-107,-61,-13,-2,19,36,65,28,29,82,11,-9,-9,-28,-58,-51,-58,-74,-47,13,43,27,51,70,129,186,379
2018-05-17,13:23:15.625,935,1361,905,-1341,-2444,-1469,-505,141,486,559,595,650,682,687,694,702,669,634,612,562,518,465,480,485,420,363,287,225,151,42,-52,-141,-213,-242,-226,-240,-203,-227,-184,-124,-158,-121,-100,-103,-73,-90,-66,-35,-46,-46,-62,-40,-17,-3,5,-2,-19,-29,-69,-102,-40,3,-24,-46,-53,-30,-14,18,264,792,1197,912,-1200,-2690,-1906,-987,-398,-88,-65,-61,-15,-15,-7,19,52,45,68,89,66,50,63,79,90,104,118,69,43,-35,-80,-130,-171,-226,-267,-269,-277,-287,-267,-202,-213,-197,-182,-131,-121,-101,-115,-81,-75,-83,-61,-35,-19,9,-33,-32,4,-48,-79,-116
2018-05-17,13:23:16.662,-142,-72,-29,2,42,92,138,146,207,621,1204,1408,370,-1955,-2385,-1233,-406,183,395,400,389,361,383,388,287,286,275,299,292,303,314,301,311,301,276,202,203,188,107,29,-58,-139,-143,-174,-172,-146,-124,-119,-129,-65,-111,-82,-15,-11,-45,-63,-35,-34,-30,-44,-23,-24,-41,-70,-119,-171,-204,-246,-309,-326,-296,-262,-264,-303,-302,-261,-258,-178,288,782,852,-857,-2698,-2310,-1241,-491,-91,51,139,130,204,313,308,298,283,247,241,207,193,162,154,160,153,112,141,69,27,-22,-50,-101,-133,-71,-54,-86,-73,-33,17,67,56,68,103,101,133,155,180,246,300,316
2018-05-17,13:23:17.699,299,272,233,194,165,123,102,43,9,62,-11,-16,20,33,-19,-33,-28,-10,47,386,936,1259,464,-1805,-2381,-1314,-484,14,245,288,296,288,280,275,326,342,393,383,336,346,356,342,360,346,310,260,213,164,56,-47,-52,-120,-167,-165,-162,-153,-233,-298,-376,-439,-495,-541,-569,-557,-504,-431,-389,-345,-259,-190,-134,-103,-78,-57,-51,-24,-21,-14,-16,-12,38,30,24,91,84,34,1,16,194,637,1057,957,-648,-2312,-1968,-980,-272,185,331,383,396,485,403,439,459,405,382,381,363,381,357,343,371,388,439,472,463,417,322,271,196,59,18,-26,-97,-148,-157,-158
2018-05-17,13:23:18.736,-139,-103,-84,-62,-129,-140,-150,-145,-141,-207,-215,-205,-208,-136,-129,-195,-138,-94,-106,-178,-162,-117,-83,-64,-76,-90,-71,16,53,302,844,1314,1063,-1071,-2441,-1621,-663,-43,257,394,386,378,383,357,361,345,302,244,154,111,36,-30,-85,-141,-162,-189,-278,-328,-367,-452,-488,-511,-565,-552,-540,-492,-500,-466,-404,-347,-276,-242,-209,-131,-97,-107,-81,-98,-109,-111,-164,-144,-99,-127,-109,-114,-94,-101,-72,-95,-56,8,20,0,102,132,139,144,274,707,1319,1534,314,-2017,-2060,-843,43,607,792,806,771,766,678,617,567,484,465,430,411,362,336,334,277,244,257,164,77,21
2018-05-17,13:23:19.774,-24,-136,-230,-234,-217,-269,-235,-180,-146,-190,-209,-160,-167,-178,-142,-127,-154,-109,-26,-10,-23,18,28,12,76,80,50,42,6,45,35,-2,8,62,65,57,69,90,74,92,324,811,1192,686,-1721,-3205,-2246,-1207,-586,-303,-143,-137,-71,16,42,64,92,86,96,120,106,151,227,280,294,306,281,200,128,107,-48,-176,-296,-373,-410,-396,-373,-382,-376,-345,-314,-261,-220,-162,-109,-116,-42,0,7,41,54,62,67,87,93,133,168,189,283,306,323,409,444,419,412,328,302,352,266,319,816,1346,1343,-304,-2366,-2105,-999,-233,261,414,434,384,366,392,407,386,352,425
2018-05-17,13:23:20.811,379,344,306,263,273,232,239,241,244,149,118,46,-49,-92,-140,-165,-167,-149,-159,-148,-105,-82,-26,25,32,34,82,58,88,65,81,46,-13,-50,-77,-118,-113,-135,-157,-161,-164,-192,-215,-212,-212,-241,-248,-266,-267,-265,-183,263,834,944,-486,-2488,-2305,-1216,-432,19,127,147,126,118,133,105,57,57,46,48,91,107,187,230,251,236,297,283,245,197,220,56,-23,-64,-157,-144,-54,-7,67,142,202,231,236,221,259,242,225,183,113,67,56,44,41,20,-14,19,-5,-43,-74,-36,17,-76,-40,19,10,33,33,55,99,110,332,897,1314,1045,-1098,-2468,-1510,-606
2018-05-17,13:23:21.848,76,359,390,438,452,475,463,428,402,429,409,385,359,347,382,365,370,367,330,302,207,122,28,-106,-245,-387,-479,-520,-540,-562,-525,-486,-436,-392,-365,-264,-233,-222,-195,-175,-146,-145,-129,-125,-104,-86,-89,0,25,-26,-31,-31,-31,-83,-127,-120,-129,-132,-145,-150,-134,-91,87,596,1011,788,-977,-2283,-1612,-638,18,291,353,391,390,363,361,356,329,365,386,421,469,527,539,535,533,506,481,412,293,207,164,20,-93,-135,-214,-256,-265,-290,-319,-241,-284,-300,-166,-231,-253,-223,-165,-162,-218,-230,-233,-212,-210,-205,-188,-230,-203,-210,-236,-256,-212,-226,-134,-86,-118,-109
2018-05-17,13:23:22.885,-63,-71,-57,44,438,1012,1210,-205,-2331,-2298,-1194,-420,-8,114,38,-25,-103,-154,-174,-182,-136,-111,-85,-44,43,48,105,102,61,30,42,-42,-118,-202,-254,-307,-343,-306,-246,-206,-178,-126,-76,-60,-57,-34,10,-18,-34,-37,-65,-75,-103,-102,-124,-127,-85,-44,-66,-61,48,63,1,-6,50,120,135,166,172,172,163,196,440,1010,1470,1212,-1028,-2250,-1303,-372,237,547,549,507,474,499,505,461,428,395,356,336,290,239,220,250,161,159,183,111,26,-20,-58,-173,-199,-241,-285,-274,-263,-247,-254,-193,-142,-114,-106,-91,-53,-16,-50,-73,-77,-38,-40,-63,-95,-82,-51,-64
2018-05-17,13:23:23.922,-114,-119,-182,-243,-285,-336,-443,-523,-558,-562,-530,-425,-51,573,944,330,-1743,-2416,-1340,-455,139,413,449,495,542,542,538,533,526,495,429,422,360,315,245,195,152,101,78,25,-20,-80,-147,-179,-192,-195,-139,-122,-110,-1,26,-5,11,24,56,43,60,122,178,202,231,275,327,376,432,471,461,428,326,223,185,74,189,165,-17,-33,-15,4,2,358,959,1182,406,-1926,-2597,-1593,-735,-145,110,119,86,125,152,91,67,59,48,59,64,61,37,72,90,68,95,98,66,29,-31,-116,-163,-216,-306,-288,-257,-279,-291,-282,-250,-216,-197,-183,-182,-195,-239,-286,-344,-385
2018-05-17,13:23:24.959,-428,-448,-462,-391,-372,-313,-281,-258,-231,-199,-170,-129,-98,-107,-97,-50,-31,42,411,972,1331,471,-1769,-2249,-1181,-352,238,416,427,397,362,345,301,246,219,240,191,239,230,192,186,229,241,250,234,194,158,107,70,64,-11,-12,57,49,59,120,154,230,283,295,332,335,268,259,173,116,64,51,33,34,-44,-33,-64,-152,-173,-163,-176,-255,-187,-197,-217,-237,-181,-198,-145,-32,447,890,919,-698,-2393,-2006,-1034,-384,-3,156,225,228,236,258,269,303,301,281,269,250,231,188,149,149,157,104,81,-4,-69,-126,-240,-370,-473,-565,-627,-634,-640,-636,-577,-496,-430,-308
2018-05-17,13:23:33.783,-68,-39,87,84,155,278,401,590,812,1076,1401,1657,1838,1927,1883,1793,1715,1583,1364,1121,912,731,560,422,329,313,309,313,312,582,944,958,-797,-3270,-3297,-2257,-1525,-1062,-885,-850,-829,-766,-641,-592,-591,-521,-500,-449,-398,-393,-392,-267,-151,-121,-91,-52,-67,-16,-13,-134,-199,-210,-218,-234,-238,-261,-170,-124,-185,-113,-8,-3,-3,-6,-167,-361,-467,-590,-698,-720,-699,-661,-611,-578,-542,-517,-465,-440,-378,-331,-312,-196,-133,-92,-91,-77,55,57,117,260,669,1187,1250,-1155,-2814,-1981,-997,-401,-113,132,291,381,488,731,1006,1362,1666,1792,1919,1944,1858,1789,1714,1588,1403,1197,934,627
2018-05-17,13:23:34.620,340,131,-12,-151,-255,-345,-448,-617,-779,-840,-1010,-1148,-1172,-1175,-1205,-1184,-1162,-1144,-1082,-996,-868,-815,-807,-803,-765,-707,-605,-602,-609,-486,-444,-467,-426,-370,-242,-160,-41,44,34,41,5,-39,127,697,1213,1221,-633,-2556,-1910,-899,-240,120,104,-97,-188,-200,-238,-174,-70,27,73,124,161,183,215,247,288,321,374,394,383,336,275,248,239,173,156,155,92,65,13,-12,-28,-2,0,5,25,93,2,248,408,501,678,896,1202,1508,1768,1934,2001,1938,1833,1733,1594,1384,1156,1061,967,842,745,726,739,698,587,452,536,742,656,-737,-3304,-3646,-2490,-1634,-1151,-891,-765,-669,-551,-473
2018-05-17,13:23:35.657,-438,-430,-374,-293,-273,-244,-198,-192,-83,-12,7,74,73,58,43,-19,-128,-180,-253,-340,-410,-252,-290,-311,-198,-193,-108,-111,-108,-137,-60,-110,-244,-284,-369,-381,-337,-247,-207,-224,-210,-196,-231,-267,-289,-304,-307,-295,-222,-144,-114,-84,-37,21,29,-2,390,913,1214,750,-1633,-2686,-1724,-844,-246,126,254,295,408,423,628,892,1057,1247,1447,1673,1807,1830,1813,1786,1737,1632,1431,1227,1038,787,536,313,150,74,47,2,-85,-245,-445,-644,-840,-974,-1082,-1155,-1227,-1208,-1202,-1074,-992,-987,-923,-810,-743,-786,-741,-577,-494,-511,-493,-442,-402,-355,-220,-108,-53,4,59,76,75,97,343,887
2018-05-17,13:23:36.694,1370,1146,-1192,-2638,-1565,-552,75,435,514,475,455,515,451,209,65,25,-73,-148,-135,-129,-125,-95,-71,-61,-69,-79,-68,-47,-90,-54,-109,-228,-96,-71,-171,-163,-121,-173,-173,-232,-222,-242,-249,-284,-262,-246,-238,-243,-97,-93,95,308,398,585,819,1000,1061,1077,1013,944,931,902,813,726,656,590,518,497,782,1366,1688,914,-1568,-2474,-1531,-818,-439,-308,-375,-360,-394,-402,-396,-364,-348,-265,-214,-187,-173,-160,-176,-135,-155,-141,-128,-160,-114,-168,-200,-206,-223,-254,-256,-278,-300,-254,-251,-247,-144,-64,-99,-164,-90,-94,-96,-93,-161,-197,-311,-399,-421,-524,-599,-571,-493,-449,-414,-377
2018-05-17,13:23:37.732,-293,-222,-206,-196,-148,-97,-44,27,265,807,1302,1281,-514,-2212,-1735,-700,-19,345,427,366,341,290,256,224,255,215,322,317,393,652,820,940,1154,1354,1472,1464,1383,1239,1072,866,672,517,405,358,336,329,372,428,405,315,157,-37,-279,-499,-614,-731,-821,-920,-878,-994,-933,-861,-826,-742,-704,-684,-578,-619,-605,-545,-531,-538,-433,-313,-367,-252,-14,555,1109,1177,-731,-2405,-1856,-928,-282,124,341,345,352,356,389,441,426,347,315,269,153,-39,-192,-244,-344,-371,-361,-343,-313,-356,-347,-371,-382,-349,-258,-175,-80,-37,50,139,77,168,247,183,148,63,-37,-34,-59,-129,-146,-118
2018-05-17,13:23:38.769,-167,-261,-65,-11,12,186,316,378,596,823,1015,1086,1073,1062,994,956,1095,1583,2029,1652,-708,-2273,-1327,-263,401,675,607,438,252,44,-142,-260,-390,-417,-453,-501,-507,-479,-412,-409,-386,-311,-327,-383,-276,-321,-450,-524,-619,-578,-598,-539,-501,-475,-435,-359,-286,-213,-147,-126,-136,-150,-101,-109,-79,-85,-96,-3,6,-55,-67,-117,-121,-140,-241,-356,-383,-314,-305,-231,-156,-99,-70,-35,243,827,1216,768,-1348,-2402,-1533,-596,120,511,594,608,649,558,506,505,499,417,380,309,318,305,230,162,228,343,438,428,586,636,721,868,980,1031,1049,1036,1054,986,853,762,697,593,497,417
2018-05-17,13:23:39.806,374,376,322,308,190,-30,-261,-458,-616,-800,-873,-955,-1033,-1056,-1092,-1120,-940,-857,-841,-749,-730,-683,-582,-419,86,730,886,-1049,-2891,-2281,-1212,-504,9,186,208,209,236,239,224,196,159,183,253,178,207,228,231,193,182,45,-139,-243,-433,-548,-649,-674,-710,-700,-654,-584,-560,-549,-409,-345,-298,-203,-141,-89,1,13,145,146,107,106,-25,81,-46,-70,-132,-192,-215,-283,-266,-132,-59,136,116,304,604,918,1245,1745,2586,3013,1960,-304,-724,405,1213,1798,1930,1722,1437,1181,898,663,528,399,200,-35,-244,-406,-558,-714,-820,-767,-846,-984,-1024,-1062,-1114,-1173,-1214,-1228,-1226,-1199,-1145,-1085
2018-05-17,13:23:40.843,-987,-962,-834,-699,-673,-599,-567,-357,-339,-284,-195,-169,-199,-203,-180,-120,15,-62,-127,-8,-67,-78,-77,-95,-246,-122,-298,-403,-374,-438,-358,120,643,782,-832,-2730,-2355,-1177,-326,163,326,398,473,580,560,588,546,592,765,649,558,547,492,466,392,308,324,219,312,398,64,-19,14,111,272,464,628,861,1044,1197,1353,1384,1353,1260,1183,1122,1028,884,755,657,534,382,224,123,29,-74,-186,-356,-527,-670,-708,-762,-804,-911,-985,-969,-877,-796,-677,-173,479,922,55,-2414,-2811,-1632,-698,-150,15,151,210,240,282,274,300,269,244,275,343,304,271,354,373,406,344,288,287,309
2018-05-17,13:23:41.880,152,-52,-188,-337,-467,-673,-821,-820,-806,-759,-642,-536,-451,-361,-280,-230,-185,-138,-81,-15,26,100,112,142,178,183,181,78,136,68,-71,-63,-28,-165,-152,-114,-89,-32,78,448,1142,1608,975,-1007,-1497,-247,848,1612,1941,1909,1860,1868,1828,1780,1620,1409,1225,1049,904,854,684,615,453,216,30,-126,-455,-709,-913,-1103,-1190,-1287,-1365,-1412,-1344,-1327,-1293,-1077,-1069,-1109,-1027,-906,-847,-851,-808,-781,-676,-557,-518,-433,-329,-234,-153,-125,-94,-49,-120,-157,-111,-91,-110,-52,-44,-7,43,62,57,146,626,1110,899,-1394,-3470,-2711,-1514,-664,-206,-94,1,61,104,138,172,205,263,317,361,436
2018-05-17,13:23:42.917,524,489,640,575,493,496,455,317,195,23,-46,-200,-241,-285,-209,-126,51,206,454,629,885,1081,1316,1467,1571,1535,1511,1552,1584,1534,1426,1255,1103,978,891,846,736,588,398,105,-195,-445,-532,-756,-1018,-1132,-1171,-1188,-1144,-771,-120,405,-552,-3134,-3497,-2235,-1293,-671,-446,-377,-344,-300,-279,-239,-161,-75,57,122,159,223,256,261,325,399,428,351,303,307,152,49,56,-76,-179,-255,-302,-406,-498,-588,-633,-657,-586,-545,-532,-515,-450,-418,-365,-306,-300,-252,-195,-156,-137,-83,-1,34,42,-3,-44,-55,-68,-85,-94,-95,-96,-60,-21,86,568,1278,1606,118,-1749,-1285,-39,985,1727,2069
2018-05-17,13:23:43.955,2170,2249,2281,2195,2074,1889,1708,1595,1474,1325,1160,992,861,731,648,574,450,285,33,-259,-593,-970,-1078,-1315,-1459,-1523,-1526,-1510,-1516,-1348,-1182,-1162,-1095,-1046,-1042,-993,-843,-802,-680,-606,-590,-498,-387,-268,-208,-87,-47,-37,-54,-64,29,80,60,33,88,102,93,269,798,1412,1596,-87,-2237,-2142,-1130,-392,-3,128,82,74,83,124,142,156,162,191,205,215,299,360,321,273,315,260,203,143,12,-46,-142,-275,-402,-480,-525,-335,-360,-372,-329,-186,35,118,409,587,775,1070,1341,1563,1696,1674,1591,1471,1329,1194,1085,1028,960,796,627,480,381,335,293,195,26,-241,-515,-820,-948,-523
2018-05-17,13:23:44.992,-65,76,-1528,-4012,-3876,-2507,-1551,-985,-945,-863,-748,-773,-646,-588,-560,-555,-510,-457,-449,-407,-309,-273,-230,-159,-61,-31,-46,-74,-125,-187,-241,-191,-227,-257,-236,-296,-228,-170,-263,-345,-341,-438,-511,-522,-619,-616,-604,-552,-458,-442,-406,-389,-342,-313,-258,-195,-119,-91,-21,35,80,146,229,207,203,211,306,621,1067,1265,129,-2088,-2312,-1144,-390,148,384,595,724,840,948,1168,1361,1486,1644,1688,1670,1630,1599,1550,1475,1400,1312,1161,996,823,701,603,451,292,152,-88,-178,-401,-568,-629,-719,-861,-917,-898,-900,-894,-925,-868,-774,-751,-685,-671,-574,-615,-561,-536,-570,-557,-485,-511,-383,-226
2018-05-17,13:23:46.029,-202,-136,-99,-87,-100,-41,358,952,1356,483,-1923,-2604,-1322,-457,43,216,223,161,41,-100,-165,-187,-155,-98,-136,-83,-63,-28,55,36,43,94,155,144,130,107,64,33,19,-61,-20,50,-50,-43,-87,-162,-202,-243,-212,-159,-244,-139,-116,215,347,473,636,918,1148,1299,1375,1354,1312,1265,1158,1086,1085,1095,1077,1008,935,886,873,972,1352,1731,1621,-205,-2855,-2919,-1931,-1234,-862,-775,-784,-788,-802,-793,-693,-559,-570,-505,-489,-539,-457,-308,-370,-421,-361,-331,-251,-300,-294,-226,-161,-227,-262,-287,-271,-263,-226,-192,-172,-164,-161,-104,-118,-177,-148,-82,26,-148,-228,-274,-359,-420,-453,-468
2018-05-17,13:23:47.066,-443,-452,-428,-409,-373,-314,-252,-204,-157,-83,11,90,202,597,1143,1514,833,-1449,-2194,-1195,-352,191,384,402,425,446,401,465,462,564,707,864,968,1164,1315,1512,1669,1726,1705,1612,1445,1300,1165,984,821,700,593,507,459,477,497,469,378,214,7,-255,-486,-646,-798,-897,-966,-1049,-1075,-1049,-1026,-981,-991,-1055,-1005,-936,-859,-899,-863,-796,-746,-667,-662,-516,-464,-361,147,756,1072,-114,-2255,-2293,-1234,-481,-13,205,303,276,257,310,278,253,329,381,189,44,-65,-131,-147,-194,-208,-216,-195,-131,-209,-283,-345,-383,-434,-462,-379,-322,-251,-147,-82,-91,-1,31,-60,-133,-121,-107,-222,-310
2018-05-17,13:23:48.103,-291,-307,-287,-297,-237,28,18,144,476,647,728,929,1099,1195,1242,1190,1189,1161,1320,1865,2328,1926,-299,-2081,-1423,-348,401,824,799,603,404,168,-71,-246,-371,-488,-585,-626,-673,-678,-611,-549,-546,-622,-567,-557,-538,-496,-650,-682,-659,-637,-644,-627,-518,-414,-345,-271,-160,-55,-64,-60,-53,-52,-43,-40,6,-8,-13,35,0,22,15,142,-3,-154,-325,-340,-370,-454,-464,-403,-357,-303,-191,195,822,1173,434,-1807,-2492,-1386,-372,270,543,543,657,695,631,574,541,489,465,417,398,329,291,341,299,508,422,466,562,688,796,909,1058,1190,1276,1308,1268,1213,1190,1182,1139,1093,1039,963
2018-05-17,13:23:49.140,843,752,681,646,588,441,220,-27,-261,-517,-689,-791,-900,-987,-1070,-1107,-1073,-983,-914,-901,-835,-637,-691,-717,-446,185,640,585,-1565,-2954,-2095,-1090,-441,-18,203,278,313,315,299,285,287,281,286,245,293,449,248,236,305,281,171,50,-77,-254,-395,-614,-705,-740,-683,-599,-520,-436,-337,-278,-257,-234,-178,-133,-102,-64,-42,-5,51,43,112,216,156,76,-49,-129,-148,-249,-299,-284,-193,-189,-221,-150,16,123,403,923,1658,2075,1263,-724,-1314,-161,748,1318,1474,1355,1326,1305,1211,1132,1107,1097,1116,1133,1084,1007,800,469,117,-194,-341,-673,-942,-1052,-1230,-1336,-1300,-1351,-1451,-1260,-1138,-1143
2018-05-17,13:23:50.178,-1096,-981,-946,-937,-832,-723,-701,-638,-599,-538,-378,-313,-201,-155,-150,-137,-96,-125,-123,-147,-181,-110,-130,-174,-140,-111,-167,-281,-319,-148,352,769,441,-1715,-3282,-2529,-1380,-591,-117,59,146,222,263,261,285,348,347,406,493,521,538,600,651,604,596,479,330,255,55,-56,-109,-246,-374,-328,-275,-294,-234,-199,-12,248,302,495,748,943,1125,1202,1251,1221,1140,1083,1046,1023,934,825,726,637,595,552,490,501,382,159,-84,-309,-496,-625,-683,-502,183,562,-86,-2779,-3674,-2337,-1217,-537,-319,-285,-226,-189,-153,-140,-176,-154,-154,-123,-26,50,103,195,298,334,349,336,299,247,201,122
2018-05-17,13:23:51.215,2,-56,-82,-76,-23,-97,-87,-58,-158,-259,-341,-377,-413,-416,-372,-325,-269,-233,-239,-219,-228,-200,-167,-146,-98,-55,-13,-36,-1,63,90,113,100,75,141,75,39,511,927,1007,-193,-2182,-2261,-1208,-354,149,427,573,765,931,1090,1192,1275,1308,1325,1329,1271,1165,1096,1030,982,910,810,706,602,516,445,309,197,46,-199,-392,-567,-693,-769,-936,-1014,-1088,-1063,-1051,-994,-931,-825,-762,-774,-656,-649,-703,-611,-531,-556,-551,-462,-474,-465,-365,-218,-149,-142,-117,-113,-130,-113,31,593,1131,1268,-292,-2411,-2227,-1028,-146,290,380,477,480,333,276,257,95,64,91,109,113,157,174,221,215
2018-05-17,13:23:52.252,190,182,156,132,88,23,-62,-170,-131,-96,-122,-157,-81,-92,-98,-17,-68,-81,-97,-90,-87,-32,-76,-106,98,239,315,365,587,749,913,1059,1245,1281,1279,1241,1191,1110,1035,996,935,824,769,1129,1704,1877,526,-1788,-2029,-1031,-333,-3,-36,-119,-229,-334,-390,-464,-504,-496,-442,-329,-385,-447,-440,-280,-366,-424,-371,-381,-432,-391,-387,-473,-452,-480,-449,-371,-363,-362,-378,-364,-385,-379,-392,-344,-255,-268,-309,-277,-197,-158,-164,-93,-116,-90,-209,-308,-367,-453,-446,-399,-402,-397,-417,-409,-418,-420,-409,-180,380,864,795,-1015,-2620,-2029,-960,-210,147,234,286,224,213,230,175,155,159,162
2018-05-17,13:23:53.289,184,245,219,365,511,555,685,836,841,817,814,820,720,605,528,512,492,453,392,365,344,316,330,335,325,239,117,-29,-167,-329,-419,-537,-593,-696,-736,-751,-747,-713,-765,-723,-611,-621,-584,-472,-447,-368,-317,-305,-74,428,973,1115,-733,-2216,-1526,-627,11,355,459,449,450,433,435,450,427,421,440,448,467,482,401,337,207,97,-39,-196,-298,-342,-399,-435,-406,-353,-280,-187,-115,-37,72,107,159,194,197,262,286,272,211,256,152,66,25,-77,-57,-117,-105,-106,-108,16,208,296,475,587,791,969,1127,1269,1543,2209,2650,2275,117,-1686,-1040,47,751,1133,1228,1169,1185,1174
2018-05-17,13:23:54.326,1154,1040,747,465,158,-192,-496,-612,-731,-851,-903,-930,-1009,-1091,-1010,-1043,-1170,-1234,-1242,-1328,-1159,-1106,-1113,-1087,-1076,-971,-871,-742,-708,-670,-604,-595,-560,-505,-511,-512,-473,-452,-422,-350,-294,-338,-348,-326,-304,-245,-231,-225,-312,-308,-476,-535,-244,509,1001,455,-2014,-3216,-2008,-880,-134,215,301,308,413,475,428,571,697,653,678,713,706,672,680,601,565,491,443,353,287,164,152,115,125,129,257,474,575,732,919,1086,1184,1157,1168,1173,1150,1109,990,845,677,522,474,479,517,477,381,268,101,-70,-170,-270,-409,-352,-322,-463,-385,-242,76,669,1184,924,-1582,-3374,-2257,-927,-247,101
2018-05-17,13:23:55.364,137,268,224,233,259,297,335,328,334,316,257,269,237,189,229,225,122,33,-42,-125,-192,-272,-411,-547,-613,-718,-826,-835,-775,-674,-579,-518,-429,-332,-384,-400,-325,-309,-326,-267,-188,-146,-157,-95,-59,-121,-88,-139,-163,-107,-133,-213,-230,-238,-215,-182,136,834,1346,1001,-1344,-2567,-1427,-170,714,1114,1253,1297,1328,1294,1177,1150,1097,993,873,744,590,501,497,503,506,399,212,-9,-241,-482,-670,-863,-893,-926,-995,-930,-892,-786,-691,-734,-716,-543,-641,-613,-483,-529,-574,-499,-465,-449,-427,-354,-328,-263,-229,-226,-260,-320,-289,-267,-172,-181,-189,-98,-57,113,671,1178,823,-1535,-2995,-2047
2018-05-17,13:23:56.401,-1121,-447,-188,-67,-25,78,139,133,142,163,183,182,186,224,280,298,303,323,317,325,293,270,255,155,8,-4,-99,-132,-160,-147,-148,-115,-37,-56,-35,100,196,344,536,782,941,1082,1119,1179,1186,1108,951,787,642,482,404,436,552,657,680,597,449,193,92,367,669,460,-1550,-3394,-2856,-1894,-924,-421,-441,-333,-200,-237,-245,-170,-202,-198,13,-35,-64,-45,-44,43,60,73,128,64,-1,-91,-161,-266,-320,-335,-298,-252,-309,-313,-226,-242,-293,-231,-281,-454,-645,-732,-756,-742,-660,-585,-526,-448,-335,-264,-220,-174,-137,-50,21,45,76,130,155,161,186,513,1052,1365,457,-1835
2018-05-17,13:23:57.438,-2362,-1449,-697,-172,99,57,157,311,327,446,604,757,900,1069,1193,1266,1298,1272,1182,1096,1056,981,886,764,582,404,258,213,207,221,170,114,31,-84,-178,-236,-300,-338,-396,-391,-246,-275,-264,-293,-212,-173,-106,-101,-125,-168,-222,-187,-137,-55,-118,-103,-55,1,114,404,978,1390,856,-1213,-2165,-1264,-370,163,519,551,465,464,498,371,244,126,69,-95,-207,-268,-328,-347,-339,-301,-310,-320,-311,-313,-330,-321,-308,-261,-156,-67,19,103,180,229,240,288,227,217,152,57,10,-95,-138,-208,-210,-288,-316,-307,-254,-181,-58,100,273,443,589,703,806,804,885,1383,1953,1943,98,-2062
2018-05-17,13:23:58.475,-1762,-703,-13,392,535,571,578,543,493,393,245,61,-45,-116,-189,-234,-249,-228,-178,-220,-171,-207,-186,-175,-286,-317,-375,-373,-365,-371,-396,-365,-255,-165,-198,-210,-133,-99,-174,-202,-201,-212,-211,-200,-167,-193,-169,-112,-194,-186,-170,-163,-77,19,-140,-242,-159,-5,496,1095,1206,-400,-2401,-2137,-1057,-322,104,243,254,233,275,349,301,334,275,302,304,298,239,164,123,59,20,-48,-135,-225,-332,-376,-443,-390,-277,-141,104,309,393,519,542,533,544,500,452,441,396,359,375,431,458,420,363,268,122,-98,-287,-427,-462,-522,-622,-645,-604,-557,-433,68,768,1103,-245,-2613,-2590,-1413
2018-05-17,13:23:59.512,-663,-83,57,68,61,74,14,-19,68,151,190,186,146,132,61,60,199,125,52,55,73,-40,-108,-258,-415,-586,-808,-899,-897,-912,-823,-697,-635,-551,-449,-337,-236,-201,-154,-80,-18,28,79,122,140,119,141,178,236,223,151,115,32,-6,-11,59,400,917,1132,-363,-2228,-1985,-791,43,621,944,1163,1330,1435,1473,1440,1374,1259,1200,1146,1073,1000,940,882,882,910,890,726,479,175,-150,-451,-683,-848,-936,-982,-997,-951,-839,-748,-697,-532,-528,-418,-398,-237,-288,-420,-283,-211,-259,-289,-295,-248,-246,-218,-199,-168,-141,-111,-139,-211,-224,-93,410,1012,1101,-868,-2755,-2066,-987,-255,145
2018-05-17,13:24:00.550,-18,-92,-136,-176,-236,-284,-268,-204,-102,-85,3,55,123,143,167,202,187,138,105,41,-42,-111,-74,-178,-321,-212,-267,-348,-397,-394,-317,-327,-271,-259,-177,-7,192,323,482,715,928,1139,1140,1103,1067,931,868,832,764,696,619,522,444,465,901,1510,1705,222,-2328,-2626,-1609,-883,-491,-360,-391,-477,-413,-384,-449,-401,-282,-282,-166,-107,-219,-207,37,-111,-74,-52,-147,-102,-119,-159,-213,-220,-197,-139,-107,-108,-130,-187,-243,-241,-217,-170,-205,-180,-148,58,-78,-193,-227,-358,-507,-597,-632,-667,-581,-532,-436,-370,-343,-300,-260,-223,-78,414,1063,1333,36,-1991,-1852,-670,89,596,725,710
2018-05-17,13:24:01.587,679,551,536,391,315,242,182,235,284,318,451,639,791,809,1001,1186,1215,1285,1225,1155,1086,1036,1034,994,942,870,794,737,727,777,837,786,654,463,214,-84,-360,-606,-829,-933,-1052,-1122,-1151,-1107,-1119,-994,-798,-828,-754,-700,-641,-478,-376,75,662,891,-665,-2676,-2343,-1240,-490,13,277,294,264,230,204,209,205,337,356,285,268,301,365,346,257,174,36,-167,-384,-549,-681,-781,-787,-744,-638,-510,-396,-309,-261,-196,-107,-35,55,127,159,218,237,241,227,181,143,33,-42,-158,-247,-361,-398,-367,-301,-346,-287,-205,-53,234,718,1504,2046,1547,-490,-1237,-91,859,1471,1734,1667,1509
2018-05-17,13:24:02.624,1307,1089,879,722,658,675,727,742,652,485,300,106,-91,-314,-479,-616,-765,-956,-1078,-976,-984,-906,-931,-703,-648,-557,-468,-449,-417,-335,-283,-255,-249,-160,-86,-24,31,112,157,161,124,99,75,27,190,205,218,196,208,216,257,372,885,1395,1364,-826,-3384,-2910,-1576,-766,-329,-139,-33,39,98,135,188,205,254,438,507,487,663,733,738,718,661,550,425,248,113,-54,-263,-423,-551,-618,-607,-586,-593,-541,-368,-206,-39,126,329,480,592,685,649,520,468,435,404,397,358,333,299,286,298,343,360,312,191,53,-81,-126,175,669,738,-941,-3264,-2978,-1707,-843,-370,-317,-304,-198
2018-05-17,13:24:03.661,-202,-123,-67,-164,-240,-211,-178,-209,-198,-183,-190,-187,-179,-120,-107,-134,-197,-324,-395,-367,-429,-296,-323,-274,-308,-350,-285,-299,-363,-397,-501,-547,-529,-550,-579,-458,-406,-334,-280,-249,-164,-144,-120,-56,69,135,162,228,291,350,434,653,1219,1616,1219,-1065,-2394,-1535,-570,13,280,338,310,327,372,463,541,636,801,1016,1177,1330,1467,1482,1451,1394,1283,1144,1020,839,608,384,261,196,230,304,311,207,48,-113,-264,-435,-520,-600,-680,-711,-752,-652,-598,-519,-532,-556,-465,-399,-398,-449,-518,-352,-365,-359,-367,-299,-249,-165,94,612,1107,906,-1061,-2699,-2046,-1005,-344,90,233,324,383,318
2018-05-17,13:24:04.698,318,254,224,237,-9,-147,-125,-188,-310,-310,-313,-305,-299,-315,-320,-368,-408,-410,-392,-329,-256,-164,-157,-65,37,29,32,62,-69,-28,-87,-187,-257,-241,-205,-282,-268,-268,-187,-63,67,221,451,658,824,906,916,911,917,932,1379,2170,2463,1245,-1461,-2026,-810,96,596,737,642,507,327,175,55,-74,-178,-271,-317,-372,-338,-396,-337,-325,-257,-309,-307,-384,-431,-490,-566,-571,-653,-578,-542,-549,-495,-422,-368,-305,-229,-125,-92,-33,-42,-97,-71,-56,-40,15,22,3,21,32,-70,-114,30,-170,-485,-545,-566,-544,-508,-280,286,847,700,-1282,-2813,-1973,-782,15,465,624,699,728,728,705
2018-05-17,13:24:05.735,664,710,642,531,482,464,334,322,236,188,166,191,111,111,174,294,429,500,666,851,1039,1209,1240,1242,1205,1116,1090,1042,1015,989,903,796,733,690,680,597,436,195,-103,-433,-711,-871,-974,-1120,-1142,-1127,-1079,-996,-808,-223,350,609,-1149,-3291,-2778,-1590,-835,-385,-103,-93,-44,-4,42,110,133,139,141,131,120,73,107,195,195,157,304,159,57,17,-41,-203,-340,-488,-606,-731,-781,-748,-707,-660,-593,-470,-405,-310,-245,-185,-150,-123,-94,-34,-1,47,64,45,52,52,65,70,60,-35,-29,-143,-211,-160,144,678,1083,141,-2093,-2520,-1249,-217,561,1036,1308,1436,1509,1530,1454,1350
2018-05-17,13:24:06.773,1283,1324,1292,1258,1177,1070,962,900,802,692,563,374,126,-157,-424,-651,-864,-926,-991,-1053,-1121,-1132,-935,-840,-845,-702,-684,-623,-625,-500,-455,-439,-419,-468,-454,-356,-353,-357,-318,-247,-171,-77,-105,-163,-188,-158,-104,94,713,1331,1446,-440,-2752,-2204,-928,-190,301,227,30,-98,-151,-154,-178,-225,-225,-219,-158,-74,-61,-52,-6,54,119,120,100,66,68,24,-39,-195,-89,-12,-84,-129,-161,-205,-164,-188,-242,-224,-166,-71,34,224,387,616,817,962,1095,1176,1142,1066,1024,969,959,1009,995,944,857,790,776,797,948,1364,1633,1133,-1332,-3210,-2544,-1493,-770,-502,-541,-510,-462,-445,-426,-335
2018-05-17,13:24:07.810,-272,-243,-301,-283,-78,-125,-101,-119,-105,-92,-115,-86,-99,-111,-105,-87,-82,-114,-67,-19,0,64,161,116,121,233,259,181,129,164,-36,-215,-377,-455,-462,-499,-537,-534,-458,-383,-346,-245,-180,-148,-89,-55,-8,37,176,651,1243,1561,252,-2205,-2122,-1108,-364,119,241,225,211,215,163,163,197,323,554,665,915,1212,1525,1727,1811,1898,1820,1674,1515,1308,1136,1003,849,653,448,337,354,450,525,480,294,11,-310,-624,-871,-1103,-1220,-1301,-1345,-1363,-1203,-1108,-1042,-921,-952,-887,-761,-785,-646,-545,-523,-536,-512,-407,-332,-52,576,1210,1141,-969,-2547,-1803,-764,-110,320,430,450,500,514,505
2018-05-17,13:24:08.847,470,502,524,475,464,428,252,35,-81,-184,-257,-353,-461,-518,-543,-552,-579,-623,-617,-560,-471,-352,-274,-246,-233,-139,-79,-80,-90,-107,-188,-224,-275,-406,-391,-369,-421,-399,-390,-252,-223,-79,136,305,493,717,906,913,942,980,1228,1910,2395,1830,-790,-2225,-1146,-107,499,763,783,679,566,394,187,-1,-167,-292,-384,-472,-479,-524,-578,-450,-369,-589,-541,-517,-550,-609,-742,-745,-727,-731,-739,-671,-630,-569,-499,-450,-332,-261,-169,-90,-86,-113,-182,-170,-175,-110,-24,-5,-8,43,26,95,36,-10,-203,-318,-330,-387,-408,-402,-382,-231,336,910,899,-945,-2870,-2208,-950,-112,330,486,525,550
2018-05-17,13:24:21.620,-425,-351,283,1021,1279,-906,-3805,-3065,-1507,-777,-175,223,696,1435,1302,1226,1297,1157,975,739,560,425,548,673,666,834,849,773,633,447,229,60,-70,-206,-182,-401,-637,-623,-486,-103,-220,-383,-416,-450,-500,-534,-268,-74,-100,-301,-501,-478,-441,-364,-478,-413,-1235,-2032,-1711,-1150,-787,-638,-724,-789,-528,341,1025,580,-1373,-2583,-1437,-126,687,1048,1099,1129,1036,844,762,539,384,248,108,-17,-65,6,142,89,90,122,79,100,120,3,-123,-116,349,1005,358,-62,478,758,639,434,392,294,282,469,704,606,473,562,551,459,412,336,254,121,121,130,252,193,17,159,-115,-326,-147,304
2018-05-17,13:24:22.695,737,1234,1211,-1261,-3320,-2328,-1223,-488,168,-710,-1487,-1091,-456,-133,-115,-62,-174,-316,-291,-68,128,434,611,680,725,768,627,415,203,-104,-340,-491,-608,-628,-696,-735,-744,-792,-626,-501,-611,-640,-639,-545,-560,-589,-540,-460,-108,723,580,205,705,678,482,394,320,146,330,480,445,606,1081,1682,2114,1261,-1410,-2105,-930,-32,629,768,648,751,555,513,383,211,-25,137,-75,121,543,512,402,366,202,148,23,-64,-243,-239,-707,-1894,-1834,-1059,-588,-435,-419,-411,-281,-10,334,467,754,950,1007,992,867,835,806,711,463,217,35,-241,-512,-648,-839,-934,-1050,-943,-861,-749,-63,552,1135,625
2018-05-17,13:24:23.732,-2316,-2959,-1546,-395,851,1819,1497,1460,1417,1173,987,820,450,406,573,629,743,856,932,834,710,654,655,524,384,205,91,-280,-590,-543,-418,-441,-298,-272,-388,-740,-1073,-220,257,-134,-409,-477,-443,-488,-609,-750,-833,-658,-614,-1224,-1205,-854,-716,-678,-813,-731,-434,-130,535,1479,1944,1158,-1109,-1920,-891,-21,560,800,648,498,340,126,-107,-204,-355,-513,-568,-566,-462,-515,-422,-349,-331,-259,-176,-219,-233,247,1038,1199,925,850,638,326,114,-61,-83,97,292,552,507,207,129,339,528,275,89,-6,-195,-53,168,-89,-103,-150,-392,-558,-475,-310,-438,-332,467,970,1049,-208,-3073,-3345,-1834,-786
2018-05-17,13:24:24.769,103,166,-857,-821,-340,-124,-207,-400,-390,-308,-109,248,622,892,1072,1138,1089,1035,816,621,291,-5,-263,-524,-763,-948,-1042,-1144,-941,-824,-891,-860,-745,-701,-753,-772,-846,-806,-489,154,1100,1996,2341,2357,1753,996,421,13,-1,-104,-113,-69,23,198,452,1050,1904,669,-2481,-3136,-1801,-631,-114,-55,-39,133,-215,-197,260,54,-238,-52,8,-59,-283,-205,-114,-231,-370,-345,-390,-286,-74,-901,-1654,-1441,-1228,-1153,-1110,-1103,-1001,-856,-625,-341,-124,64,191,278,372,377,346,356,303,168,91,1,-192,-363,-389,-153,-332,-417,-405,-314,-276,-59,552,1152,1391,-476,-2562,-2004,-776,261,1283,1490,441,649
2018-05-17,13:24:25.807,1155,1314,1042,846,709,726,899,1001,1082,1136,1120,1172,986,780,557,437,379,371,161,-211,-5,-46,-335,-423,-111,-91,-135,39,71,3,-92,-240,-234,-172,-163,-141,-226,-1048,-1542,-1251,-626,-260,-124,-123,-166,-277,-278,-187,42,669,1578,1921,964,-1489,-2183,-1029,-127,431,546,388,290,230,188,75,5,-28,-33,-14,-17,54,177,180,99,-85,66,110,-193,17,747,324,179,310,265,173,-11,-172,-141,-12,161,302,346,469,597,494,380,332,271,216,83,-23,2,-234,-201,-358,-799,-939,-565,-536,194,654,765,1055,1276,-178,-2910,-2949,-1608,-614,-95,301,81,-1147,-1321,-855,-554,-452,-442,-426
2018-05-17,13:24:26.844,-483,-256,-157,7,254,488,687,854,848,744,590,380,187,-5,-176,-281,-402,-501,-648,-742,-531,-532,-598,-494,-325,-37,-89,-197,-74,-4,15,12,317,1092,922,44,297,574,620,545,601,381,409,813,1651,2155,1762,-868,-2283,-1096,-33,436,664,367,281,866,340,-10,279,386,219,454,889,621,413,434,346,278,198,139,56,-20,-176,-382,-416,-1211,-2509,-2330,-1695,-1211,-873,-719,-615,-567,-472,-293,-7,339,619,911,1095,1040,912,712,532,325,88,-167,-123,-197,-371,-465,-513,-595,-317,299,896,1264,-887,-3572,-2839,-1321,-432,171,633,1368,1542,1022,1151,1199,1102,985,786,618,535,745,1007,1040
2018-05-17,13:24:27.881,969,994,927,934,587,393,291,-40,-193,-250,-325,-146,67,-95,-378,-612,-466,-380,-182,-178,-200,-73,-329,-543,-436,-398,-430,-292,-401,-1344,-1564,-1130,-595,-385,-470,-490,-540,-340,336,964,360,-1574,-2287,-1210,-137,641,1050,1019,886,749,536,259,86,-120,-246,-377,-507,-442,-462,-372,-373,-405,-313,-283,-414,-433,-386,-376,-300,470,1682,1711,1426,1457,1242,1007,642,270,258,244,181,394,548,258,-41,3,44,-51,-24,-102,-146,-24,-35,-294,-382,-403,-463,-232,39,831,1349,1141,-1511,-3310,-2254,-1226,-526,-88,55,49,132,403,30,-859,-1074,-644,-181,-94,-102,-129,-111,44,338,614,976,1208,1290,1147
2018-05-17,13:24:28.918,894,674,573,413,178,-65,-254,-348,-458,-551,-631,-745,-861,-775,-830,-839,-697,-554,-553,-516,-427,-289,-49,61,696,1496,1067,1104,1154,977,833,1013,1396,1457,-160,-2111,-1841,-558,489,980,1022,1031,1103,1105,926,851,852,289,279,959,955,468,413,753,777,291,215,337,354,136,-6,-260,-417,-513,-581,-452,-339,-1148,-2285,-1989,-1139,-757,-755,-821,-913,-846,-567,-330,-29,130,425,644,650,578,572,603,472,214,10,-206,-391,-341,140,537,647,-1592,-4055,-3239,-1898,-1027,-486,-298,-33,229,368,317,280,522,685,-534,-1023,-100,469,487,416,319,264,345,556,727,727,688,662,581,400,287,244,206
2018-05-17,13:24:29.955,-58,-51,39,-92,117,209,43,54,-27,-506,-391,-206,-297,-447,-671,-620,-609,-751,-800,-589,-222,-776,-1250,-876,-110,639,675,-967,-3345,-3062,-1599,-444,353,676,816,972,948,863,734,610,534,412,269,230,253,215,88,92,42,-112,-273,-483,-281,-438,-377,-236,-227,-249,-262,-247,-300,-345,-242,307,840,218,243,485,560,412,33,-146,-123,165,265,247,433,432,483,483,360,297,406,437,832,1300,1545,1033,-1809,-3544,-2183,-358,435,150,1,628,501,84,220,409,231,100,29,88,431,415,-442,-746,-308,76,-89,-420,-761,-962,-959,-981,-609,-195,193,527,758,908,1010,992,832,670,385,46
2018-05-17,13:24:30.992,-241,-442,-625,-900,-975,-1020,-1003,-984,-973,-945,-833,-744,-741,-727,-524,-317,156,1228,2575,1689,-1042,-1752,-665,35,464,679,661,849,1012,923,948,970,962,963,803,656,679,755,788,402,208,419,220,36,49,180,-10,-35,-458,-663,-840,-762,-46,111,194,225,-22,-300,-448,-474,-251,-989,-1574,-1119,-669,-597,-724,-733,-738,-604,-384,-83,118,264,448,552,741,1225,1657,1575,-581,-2443,-1906,-928,-180,139,203,90,24,103,-55,-362,-467,-361,-274,-157,-44,16,104,83,608,1531,1920,1197,1389,1398,905,378,91,14,-6,57,132,155,168,83,16,125,109,-34,-182,-166,-16,-154,-339,-18,-366,-654
2018-05-17,13:24:32.030,-571,-404,-101,148,-276,-186,-123,-89,395,878,1026,-872,-3266,-2867,-1340,-212,-552,-1099,-747,-440,-543,-636,-668,-761,-645,-367,3,239,470,698,729,735,680,548,402,190,-212,-314,-127,-373,-688,-763,-809,-798,-650,-582,-576,-542,-396,-273,-132,-120,-40,64,167,686,1507,1034,723,856,827,745,626,441,352,559,792,1140,1850,2300,1660,-1227,-2361,-1283,-453,355,848,435,368,736,497,168,468,626,221,333,440,316,364,316,90,116,329,356,80,-206,-361,-246,-912,-1570,-1275,-789,-694,-791,-797,-625,-550,-324,-61,234,332,445,552,578,590,576,517,376,256,158,77,27,-101,-76,-79,-70,-15,252
2018-05-17,13:24:33.067,733,1145,-776,-3113,-2315,-985,-229,317,1079,1954,1635,1165,1436,1453,1169,898,671,649,570,548,622,600,588,422,408,447,252,1,7,-168,-411,-485,-203,-31,-85,-378,-340,-98,-203,133,-15,-173,-122,-122,-156,-219,-385,-492,-561,-596,-202,-777,-1802,-1564,-939,-771,-798,-682,-129,362,48,-1571,-2926,-2143,-825,129,713,840,727,629,525,423,226,161,149,51,-52,4,13,-110,-48,-32,-129,37,225,95,47,64,-141,-72,-15,-52,318,955,686,-154,286,613,602,283,107,151,315,437,522,526,384,333,162,99,-23,-197,-290,-350,-523,-324,-286,279,802,1087,151,-2838,-3386,-1581,-405,52,72,46
2018-05-17,13:24:34.104,114,22,57,-6,162,433,-508,-1235,-994,-607,-386,-370,-421,-404,-376,-292,-235,-144,-5,154,220,248,337,315,252,212,134,-6,-119,-220,-319,-387,-506,-726,-747,-898,-708,-374,-444,-326,-170,30,135,157,212,206,297,797,1686,2078,1341,199,-1857,-1850,-934,-221,439,767,955,1018,1014,950,872,836,741,697,689,443,337,75,87,286,394,385,101,-180,-216,-240,-13,-22,-211,-377,-362,-328,-351,-439,-480,-148,284,-569,-1442,-1178,-679,-528,-610,-685,-594,-427,-140,219,630,902,1105,1220,1167,1019,1231,1782,2156,1678,-1327,-3181,-2268,-1114,-337,-244,-62,-224,-199,-197,-74,-35,92,410,525,520,424,416
2018-05-17,13:24:35.141,415,444,769,1498,2003,1564,1631,1428,819,153,-249,-231,-126,7,152,250,277,257,184,137,25,34,335,135,-259,-594,-743,-569,-751,-984,-689,-235,-612,-924,-819,-931,-260,317,763,654,-1527,-3581,-2946,-1778,-939,-125,-403,-1022,-651,-347,-407,-460,-340,31,465,654,740,830,874,880,809,639,443,219,2,-206,-368,-477,-657,-838,-962,-932,-997,-1025,-991,-970,-913,-896,-670,-557,-586,-451,-454,-476,-409,-76,803,1578,1337,1075,895,587,327,-67,-70,492,1324,1848,1028,-2073,-2639,-1151,-115,357,513,607,618,87,-224,115,410,412,230,218,-30,-336,-273,94,265,558,848,459,-159,-226,-271,-552,-570,-536
2018-05-17,13:24:36.178,-838,-1698,-1452,-1036,-828,-661,-651,-645,-581,-328,-77,186,481,737,689,676,597,501,475,384,203,22,-34,-206,-277,76,705,1250,767,-2187,-3657,-2238,-1020,-117,291,352,312,285,603,1353,2306,2781,2945,2858,2245,1426,936,727,625,704,840,851,609,473,423,290,94,59,-102,-201,-228,-469,-400,-107,-173,-412,-260,-351,-203,37,-198,-522,-493,-421,-528,-434,-608,-584,-591,-603,-559,-116,130,-414,94,606,-1132,-3519,-3136,-1882,-901,90,566,780,950,1066,1133,1125,962,844,687,560,380,247,87,-76,-211,-252,-192,-376,-534,-636,-767,-875,-856,-793,-682,-536,-475,-433,-304,-211,-247,676,2016,2411,2520,2966
2018-05-17,13:24:37.216,2313,1304,572,274,57,6,-18,-230,-430,-444,-303,-260,-169,82,684,1162,120,-2778,-3379,-2109,-1277,-724,-466,-164,-97,-236,-251,-108,-10,-132,-325,-229,-215,-305,-354,-295,201,770,670,-283,-555,-537,-731,-988,-1123,-1124,-932,-615,-178,319,653,865,1008,1073,926,740,565,287,17,-285,-441,-588,-686,-798,-788,-881,-859,-841,-858,-758,-427,266,919,636,-2024,-3195,-1148,1099,2552,2775,2599,2053,1551,1028,772,694,621,658,656,660,657,721,723,675,710,412,141,162,-203,-585,-143,-192,-229,-298,-505,-758,-979,-569,-381,-36,-76,-326,-391,-415,-544,-598,-569,-617,-516,-304,-1384,-2135,-1467,-842,-685,-571,-407,-132
2018-05-17,13:24:38.253,877,1540,1160,-902,-2141,-972,201,956,1147,1030,846,622,373,110,-27,-213,-316,-360,-386,-417,-377,-339,-290,-225,-202,-78,-93,-46,-191,-355,-288,-115,220,1265,1530,1172,1324,1254,890,525,310,378,292,222,263,166,154,133,-19,-13,-131,-148,132,-12,-223,-26,-84,98,751,1216,600,-2353,-3324,-1856,-940,-361,-125,-130,-85,50,55,-151,-257,-26,1000,1636,1193,1098,939,501,137,168,192,220,306,329,392,512,468,291,159,89,-16,-167,-339,-507,-570,-709,-859,-892,-1016,-1115,-1172,-1296,-1372,-1351,-1306,-1095,-907,-882,-823,-465,564,1882,3600,4866,5099,3550,-375,-2641,-1769,-708,155,417,92,95,78,261
2018-05-17,13:24:39.290,181,179,162,67,43,76,10,-347,-289,22,-149,-204,45,-183,-382,-491,-755,-848,-411,-485,-706,-662,-625,-652,-693,-613,-184,418,260,-329,-127,-31,-260,-495,-524,-456,-156,158,423,724,983,997,955,1042,1608,2003,1406,-1535,-3700,-2875,-2100,-1548,-1166,-1036,-1152,-1159,-1056,-1086,-1165,-941,-789,-714,-813,-629,-553,137,1320,2733,3698,3737,3430,2603,1553,692,258,-27,-125,-58,133,215,-105,-215,-72,-96,-118,-196,-260,-359,-383,-536,-561,-481,-511,-690,-642,-411,-319,-252,-414,-573,-113,744,1097,269,-2549,-2997,-1772,-970,-298,596,767,-343,-556,-227,-109,-185,-268,-229,-108,111,496,854,976,1034,1128,1093,880,653
2018-05-17,13:24:40.327,455,227,17,-170,-282,-396,-494,-476,-503,-578,-585,-554,-554,-522,-396,-223,3,65,-5,-26,290,273,647,1690,2172,2059,2200,1801,1319,1332,1613,1732,-7,-2438,-2207,-880,47,624,613,479,374,354,241,178,50,59,93,115,-491,-590,-23,126,-223,-130,17,-194,-571,-825,-677,-515,-630,-689,-776,-562,-142,-374,-1373,-1334,-839,-719,-774,-862,-822,-584,-425,-130,207,494,640,825,795,649,462,318,140,59,364,748,787,-1465,-4207,-3684,-2368,-1584,-956,-799,-880,-693,-449,-420,-348,-221,-38,179,793,1765,2099,1990,1899,1526,1052,379,-97,-154,-96,-26,24,52,-4,-198,-131,-67,-48,55,56,98,211,-212
2018-05-17,13:24:41.364,-619,-96,114,-233,-218,-117,-155,-317,-208,-1,-154,-135,-76,-32,309,856,1250,512,-1694,-2209,-1630,-743,209,582,600,622,639,723,891,1132,1361,1504,1563,1407,1132,841,654,411,176,11,-135,-206,-302,-424,-530,-625,-704,-758,-635,-565,-498,-346,-218,-192,-196,-131,-139,-195,43,277,1072,1769,1451,1479,1218,714,167,-131,-114,43,327,985,1737,1854,-538,-2979,-2157,-901,-69,545,653,334,231,154,85,-19,-206,59,638,331,260,213,-78,165,365,154,-13,-63,-279,-407,-324,53,-307,-1558,-1346,-687,-459,-499,-554,-577,-494,-227,162,414,608,663,617,492,378,327,292,52,-231,-264,-383,-503,-595,-203
2018-05-17,13:24:42.402,368,787,-451,-3899,-4266,-2502,-1417,-644,-275,-198,-228,293,707,1276,2330,3146,3239,3570,3185,2277,1325,515,207,56,-108,-212,-231,-178,-287,-765,-1109,-939,-691,-882,-1036,-831,-784,-505,-495,-612,-358,-324,-866,-1004,-548,-481,-588,-489,-538,-627,-841,-559,-586,-845,-573,292,318,36,-953,-3343,-3871,-2290,-1077,-308,102,245,373,503,595,606,632,552,462,355,260,190,157,144,96,57,0,-151,-343,-405,-482,-656,-684,-607,-579,-542,-422,-360,-386,-343,-239,175,1086,1993,1523,1723,1744,1178,595,139,-78,-86,-82,-61,-73,54,-49,57,702,1442,1714,-416,-3056,-2394,-888,-345,-122,18,120,185,500,418,339,264
2018-05-17,13:24:43.439,80,16,78,101,123,145,143,78,169,360,127,-862,-1257,-892,-589,-400,-387,-439,-477,-486,-465,-252,66,322,604,638,613,470,400,331,148,-42,-110,-216,-302,-323,-346,-366,-421,-63,766,1514,1162,-1869,-3554,-1985,-700,80,745,780,896,1857,2210,1699,1755,1491,1171,879,674,683,801,779,818,823,701,478,268,114,42,55,-114,-286,-122,-89,-509,-631,-578,-567,-517,-520,-83,-147,-381,-374,-737,-766,-378,-299,-533,-466,-340,-337,-43,-393,-1015,-539,461,914,-357,-3012,-3418,-1834,-727,-55,394,602,769,804,768,804,826,770,675,594,502,389,305,192,48,-72,-163,-377,-560,-652,-708,-685,-694,-601
2018-05-17,13:24:44.476,-495,-507,-473,-136,517,1523,1162,475,570,525,457,340,183,167,207,298,423,412,107,234,299,231,335,739,1253,1639,783,-2398,-3148,-1748,-638,-23,405,521,437,384,309,70,254,192,95,255,214,166,83,136,402,-157,-1087,-906,-491,-319,-382,-512,-641,-686,-544,-271,32,290,541,686,658,604,528,440,424,285,202,-7,-135,-268,-316,-432,-565,-600,-581,-528,-383,194,898,1155,-1258,-3903,-2839,-1186,207,1431,2448,2455,2037,1419,752,487,316,171,209,215,330,416,428,349,331,217,-4,-85,-220,-335,-558,-933,-694,-405,-460,-710,-613,-766,-635,-661,-712,-333,-410,-543,-492,-544,-660,-677,-622,-416
2018-05-17,13:24:45.513,-50,48,-836,-1054,-742,-586,-101,578,831,-489,-2899,-3071,-1521,-244,529,1056,1096,984,788,697,628,544,433,421,342,270,179,212,174,84,10,-2,-25,-142,-179,-193,-87,-105,-130,-40,60,404,1240,1899,1453,1146,1170,996,752,534,369,342,341,410,506,384,46,-32,52,117,96,57,385,1090,1608,260,-3157,-3705,-1654,-408,159,373,306,496,364,293,342,141,148,181,119,252,414,-94,-799,-794,-402,-92,-80,-182,-295,-412,-425,-330,-218,33,276,524,712,703,680,583,416,278,109,-155,-382,-513,-626,-621,-556,-561,-616,-544,-455,-553,-416,-50,609,1278,1043,-1987,-3858,-2167,-130,1052,1268,1298
2018-05-17,13:24:46.550,1792,1405,903,534,274,244,500,584,521,670,669,532,485,467,301,104,-14,-43,-283,-429,-690,-434,-360,-594,-380,-399,-99,6,-204,-193,-305,-432,-463,-487,-467,-773,-453,-287,-257,-589,-1583,-1567,-1079,-744,-425,217,882,708,-1020,-2947,-2257,-829,259,994,1242,1226,1128,928,692,511,317,150,-20,-107,-190,-241,-250,-223,-283,-371,-438,-433,-478,-476,-431,-421,-408,-288,341,1407,2066,1352,1360,1550,1075,621,463,351,282,358,308,325,393,453,529,472,415,432,451,399,538,974,1601,1357,-841,-3392,-2798,-1228,71,517,414,341,326,220,250,127,124,-3,137,238,108,259,-449,-1170,-758,-331,-156,-261
2018-05-17,13:24:47.587,-356,-383,-369,-262,-53,276,445,610,809,832,742,660,534,358,238,61,-182,-361,-637,-804,-856,-904,-962,-835,-988,-975,-766,-654,-65,702,1122,-272,-3218,-2981,-777,1128,1602,1807,1609,920,728,535,196,194,375,468,502,595,377,317,473,516,330,178,56,-65,-190,-323,-540,-577,-648,-686,-421,-427,-452,-282,-322,-533,-440,-309,-393,-495,-631,-657,-747,-776,-488,-1052,-1458,-1024,-661,-615,-726,-483,285,940,523,-1490,-2608,-1388,-98,654,924,840,658,516,415,228,134,-91,-156,-72,130,22,-87,-76,9,-3,-15,-14,-22,-40,-86,-80,-3,21,625,1605,1498,1369,1574,1179,701,416,253,389,326,210
2018-05-17,13:24:48.625,204,9,76,72,27,29,189,251,201,108,99,166,473,1103,957,-1767,-3267,-1973,-816,-53,266,200,230,204,74,-14,20,59,308,618,-243,-684,-361,-72,-95,-209,-311,-430,-499,-278,-60,105,325,489,504,430,398,334,303,226,19,-137,-299,-315,-307,-442,-482,-696,-685,-510,-633,-612,-301,-84,-8,8,138,900,1769,2106,651,-346,1206,2552,2979,2322,1425,870,431,364,291,198,454,440,96,-33,3,30,24,122,72,-25,-58,-200,-479,-799,-1015,-848,-369,-317,-566,-460,-511,-598,-673,-691,-723,-762,-945,-953,-845,-687,-354,-597,-1519,-1437,-1098,-1033,-1066,-1026,-869,-613,1,902,1096,-273,-2546,-2374
2018-05-17,13:24:49.662,-1034,-236,208,268,212,148,62,-21,-120,-194,-211,-281,-360,-349,-348,-227,-51,55,93,0,-111,-154,-144,-114,160,1018,1576,561,677,896,684,529,292,105,41,94,235,140,131,188,233,279,249,281,97,-62,-33,-325,-496,190,999,1374,1508,-820,-3270,-2630,-1581,-400,354,384,316,293,173,150,15,36,302,-130,-1355,-1165,-473,-175,-141,-213,-362,-438,-395,-265,-118,166,414,602,712,617,515,469,392,327,230,158,-48,-193,-234,-404,-510,-585,-628,-579,-483,-367,-238,-260,-286,-234,-161,708,1862,2794,1040,-1784,-1201,24,513,683,660,612,629,879,934,940,792,726,761,702,699,669,545,446
2018-05-17,13:24:50.699,482,252,168,75,-291,-294,-59,-27,-262,-373,-280,-206,-500,-589,-670,-575,-629,-580,-477,-341,-146,-1260,-1888,-1500,-1125,-800,-693,-680,-451,-422,-287,-140,228,957,1600,1401,-827,-2202,-1419,-538,38,230,196,151,48,-78,-127,-142,-159,-222,-144,-159,-217,-31,256,395,300,241,168,197,616,1603,1197,996,1245,1097,845,591,446,408,423,576,664,462,474,592,568,406,406,336,292,265,97,78,16,-162,-295,-56,617,1386,1619,-131,-3006,-2412,-894,-95,401,560,346,329,290,137,266,88,-1125,-1451,-783,-310,-120,-141,-144,-134,-218,-250,-59,164,386,581,442,260,142,-81,-223,-374,-478,-463,-575,-724
2018-05-17,13:24:51.736,-687,-646,-567,-548,-488,-483,-535,-454,-272,-101,-42,-40,-32,102,318,1157,2239,2210,887,-1829,-2034,-868,-161,297,466,692,835,923,976,886,811,840,687,551,559,279,270,428,287,145,182,-82,-200,-361,-453,-327,-464,-564,-738,-731,-695,-692,-710,-669,-885,-816,-468,-1173,-1743,-1530,-1138,-921,-968,-885,-580,-378,-191,10,146,298,569,1195,1691,1374,-1076,-2660,-1959,-1029,-333,109,142,58,11,-51,-96,-56,-31,-70,-17,60,168,188,85,270,359,301,639,1583,1107,1020,1185,772,596,310,114,213,282,330,360,421,533,590,353,243,391,402,119,-94,30,-35,-247,54,27,-501,-511,105,1081,1529
2018-05-17,13:24:52.773,1220,-1756,-3710,-2314,-1094,-408,-40,-13,-56,89,337,-244,-579,-295,-73,-2,-36,54,175,306,539,829,965,925,801,495,191,11,-118,-296,-405,-563,-619,-625,-693,-734,-687,-651,-714,-638,-547,-508,-434,-344,-212,-126,-45,19,39,77,626,1491,1218,1666,2195,1492,-1642,-3203,-2019,-764,147,562,577,694,626,418,318,221,261,99,102,87,-322,-264,-266,-161,-251,-308,-111,80,-139,-281,-132,-336,-528,-471,-302,-233,-301,-157,49,-336,-727,-693,-525,-368,-279,-371,-325,-181,-115,-3,101,198,334,382,404,428,846,1373,1533,-170,-2450,-2266,-1126,-387,76,136,40,-19,-24,40,57,135,207,326,494,500
2018-05-17,13:24:53.811,382,335,327,915,1122,-663,-774,-185,136,292,208,13,27,193,261,337,495,476,547,379,105,58,111,49,-135,-83,-63,-268,3,85,36,-52,-109,-149,214,906,1816,1581,-1164,-3291,-2194,-919,-236,148,-275,-845,-703,-258,159,289,209,231,165,182,180,377,548,710,864,968,926,784,679,570,432,333,178,39,-18,-94,-77,-106,-211,-288,-282,-218,-221,-117,-67,-55,6,30,-74,-72,-78,-99,422,396,-784,-39,1132,1743,648,-2490,-3123,-1491,-178,508,468,514,431,357,344,440,365,249,45,-78,-289,-196,256,291,172,320,269,188,167,-81,-99,-111,-276,-350,-301,-259,-225,-281,-524,-655
2018-05-17,13:24:54.848,-1497,-1956,-1623,-1116,-749,-748,-831,-794,-615,-405,-179,-76,72,137,136,176,401,1043,1658,1565,-573,-2447,-1806,-714,-17,340,424,299,-60,-188,-132,-187,-213,-136,2,87,208,311,318,245,174,738,1334,216,359,698,740,798,684,449,382,423,599,621,518,661,673,640,633,614,565,534,595,583,217,-169,-470,132,242,99,100,531,1329,1555,445,-2400,-3308,-1807,-748,-87,129,145,59,-1051,-1721,-1266,-604,-298,-240,-248,-221,-201,-174,-45,234,483,730,927,994,869,803,688,555,350,293,191,61,-198,-511,-651,-763,-818,-840,-880,-814,-856,-716,-628,-443,-318,-349,-337,-149,217,1235,2256,2512,3004
2018-05-17,13:24:55.885,2837,-85,-2170,-1429,-363,401,989,1157,1204,1242,1038,726,716,691,490,354,281,178,422,686,459,47,167,285,72,-124,-134,-367,-251,-424,-448,-477,-587,-624,-722,-837,-909,-870,-1216,-1680,-1586,-1424,-1178,-1279,-1357,-1214,-959,-694,-485,-329,-173,-27,208,800,1332,1177,-1174,-3058,-2463,-1493,-640,-318,-289,-332,-383,-237,-199,-264,-121,3,337,502,682,907,1013,1089,1033,774,589,900,1677,1451,149,531,947,899,639,353,277,337,385,462,476,573,452,170,168,41,-363,-397,-273,-396,-423,-328,-174,-282,-278,274,1146,1572,-320,-3375,-2979,-1424,-558,-21,104,67,70,75,-16,-505,-499,-359,-78,130,125,164
2018-05-17,13:24:56.922,303,372,247,192,269,343,414,527,533,586,571,536,441,345,143,-205,-540,-648,-698,-796,-812,-982,-1002,-933,-695,-551,-509,-361,-334,-205,-59,241,1049,1389,1515,2244,731,-2188,-2309,-1045,-144,510,822,879,842,975,1029,792,791,828,795,666,714,613,44,405,883,311,126,64,-16,-68,-205,-376,-405,-465,-445,-631,-595,-537,-519,-518,-314,-488,-506,-1393,-1668,-1155,-904,-856,-708,-598,-518,-479,-305,-75,169,613,1369,2015,1759,-633,-2271,-1529,-495,105,392,339,179,58,-113,-264,-367,-417,-445,-447,-285,-167,-142,21,173,157,163,383,983,1091,290,603,834,702,341,212,205,179,285,456,352,565
2018-05-17,13:24:57.959,849,527,341,550,491,298,306,237,438,435,64,37,275,289,631,1292,1377,-1137,-3639,-2830,-1385,-736,-194,-39,-68,-90,89,-292,-1610,-1705,-987,-650,-496,-561,-586,-493,-459,-398,-340,-210,-106,-4,80,117,75,-15,-88,-207,-276,-431,-578,-700,-675,-733,-854,-771,-698,-635,-526,-331,-194,-90,-91,4,147,355,1124,2279,2134,2123,2911,1285,-1788,-1918,-636,131,877,1210,899,1004,1020,906,1050,1099,952,823,872,1013,848,480,244,188,395,256,159,43,-309,-602,-457,-1123,-1754,-743,-305,-195,-146,-237,-430,-458,-282,409,-306,-1338,-1187,-994,-982,-797,-631,-570,-452,-284,-178,108,758,1646,2168,1873,-645,-2553
2018-05-17,13:24:58.996,-1598,-577,-48,136,-20,-164,-370,-421,-428,-510,-492,-660,-638,-566,-417,-185,-80,36,81,194,165,803,1889,1840,825,1719,2187,1255,578,387,196,39,128,189,256,376,370,309,247,155,-37,-53,84,387,362,98,-70,-4,40,461,874,1332,-848,-3138,-2445,-1281,-573,-88,186,185,97,-94,-362,-378,-45,-456,-653,-564,-664,-726,-647,-617,-487,-213,63,420,551,565,593,633,493,250,120,90,-14,-204,-383,-569,-719,-806,-871,-840,-770,-796,-797,-745,-584,-413,-222,-72,108,267,367,817,1500,2100,1398,-1127,-1791,442,1522,1329,973,494,174,159,363,581,619,572,699,728,590,583,566,446,420,399
2018-05-17,13:25:00.034,-156,-309,-30,115,18,-182,-497,-680,-714,-743,-636,-513,-615,-667,-561,-575,-543,-588,-537,-834,-1221,-892,-486,-428,-389,-379,-417,-469,-282,422,1352,1847,1316,-1126,-2416,-1232,-78,593,961,902,665,420,211,43,-198,40,84,39,65,122,101,84,93,101,125,97,124,33,-275,-95,454,724,591,584,301,-27,-227,-411,-409,-312,-178,-4,93,33,130,213,-21,293,426,283,272,299,236,240,40,-48,-111,-239,-416,-573,-737,-597,-317,-308,-363,-280,-175,-187,-178,-91,-86,-135,-240,51,183,334,353,429,512,476,407,334,406,466,430,358,294,85,49,43,-66,-23,-27,-58,76,549,1434,2032
2018-05-17,13:25:01.071,1246,-2452,-3366,-1530,-312,348,596,631,562,417,249,59,-227,-502,-275,1,182,364,422,504,518,530,405,368,242,234,429,240,141,120,87,106,120,-28,-175,-81,33,8,-196,-487,-318,-98,-149,-277,-388,-505,-525,-582,-564,-587,-924,-938,-915,-1666,-634,1513,2761,-1016,-3631,-2646,-1140,-219,278,585,774,921,1093,1169,1245,1136,770,49,26,268,511,690,732,662,535,653,765,600,428,355,-4,-332,-478,-638,-654,-767,-122,684,689,302,200,-377,-791,-756,-651,-345,7,190,153,-13,-241,-360,-346,-402,-190,392,1031,1618,-76,-3391,-3368,-1898,-1033,-469,-27,67,-13,-102,-16,83,130,257,111,95
2018-05-17,13:25:02.108,-105,99,16,-449,-393,-288,-613,-596,-845,-1270,-1217,-1038,-942,-853,-837,-831,-712,-554,-308,-225,-138,-68,-225,-466,-719,-999,-1277,-1318,-1420,-1498,-1265,-980,-760,-521,-319,-122,535,1394,1195,-780,-3126,-2775,-1363,-541,-176,175,273,135,296,254,0,36,253,453,693,1105,1402,1513,1806,1859,1728,1594,1559,1516,1293,1186,1125,1037,984,1171,1321,1219,1087,1218,1370,1161,1007,926,786,694,574,621,526,90,-269,-410,-1312,-2052,-1553,-786,-155,909,1569,1070,-1412,-3367,-2194,-430,616,1141,1363,1505,1603,1412,1005,809,654,531,318,197,262,333,360,351,283,354,448,346,414,444,315,2,-159,-159,-437,-316,-132,-1448
2018-05-17,13:25:03.145,-1244,0,307,102,57,75,76,81,8,-21,-113,34,236,372,180,-179,-158,176,801,1014,1211,-1551,-4562,-3497,-1928,-974,-585,-479,-410,-128,224,416,241,220,363,294,409,350,-106,-869,-1292,-759,-429,-323,-272,-183,-394,-444,-381,-266,-212,22,360,466,490,563,572,630,807,833,731,422,152,82,-173,-363,-235,-317,-310,-170,-271,-141,350,1252,1824,1291,-2146,-4026,-2409,-962,-103,669,488,524,1239,1153,729,623,652,699,554,660,494,506,612,661,586,469,408,112,26,-167,-680,-287,-715,-1285,-1385,-1713,-1862,-1789,-2036,-3417,-4837,-4110,-2273,-1347,-1075,-764,54,805,1253,1491,1282,628,1066,1657,1940,2148
2018-05-17,13:25:04.182,2709,3024,3089,2937,2792,2632,2483,2094,1695,1199,633,226,-127,-575,-871,-1021,-1335,-1685,-1937,-1908,-1938,-1932,-1844,-1800,-1680,-1544,-1298,-1254,-1157,-994,-824,-716,-696,-682,-643,-683,-291,-624,-2389,-1774,-177,440,581,377,188,118,47,277,492,642,780,742,528,447,417,760,1178,1374,1010,-1949,-3569,-2214,-862,-250,10,147,175,470,640,574,482,473,519,564,580,395,-132,-828,-1603,-1488,-1261,-953,-709,-560,-350,-116,187,491,724,856,910,1030,1126,1128,1133,1040,846,689,494,365,168,-111,-215,-285,-426,-490,-470,-449,-397,-329,-131,534,1297,1751,865,-1869,-2591,-1275,240,-221,-1108,-168,727,986,1220,1144,1077,810
2018-05-17,13:25:05.220,841,1138,1057,1119,1229,1135,978,872,740,886,827,479,221,-84,-331,-369,-281,55,-56,-152,-286,-382,-323,-336,-250,-334,-365,-366,-479,-917,-1340,-1542,-2065,-1829,-1332,-1035,-854,-536,-22,804,1339,679,-1521,-2610,-1273,-79,727,1163,1244,1133,879,708,649,441,382,302,114,89,229,284,307,335,298,411,345,175,129,75,-53,-30,-34,32,568,-665,-1347,-125,654,527,343,210,313,-11,-216,-38,297,312,213,247,228,113,-130,-395,-446,-366,118,797,1279,-1290,-4225,-3081,-1392,-510,-93,141,457,545,650,602,482,588,743,453,-157,-569,-325,64,309,434,547,739,805,644,616,485,500,609,563,595
2018-05-17,13:25:06.257,747,645,620,558,444,305,30,-214,-384,-573,-689,-803,-900,-960,-904,-815,-689,-655,-614,-434,-357,29,749,1078,-394,-2580,-2342,-3314,-1883,42,704,873,828,613,563,595,576,593,588,788,988,861,900,1210,965,501,484,393,-29,-145,0,153,-319,-328,-111,-84,-467,-500,-244,-105,-256,-326,-291,-264,-287,-438,-612,-791,-1439,-2282,-1825,-1227,-999,-785,-249,47,449,1226,1736,1200,-1259,-2560,-1279,5,676,943,1016,834,786,655,613,579,477,437,464,440,377,322,433,606,576,587,533,581,486,358,277,571,250,-637,297,1005,1041,865,680,439,292,268,456,694,501,453,576,553,429,286,233,42
2018-05-17,13:25:07.294,54,97,31,-27,796,1647,1859,-128,-3546,-3297,-1325,-265,265,407,453,507,601,439,349,354,86,-521,-1429,-1261,-559,-233,64,333,513,463,347,345,326,357,384,483,559,579,540,428,366,220,80,-68,-138,-271,-353,-422,-428,-423,-483,-549,-565,-455,-307,-306,-302,-192,-147,83,578,823,533,-1454,-4325,-3432,-1044,149,602,616,645,624,524,556,641,717,645,761,908,812,711,731,604,527,473,272,-98,-293,-322,-54,-166,-481,-356,-429,-549,-587,-479,-490,-531,-648,-559,-449,-428,-594,-1453,-1946,-1637,-1039,-487,-173,-64,56,263,338,381,895,1505,1721,100,-2503,-2361,-884,102,739,669,650,473,338
2018-05-17,13:25:08.331,259,140,197,280,364,374,367,522,576,450,449,332,365,290,-14,-228,-142,-66,-610,-954,-536,-143,58,66,219,171,198,280,293,338,305,65,-94,-116,48,143,155,45,-98,-168,-200,-176,532,1188,1490,700,-2704,-3345,-1635,-521,74,243,236,55,84,64,-485,-997,-1502,-2534,-1942,-915,-470,-255,-23,128,248,211,147,210,157,177,178,155,168,210,191,215,299,290,356,231,39,54,-13,-345,-594,-503,-504,-563,-490,-379,-271,-97,204,672,1139,1383,1930,2647,2634,128,-1304,-81,1293,1882,1675,1250,733,423,272,4,-217,-380,-320,-350,-355,-181,-29,65,138,18,-178,-87,-23,-140,-56,-133
2018-05-17,13:25:09.368,-307,-489,-618,-560,-657,-759,-644,-894,-1770,-3248,-3661,-2449,-1439,-1071,-873,-634,-301,-20,-98,-210,-84,95,208,153,317,1071,1766,1762,-1076,-3217,-1961,-894,-221,336,364,440,457,316,171,176,283,237,322,472,441,352,488,457,330,-818,-2285,-2022,-1531,-1174,-882,-599,-319,-132,-103,0,299,623,652,627,509,461,333,131,7,-138,-334,-365,-480,-586,-492,-651,-726,-750,-580,-266,526,1297,1418,-1276,-4121,-3025,-1303,-29,517,600,402,-821,-1915,-1549,-674,-11,524,982,1156,1224,1161,1197,1288,1421,1311,1263,1275,1269,944,700,635,399,134,93,41,-18,-138,-183,-233,-294,-290,-179,-187,-238,-214,-256,-328,-297
2018-05-17,13:25:10.405,-258,-181,-253,-407,-658,-2032,-2089,-281,1315,1857,593,-2260,-2562,-1172,2,863,1013,1038,1228,1217,1030,857,885,775,664,826,495,331,334,288,-214,-164,284,62,-60,87,-101,-252,-307,-346,-328,-268,-153,-156,-725,-1789,-1945,-1271,-759,-451,-201,-95,-72,-47,10,35,-122,57,271,372,470,441,582,1302,1902,1868,-461,-3476,-2996,-1523,-569,-42,149,184,172,116,192,398,428,624,789,799,745,709,2274,2698,1821,446,-773,-700,-948,-1911,-2886,-3932,-4736,-4919,-4596,-3864,-2892,-2021,-1291,-724,13,593,1079,1415,1553,1495,1206,828,688,1154,1329,791,499,610,606,688,1423,2286,2830,1191,-2307,-2393,-634,328,821,944
2018-05-17,13:25:11.443,962,264,-941,-669,45,558,919,1143,1242,1205,1296,1444,1477,1588,1651,1595,1518,1388,1208,1076,929,767,497,296,149,9,-34,-95,-252,-334,-342,-263,-457,-362,-180,-82,-88,0,34,84,49,-135,-454,-662,-1686,-1939,-542,847,836,-1721,-2820,-1388,-194,593,795,798,842,1000,997,779,604,627,677,628,177,255,209,103,433,618,483,90,-230,-224,-146,39,78,-136,-157,-163,-180,-168,-331,-890,-1533,-1577,-1036,-502,-280,-143,-60,-19,20,203,348,301,286,352,450,510,570,1152,1733,1632,-935,-3670,-2837,-1437,-565,-64,72,133,200,175,315,276,392,596,622,744,855,749,709,458,191,-231,-1322,-777
2018-05-17,13:25:12.480,-134,-8,162,127,10,-161,-155,2,248,322,249,308,409,378,429,412,214,-20,51,-178,-487,-693,-530,-228,130,-173,-447,-155,590,1237,1525,-785,-3781,-2928,-1130,-345,-310,-883,-1379,-1137,-451,-85,150,124,187,336,320,376,414,504,570,639,675,583,432,395,289,100,-126,-310,-437,-558,-605,-647,-668,-635,-672,-659,-560,-434,-328,-286,-249,-154,-64,-50,-159,-381,-161,-811,-1913,-1100,20,670,1651,2258,1637,-916,-2325,-1275,30,893,1214,1330,1492,1392,1248,1140,997,919,604,527,419,623,808,438,676,837,617,351,397,365,120,-12,-73,-300,-334,-315,-468,-876,-1425,-1905,-1512,-943,-544,-414,-424,-361
2018-05-17,13:25:13.517,-162,-126,-77,14,135,123,199,298,260,263,425,932,1533,1519,-761,-3334,-2660,-1385,-530,-60,37,54,90,-22,-68,20,167,298,355,427,464,435,48,-564,243,1022,1058,1061,886,700,603,408,398,428,587,690,650,808,777,562,456,327,246,-95,-548,-89,-264,-614,-520,-313,-561,-637,-453,-53,-74,-76,480,1349,1389,-1324,-3487,-2296,-1166,-1042,-1349,-1088,-450,-118,93,306,461,474,503,580,659,672,674,767,921,996,919,736,479,343,85,-210,-377,-579,-672,-637,-654,-685,-568,-543,-551,-598,-493,-340,-173,-126,-121,-134,-178,-274,-486,-437,-351,-1602,-1514,-508,197,946,1622,1928,341,-2485,-2097,-534
2018-05-17,13:25:14.554,445,983,1287,1459,1335,911,783,930,1005,873,654,841,842,724,764,800,644,813,642,427,488,341,251,-20,-170,-259,-400,-454,-498,-754,-1441,-2130,-1567,-861,-544,-372,-285,-246,-265,-396,-238,9,154,202,250,317,325,442,907,1527,1670,-188,-3084,-2913,-1570,-743,-156,-30,-98,33,29,47,225,238,227,337,416,312,295,296,248,210,389,398,-38,371,723,589,390,240,16,-129,-166,35,482,526,188,226,256,269,193,83,38,103,71,40,-55,-444,-536,-490,-673,-251,-13,1009,1477,860,-2035,-3844,-2593,-1191,-420,129,422,297,188,164,189,-364,-779,-552,-301,-115,6,97,255,319,348,240
2018-05-17,13:25:15.591,173,289,369,338,228,208,155,79,98,-3,-206,-261,-239,-318,-449,-550,-684,-659,-612,-674,-597,-515,-312,-109,23,63,149,315,375,570,981,1163,693,-1508,-3393,-2768,-1076,174,632,832,830,827,889,874,842,958,1017,971,1221,1358,1180,1144,1214,1172,1201,1034,696,509,327,220,135,-87,-143,-160,-121,-67,-212,-349,-248,-201,-172,-9,-22,-190,-288,-405,-718,-1369,-1582,-1073,-696,-436,-322,-100,464,1029,961,-766,-2655,-2161,-878,87,557,741,687,570,647,516,509,377,235,131,-53,-58,65,30,-57,-114,-161,-351,-271,-108,-76,-242,-379,-344,-395,-463,-477,-427,-352,-561,-512,-263,-241,-319,-179,-233
2018-05-17,13:25:16.629,-322,-179,-249,-254,-109,-47,-33,-76,-51,79,276,892,1557,1435,-1489,-3568,-2260,-971,-393,-72,51,139,269,270,215,402,627,506,528,636,458,339,267,263,384,-99,-592,-1323,-1903,-1604,-1165,-913,-766,-615,-460,-229,132,11,-66,-93,66,260,378,443,505,494,369,325,311,324,292,340,378,275,290,703,1327,1542,-191,-2763,-2620,-1059,-22,649,888,885,844,736,697,718,706,625,424,-8,-333,-1540,-1582,-470,184,434,562,601,532,442,351,304,320,366,403,463,519,572,500,529,466,382,374,335,162,110,123,-9,-117,-186,-356,-542,-719,-867,-958,-670,-64,418,-505,-3899,-4865,-3290,-2203,-1700
2018-05-17,13:25:17.666,-1764,-1958,-1874,-1551,-1057,-532,127,726,1264,1620,1866,1850,1920,2041,2061,1987,1881,1809,1578,1414,1322,984,811,823,718,438,209,203,118,26,-82,-175,-255,-388,-447,-317,-176,-170,-113,82,138,298,508,643,696,1056,1723,2128,1548,-1328,-2945,-1542,-392,224,418,333,266,92,-5,-27,29,84,171,275,347,408,488,528,536,563,574,441,469,263,215,190,82,-227,-233,15,-75,-207,-96,-120,-142,-153,-193,-213,-193,-219,-263,-264,-251,-350,-417,-459,-489,-549,-607,-607,-213,453,842,-473,-3043,-2795,-1456,-590,-151,-59,-172,-368,-477,-462,-340,-210,-47,92,232,424,514,540,584,587,580,549,468,395
2018-05-17,13:25:18.703,387,353,322,325,311,290,276,278,234,125,83,133,13,-67,-134,-276,-341,-360,-371,-396,-353,-433,-350,-215,-277,-111,412,1119,1407,-19,-2446,-2564,-1267,-374,118,362,469,507,509,558,614,655,641,608,570,566,575,573,568,549,454,357,318,225,84,73,23,-53,-50,-68,-81,-113,-115,-170,-221,-272,-334,-355,-288,-400,-481,-394,-378,-328,-325,-319,-353,-341,-383,-192,456,987,991,-1214,-3408,-2615,-1293,-523,-79,65,81,107,152,62,-8,-27,-2,50,14,-42,-203,-416,-528,-625,-661,-591,-501,-430,-364,-269,-152,-84,6,126,178,120,91,92,114,124,156,215,229,236,226,181,149,144
2018-05-17,13:25:19.740,173,143,89,47,73,78,638,1237,1253,-575,-2778,-2383,-1171,-326,207,358,457,312,384,418,186,248,333,256,178,151,206,275,281,211,160,72,0,-23,-85,-129,-152,-170,-169,-149,-123,-101,-108,-132,-153,-129,-96,-87,-69,-61,-44,-25,-1,82,166,158,141,133,158,219,690,1311,1534,-176,-2382,-2028,-904,-133,378,538,518,515,500,556,533,465,447,478,465,439,462,490,528,485,445,382,241,178,148,39,-32,-100,-173,-172,-177,-214,-206,-221,-278,-330,-355,-388,-534,-689,-845,-1022,-1153,-1231,-1208,-1086,-988,-779,-503,-96,717,1498,1581,-435,-2670,-1859,-410,324,762,869,813,743,750,771
2018-05-17,13:25:20.777,739,721,761,741,748,855,827,870,857,799,698,606,481,304,202,133,29,-16,-23,-45,-73,-121,-141,-178,-115,-141,-253,-193,-157,-231,-311,-315,-358,-347,-252,-283,-289,-289,-268,-70,545,1059,640,-1972,-3626,-2330,-1000,-193,192,266,292,333,387,417,412,405,440,418,428,436,402,346,311,240,230,124,-40,-164,-223,-288,-344,-303,-276,-276,-259,-237,-249,-240,-246,-293,-255,-232,-310,-334,-383,-448,-353,-313,-360,-247,-262,-284,-242,3,657,1237,826,-1719,-2862,-1658,-615,64,380,361,230,221,250,277,290,328,405,387,363,402,463,502,491,533,533,485,449,430,392,298,174,67,-13,-60
2018-05-17,13:25:21.814,-189,-346,-447,-565,-673,-740,-833,-945,-1018,-1031,-948,-805,-644,-485,-300,-135,-38,136,273,688,1425,1856,742,-2202,-2601,-1145,-137,376,537,471,381,335,326,375,386,403,492,561,573,585,610,645,673,654,609,557,504,409,310,237,134,40,-4,-75,-130,-173,-218,-265,-324,-309,-345,-405,-393,-423,-467,-481,-438,-408,-410,-412,-392,-390,-321,66,849,1294,-139,-3107,-2883,-1323,-318,157,323,422,438,388,268,157,99,26,8,45,148,346,475,566,655,710,722,696,654,612,550,484,372,260,186,135,98,60,46,44,28,32,45,66,71,42,19,15,50,94,87,172,215,236,277,656
2018-05-17,13:25:22.852,1330,1601,101,-2232,-2115,-924,-47,526,727,736,736,758,754,677,663,695,715,686,684,698,692,673,661,656,647,517,420,416,288,173,63,-12,-88,-172,-158,-216,-297,-294,-277,-235,-229,-226,-242,-288,-330,-332,-264,-183,-205,-178,-159,-161,-103,466,1044,950,-1090,-3097,-2329,-1044,-150,280,343,326,295,306,313,297,315,332,346,369,396,413,396,399,389,368,286,215,123,31,-12,-78,-127,-167,-190,-241,-257,-230,-261,-282,-294,-287,-276,-264,-266,-305,-359,-349,-333,-289,-253,-279,-271,-255,-91,515,1063,873,-1418,-3307,-2397,-1043,-181,239,361,364,364,355,359,355,337,331,326,330,342,368
2018-05-17,13:25:23.889,350,353,398,372,285,205,110,6,-80,-168,-203,-243,-356,-419,-445,-463,-459,-466,-471,-422,-363,-407,-403,-409,-435,-414,-349,-303,-308,-296,-263,-241,-90,486,1071,765,-1699,-3143,-2034,-776,-51,213,257,256,255,231,208,185,193,229,233,229,267,297,287,333,395,368,354,289,237,211,163,87,14,-32,-103,-155,-179,-193,-195,-179,-141,-139,-129,-106,-100,-87,-134,-135,-69,-65,-42,-39,-32,-33,104,644,1119,706,-1583,-3127,-2060,-791,-28,333,411,415,404,396,406,400,376,397,395,391,422,407,463,463,472,459,420,310,195,105,23,-68,-142,-187,-228,-270,-345,-382,-355,-353,-332,-314
2018-05-17,13:25:24.926,-306,-305,-302,-299,-332,-333,-242,-232,-205,-196,-201,-146,218,785,993,68,-2292,-3065,-1684,-518,172,412,412,419,405,387,384,403,438,422,422,431,464,501,512,510,487,430,383,284,168,112,-5,-81,-114,-174,-234,-292,-317,-339,-372,-386,-366,-367,-377,-386,-423,-458,-473,-429,-388,-390,-397,-362,-341,-298,38,668,925,-439,-2937,-3122,-1649,-541,36,239,283,320,302,282,272,282,292,298,311,337,348,377,380,351,352,329,229,133,44,-17,-79,-169,-271,-327,-367,-399,-446,-466,-457,-423,-407,-399,-380,-370,-366,-388,-381,-315,-256,-253,-247,-196,-157,-50,404,1025,1098,-856,-2962,-2293,-915,27
2018-05-17,13:25:25.963,373,447,479,503,486,473,499,514,534,560,581,595,601,614,652,656,629,596,558,519,456,400,283,156,57,-10,-39,-59,-76,-84,-84,-82,-55,-44,-21,-35,-47,-46,-39,6,45,50,38,72,112,227,769,1297,997,-1339,-2963,-1850,-519,281,576,629,663,634,568,558,584,562,514,486,502,495,514,572,646,645,564,513,421,343,288,126,34,-91,-172,-220,-265,-284,-326,-335,-300,-303,-273,-252,-281,-276,-289,-287,-224,-213,-194,-179,-172,-172,-108,224,788,1042,-54,-2560,-3036,-1482,-275,336,507,524,543,511,491,532,566,535,563,554,554,572,611,654,619,582,531,371,325,312
2018-05-17,13:25:27.000,202,57,-29,-119,-210,-265,-330,-381,-375,-370,-362,-343,-329,-352,-354,-362,-380,-374,-362,-294,-287,-306,-298,-263,-209,266,884,855,-1104,-3207,-2640,-1196,-182,243,320,345,357,349,330,315,297,310,320,319,301,305,337,350,347,280,208,118,22,-33,-97,-225,-286,-355,-421,-464,-479,-499,-509,-511,-492,-466,-455,-464,-463,-449,-417,-377,-306,-294,-281,-248,-186,-129,106,713,1101,162,-2393,-2873,-1505,-354,308,501,550,577,585,585,578,581,609,650,670,656,660,686,717,749,766,729,678,630,568,515,454,374,268,196,170,139,100,97,107,132,163,165,195,203,191,195,186,269,335,337
2018-05-17,13:25:28.038,362,398,404,483,962,1527,1325,-912,-2640,-1697,-384,457,799,850,850,855,825,816,793,760,766,771,773,737,729,743,793,784,733,680,569,456,338,215,119,-20,-124,-181,-187,-259,-304,-307,-315,-321,-230,-218,-264,-256,-267,-323,-312,-285,-266,-207,-162,-209,-150,266,821,830,-829,-3004,-2713,-1275,-226,299,399,356,378,322,276,313,347,328,341,363,359,410,399,421,461,421,333,263,130,-7,-104,-223,-312,-383,-422,-471,-535,-539,-529,-535,-528,-548,-537,-510,-558,-608,-600,-575,-528,-509,-499,-475,-442,-410,-95,508,750,-377,-2756,-3240,-1756,-546,91,229,260,291,297,281,289,308,298,283
2018-05-17,13:25:29.075,310,319,328,354,363,342,295,244,165,48,-60,-128,-204,-296,-362,-398,-432,-474,-508,-514,-480,-451,-421,-401,-410,-411,-401,-422,-388,-353,-320,-275,-250,-220,-190,13,609,1037,204,-2266,-3050,-1744,-528,167,355,405,409,401,378,373,374,386,368,370,376,375,383,395,407,398,327,242,184,132,78,8,-71,-154,-232,-256,-299,-318,-311,-319,-335,-303,-260,-258,-270,-252,-239,-195,-107,-63,-62,-62,-53,-30,188,727,1117,348,-2086,-2791,-1486,-297,364,508,521,539,559,533,517,500,477,502,529,523,546,575,593,627,659,596,484,400,292,178,72,-49,-175,-216,-280,-356,-398,-379,-380,-364
2018-05-17,13:25:44.533,981,936,941,981,972,1021,1469,1957,1737,-273,-2347,-1760,-369,531,945,989,889,791,707,606,568,543,565,626,687,719,734,737,699,633,533,407,296,78,-144,-234,-278,-453,-562,-562,-589,-585,-568,-545,-617,-535,-476,-513,-642,-752,-948,-1010,-1114,-1311,-1444,-1579,-1928,-2002,-1763,-1286,-661,-352,-2848,-6134,-5372,-3330,-2245,-1743,-1750,-1648,-1532,-1541,-1522,-1437,-1180,-921,-694,-247,150,507,936,1294,1563,1756,1860,1893,1867,1794,1710,1646,1578,1496,1436,1374,1317,1291,1237,1179,1177,1208,1218,1163,1117,1076,1072,1133,1184,1198,1223,1214,1185,1191,1507,2059,2219,421,-2173,-1881,-462,397,733,815,827,772,663,552,498,478
2018-05-17,13:25:45.804,479,434,524,566,572,648,750,788,713,593,432,181,-36,-160,-393,-609,-743,-838,-837,-891,-817,-751,-710,-713,-604,-650,-711,-639,-914,-1259,-1378,-1342,-1508,-1665,-1878,-1984,-1847,-1504,-789,-184,-792,-3928,-5721,-4097,-2366,-1495,-1137,-1145,-1131,-1174,-1207,-1234,-1094,-846,-834,-717,-347,-193,94,401,654,837,1046,1110,1104,1044,1024,1001,927,914,918,860,906,989,997,983,989,1044,1048,1062,1065,1101,1079,1060,1084,1090,1096,1067,1086,1107,1156,1576,2144,2176,508,-1864,-1793,-378,555,1034,1163,1119,1064,1004,923,872,854,860,818,799,805,839,838,816,795,791,709,522,357,224,64,-127,-233,-177,-204,-290,-311,-253
2018-05-17,13:25:46.841,-230,-258,-352,-295,-177,-180,-279,-345,-433,-503,-509,-620,-835,-924,-992,-1111,-1112,-505,51,228,-2424,-5812,-4848,-2793,-1605,-1270,-1296,-1242,-1287,-1359,-1381,-1354,-1257,-1083,-980,-828,-503,-193,45,301,634,856,950,988,969,932,896,812,781,762,713,705,718,707,704,672,666,677,690,678,730,751,705,660,662,676,656,643,686,720,797,1232,1922,2161,408,-2388,-2035,-533,444,937,1035,1024,1028,1048,1010,969,944,976,948,903,870,847,839,898,969,930,894,924,735,536,513,302,158,35,-115,-192,-153,-174,-258,-313,-241,-197,-219,-300,-285,-245,-238,-353,-348,-246,-251,-207,-245,-404,-396,-182,431,918
2018-05-17,13:25:47.879,-532,-3948,-4469,-2550,-1316,-656,-346,-400,-353,-298,-429,-593,-738,-779,-757,-870,-943,-1018,-963,-856,-854,-927,-899,-955,-911,-924,-892,-771,-627,-453,-295,-114,77,227,350,462,562,644,750,801,857,910,956,994,1047,1111,1228,1294,1313,1297,1263,1426,2040,2487,1947,-655,-2190,-1025,248,1041,1355,1366,1297,1225,1147,1025,959,915,826,791,767,716,722,729,702,649,558,434,243,144,34,-115,-174,-255,-338,-369,-385,-453,-471,-479,-573,-703,-691,-535,-535,-642,-713,-761,-625,-554,-622,-559,-443,-487,-510,-455,140,994,1135,-1328,-4414,-3773,-2173,-1343,-864,-694,-740,-1023,-1172,-1241,-1387,-1357,-1433,-1438,-1412,-1511,-1554,-1427
2018-05-17,13:25:48.916,-1418,-1584,-1577,-1358,-1528,-1589,-1550,-1483,-1439,-1290,-1073,-809,-548,-358,-92,166,367,504,633,806,925,978,997,1054,1008,1009,1108,1095,1118,1125,1216,1265,1398,2027,2594,2122,-487,-2234,-1103,245,1097,1476,1498,1471,1411,1291,1216,1056,946,945,893,860,838,789,752,783,749,636,484,312,100,-25,-151,-265,-290,-272,-270,-345,-401,-426,-445,-478,-541,-493,-515,-601,-645,-750,-665,-579,-586,-642,-552,-479,-408,-398,-422,-45,571,977,-357,-3722,-4891,-3156,-1714,-911,-729,-823,-800,-794,-993,-1027,-989,-1038,-1204,-1251,-1328,-1386,-1402,-1465,-1522,-1606,-1682,-1789,-1907,-1920,-1927,-2044,-1904,-1638,-1376,-1068,-599,-175,180,512,806,1046
2018-05-17,13:25:49.953,1228,1317,1485,1596,1622,1650,1667,1689,1776,1768,1823,1876,1858,1887,2247,2853,3075,1475,-1470,-1677,-80,1021,1636,1838,1820,1768,1694,1613,1521,1445,1348,1290,1217,1086,1011,939,841,751,688,575,423,273,106,-56,-205,-373,-493,-550,-555,-605,-633,-607,-622,-650,-625,-672,-752,-743,-778,-819,-810,-754,-694,-656,-660,-519,-377,-391,-236,517,1319,1467,-1223,-4336,-3298,-1418,-321,192,240,112,26,-16,-20,-3,-110,-228,-139,-70,-138,-168,-200,-213,-298,-373,-465,-691,-1002,-1320,-1538,-1755,-2046,-2007,-1820,-1757,-1544,-1291,-989,-785,-547,-287,-13,249,452,605,699,798,880,983,1114,1159,1161,1225,1296,1427,1913,2618,2883,1371
2018-05-17,13:25:50.990,-1864,-1980,-203,936,1604,1724,1678,1634,1579,1508,1433,1334,1215,1196,1080,1022,1086,1077,1060,1049,992,848,697,509,310,159,13,-121,-226,-291,-307,-350,-430,-438,-443,-481,-518,-503,-445,-451,-516,-616,-662,-712,-716,-705,-707,-731,-726,-674,-710,-345,464,1029,-12,-3431,-4018,-2071,-540,140,413,389,405,591,532,309,161,121,243,116,-24,79,78,151,118,-41,-96,-169,-392,-575,-763,-994,-1133,-1169,-1187,-1363,-1349,-1330,-1407,-1357,-1295,-1158,-1021,-808,-595,-408,-234,-41,126,293,468,616,688,785,866,959,1207,1905,2581,2082,-1193,-2757,-1107,402,1263,1553,1575,1590,1556,1507,1461,1395,1327,1277,1235,1169,1061,925
2018-05-17,13:25:52.027,837,736,676,593,483,357,225,116,-28,-173,-273,-370,-435,-454,-488,-526,-522,-520,-505,-446,-417,-376,-292,-261,-246,-271,-129,-63,-11,-121,-229,-190,-97,-39,469,1326,1462,-1271,-3768,-2588,-902,-70,438,645,682,643,563,441,557,674,518,430,345,341,352,342,368,333,277,179,21,-59,-309,-687,-981,-1104,-1271,-1417,-1563,-1707,-1763,-1642,-1790,-1851,-1779,-1622,-1484,-1410,-1230,-1021,-829,-693,-487,-217,-35,106,274,431,491,757,1505,2141,1803,-684,-2695,-1481,144,1166,1653,1766,1764,1706,1656,1611,1581,1575,1576,1551,1514,1521,1514,1457,1376,1269,1166,1072,886,684,511,345,168,67,-18,-89,-158,-227,-278,-321
2018-05-17,13:25:53.064,-363,-317,-327,-273,-229,-183,-152,-144,-129,-142,-153,-179,-227,-339,-344,-346,-420,-83,550,1027,-410,-3562,-3540,-1778,-668,117,429,394,387,412,247,88,34,14,135,-2,-68,-140,-198,-164,-86,-247,-370,-542,-673,-953,-1242,-1246,-1438,-1516,-1580,-1673,-1657,-1670,-1790,-1634,-1446,-1404,-1270,-1077,-947,-734,-495,-369,-249,-20,191,364,485,584,686,787,904,1431,2181,2569,774,-2394,-2110,-452,647,1226,1407,1440,1459,1461,1465,1484,1472,1454,1452,1418,1345,1286,1232,1227,1202,1149,1057,936,806,638,469,293,112,-77,-164,-206,-276,-319,-378,-398,-437,-445,-419,-391,-295,-257,-213,-147,-93,-51,-54,-1,-52,-250,-273,-281
2018-05-17,13:25:54.102,-252,195,928,1126,-1448,-3949,-2992,-1382,-461,123,542,538,476,515,551,423,387,383,545,587,471,518,416,412,450,230,282,16,-259,-527,-754,-1058,-1265,-1337,-1421,-1538,-1606,-1619,-1658,-1723,-1827,-1778,-1823,-1839,-1799,-1683,-1673,-1625,-1479,-1326,-1217,-906,-542,-413,-178,2,283,1123,1911,1917,-664,-3171,-2113,-273,776,1329,1558,1607,1609,1603,1600,1597,1632,1674,1676,1632,1627,1602,1583,1576,1530,1429,1350,1267,1121,957,791,657,571,499,414,314,207,104,22,-59,-115,-143,-199,-234,-247,-286,-354,-380,-440,-398,-307,-246,-213,-171,-66,34,346,999,1646,1072,-2271,-3773,-2234,-901,-260,72,215,144,208,331,358,524
2018-05-17,13:25:55.139,601,640,641,605,727,739,610,539,396,336,296,191,111,-159,-452,-679,-887,-821,-962,-1220,-1157,-1044,-1215,-1377,-1397,-1336,-1344,-1334,-1301,-1244,-1299,-1364,-1228,-1129,-1015,-886,-773,-671,-476,-319,-58,729,1596,1660,-1049,-3664,-2454,-667,415,1012,1202,1287,1351,1357,1432,1502,1429,1380,1366,1349,1369,1385,1380,1409,1415,1302,1105,926,776,592,403,286,144,79,1,-34,-100,-169,-191,-234,-258,-267,-293,-280,-251,-316,-320,-348,-404,-372,-269,-184,-147,-55,84,58,132,580,1362,1699,-150,-3363,-3130,-1352,-275,291,437,379,409,457,478,538,546,415,411,362,557,541,390,496,583,661,510,317,119,67,-202,-373
2018-05-17,13:25:56.176,-449,-590,-769,-826,-943,-796,-759,-966,-1112,-1193,-1209,-1062,-1206,-1278,-1245,-1331,-1465,-1526,-1589,-1571,-1560,-1436,-1261,-1241,-1071,-658,265,1217,1259,-1776,-4210,-2706,-770,323,895,1127,1210,1256,1290,1331,1378,1413,1428,1415,1460,1507,1505,1462,1426,1342,1262,1201,1123,996,846,711,564,460,378,324,290,210,131,46,-15,-83,-174,-239,-277,-320,-341,-376,-435,-473,-520,-496,-486,-488,-406,-345,-391,-393,-308,287,1036,1415,-516,-3540,-3101,-1308,-266,168,255,249,282,298,225,245,525,530,632,711,677,741,830,831,752,831,846,713,572,372,90,-35,-260,-511,-584,-532,-766,-829,-650,-612,-680,-554,-639,-671,-651,-646
2018-05-17,13:25:57.213,-548,-598,-691,-695,-641,-780,-842,-665,-608,-583,-536,-404,-301,-99,626,1491,1786,-374,-3601,-3124,-1083,113,758,1081,1155,1167,1210,1261,1327,1352,1366,1412,1427,1427,1455,1522,1561,1579,1542,1458,1379,1236,1074,952,774,594,467,368,272,177,94,-19,-78,-105,-102,-134,-211,-207,-230,-228,-253,-244,-228,-231,-232,-215,-199,-147,-53,-53,-47,78,429,1103,1538,778,-2354,-3648,-2014,-622,30,372,526,540,525,597,635,574,565,509,470,548,661,610,522,503,436,434,279,-28,-445,-691,-958,-1011,-1131,-1262,-1373,-1638,-1573,-1523,-1518,-1572,-1595,-1536,-1501,-1566,-1528,-1432,-1369,-1273,-1150,-1040,-915,-738,-495,-310,-156,28
2018-05-17,13:25:58.250,176,279,555,1353,2141,2191,-597,-3216,-2159,-403,625,1162,1338,1370,1370,1368,1340,1377,1395,1377,1325,1250,1207,1158,1129,1086,1021,934,760,569,367,187,12,-142,-290,-396,-440,-471,-493,-506,-486,-479,-495,-491,-489,-481,-470,-456,-445,-424,-397,-374,-350,-302,-270,-238,-219,-213,-211,-261,-182,308,1014,1347,-752,-3687,-3140,-1445,-374,177,333,481,604,526,649,826,802,667,666,688,660,786,731,830,871,750,704,515,433,337,4,-326,-560,-727,-917,-848,-897,-1139,-1326,-1363,-1232,-1317,-1367,-1302,-1393,-1301,-1175,-1052,-936,-846,-696,-569,-468,-290,-68,15,138,277,334,389,879,1716,2169,1006,-1971,-2910,-1191,152
2018-05-17,13:25:59.288,966,1336,1402,1373,1398,1458,1406,1321,1263,1235,1203,1186,1179,1140,1100,1082,1030,907,754,586,411,236,82,-55,-153,-233,-306,-348,-392,-471,-494,-483,-435,-464,-474,-454,-432,-399,-362,-348,-306,-194,-276,-319,-302,-298,-295,-278,-245,-265,-95,531,1037,972,-1743,-3976,-2567,-836,234,733,778,808,844,836,784,660,593,550,397,480,450,340,243,417,301,17,-113,-243,-449,-823,-1012,-1254,-1467,-1594,-1598,-1589,-1690,-1750,-1659,-1733,-1702,-1703,-1628,-1475,-1348,-1206,-1010,-813,-622,-501,-374,-194,-21,125,218,305,393,476,603,1102,1947,2414,931,-2279,-2602,-759,523,1191,1412,1436,1427,1421,1423,1386,1330,1277,1247,1240
2018-05-17,13:26:00.325,1182,1173,1208,1194,1148,1094,986,832,657,473,290,96,-47,-134,-265,-340,-357,-381,-404,-413,-404,-398,-353,-328,-274,-184,-210,-254,-260,-258,-246,-234,-276,-291,-330,-331,-366,-376,-471,-300,381,1077,1205,-714,-3407,-3034,-1412,-227,441,580,498,622,574,602,437,293,327,378,354,316,314,290,132,179,40,-187,-268,-523,-768,-1080,-1367,-1567,-1594,-1639,-1625,-1672,-1845,-1860,-1879,-1718,-1717,-1668,-1574,-1482,-1324,-1107,-891,-686,-513,-268,-83,79,261,410,532,705,815,860,1012,1590,2397,2812,1134,-2458,-2357,-352,913,1493,1629,1612,1581,1588,1598,1588,1554,1490,1480,1498,1515,1461,1360,1278,1200,1055,909,736,553,395
2018-05-17,13:26:01.362,222,60,-34,-168,-285,-347,-384,-399,-409,-433,-374,-301,-351,-350,-360,-387,-326,-190,-117,-49,-7,-69,-94,-124,-117,-123,-178,-165,-178,-117,511,1331,1647,-345,-3246,-2778,-894,120,563,760,798,684,679,643,405,179,196,-21,-27,24,40,-53,-27,75,110,-10,-156,-335,-505,-809,-1052,-1029,-1171,-1402,-1521,-1547,-1488,-1430,-1437,-1255,-1174,-1056,-821,-702,-571,-423,-307,-145,-53,-42,-23,44,150,267,332,430,450,461,507,820,1500,1971,1451,-1295,-3116,-1738,-256,626,1042,1146,1182,1198,1204,1193,1214,1183,1134,1103,1088,1029,937,878,863,808,754,599,420,269,100,-74,-234,-374,-431,-423,-441,-472,-466,-402
2018-05-17,13:26:02.399,-457,-515,-529,-567,-513,-410,-375,-298,-243,-208,-155,-202,-203,-136,-143,-159,-34,119,152,232,785,1658,1996,504,-3208,-3601,-1473,-110,494,777,754,664,507,418,274,51,75,107,68,-103,-74,169,187,-29,-148,-170,-211,-344,-578,-893,-1197,-1394,-1554,-1747,-1731,-1545,-1545,-1408,-1316,-1120,-1001,-845,-640,-424,-242,-100,59,204,348,382,440,478,560,679,735,755,806,838,874,1156,1878,2482,1986,-1262,-2993,-1343,211,1109,1538,1623,1629,1581,1525,1498,1457,1383,1306,1203,1097,1014,952,884,833,756,670,552,391,209,0,-233,-307,-398,-488,-564,-583,-574,-570,-577,-579,-581,-584,-583,-521,-458,-419,-390,-330,-284
2018-05-17,13:26:03.436,-314,-338,-256,-266,-225,-78,-73,21,249,459,725,1331,1898,1296,-2313,-4105,-2204,-394,427,618,660,606,463,431,573,456,294,280,332,145,2,-23,47,102,-30,31,-73,-289,-617,-914,-1164,-1413,-1739,-1856,-1749,-1859,-1855,-1943,-1954,-1848,-1837,-1895,-1804,-1542,-1366,-1210,-1091,-828,-602,-433,-265,-192,-45,147,291,412,520,595,666,923,1584,2304,2255,-623,-3086,-1584,212,1193,1634,1710,1751,1785,1750,1711,1688,1698,1668,1624,1579,1523,1439,1350,1253,1153,1014,870,730,547,335,154,-10,-128,-219,-304,-361,-381,-394,-422,-412,-433,-464,-399,-363,-372,-361,-244,-131,-42,22,56,7,-20,52,18,60,29,93,137
2018-05-17,13:26:04.473,226,828,1470,1755,-444,-3769,-3286,-1412,-375,297,372,360,304,216,5,-278,-470,-220,-300,-530,-668,-589,-579,-446,-436,-582,-688,-1037,-1139,-1144,-1496,-1734,-1914,-2009,-2082,-2011,-1967,-1832,-1693,-1528,-1327,-1016,-759,-573,-325,-72,128,311,484,595,712,801,897,1058,1140,1165,1224,1250,1278,1414,1949,2616,2703,331,-2228,-1434,211,1173,1640,1725,1703,1665,1607,1507,1381,1310,1227,1146,1008,890,802,753,717,678,631,557,444,318,176,104,1,-114,-212,-191,-215,-241,-205,-192,-200,-221,-186,-179,-254,-346,-330,-309,-344,-377,-352,-368,-386,-331,-269,-147,-47,109,144,223,440,918,1352,838,-1624,-3438,-2388,-997,-274,84
2018-05-17,13:26:05.511,262,228,49,-188,-288,-320,-421,-509,-517,-706,-769,-651,-608,-660,-638,-732,-824,-976,-1142,-1295,-1422,-1534,-1577,-1567,-1432,-1291,-1121,-900,-655,-415,-213,9,178,307,407,533,625,719,803,838,789,865,912,946,960,931,951,975,1121,1712,2224,2118,90,-2089,-1542,-224,626,1100,1234,1212,1155,1038,936,851,758,700,627,562,489,454,432,433,381,304,188,93,8,-143,-248,-307,-385,-481,-486,-394,-317,-242,-204,-106,-86,-129,-218,-366,-382,-441,-494,-530,-589,-589,-565,-424,-445,-488,-301,-149,-293,-300,92,751,1352,1129,-1294,-4174,-3420,-1729,-577,-57,-78,-236,-151,-114,-219,-216,-349,-278,-276,-90,-172,-170
2018-05-17,13:26:06.548,-165,-188,-133,-242,-413,-544,-781,-939,-1153,-1287,-1274,-1205,-1061,-908,-759,-575,-384,-166,-19,104,212,310,436,508,551,600,664,700,677,726,796,823,843,881,926,968,1260,2018,2641,2167,-922,-2884,-1428,122,995,1307,1298,1218,1108,1020,955,906,834,786,756,752,751,751,773,800,770,676,550,416,256,110,-13,-120,-208,-283,-350,-372,-345,-272,-218,-213,-149,-172,-198,-294,-276,-363,-406,-274,-349,-425,-448,-232,-9,-38,-181,-58,-4,-33,147,844,1498,1161,-2117,-5134,-3838,-2025,-832,-273,-227,-293,-347,-370,-484,-517,-428,-503,-552,-399,-421,-392,-288,-243,-295,-309,-348,-409,-410,-320,-357,-307,-189,-105
2018-05-17,13:26:07.585,-4,78,168,276,362,451,495,582,641,657,671,688,709,719,717,701,709,690,710,770,788,768,759,760,753,767,1131,1822,2238,1013,-2190,-2699,-1124,-51,495,685,664,612,593,588,556,531,493,489,498,477,462,480,511,513,477,387,327,306,270,228,169,90,-73,-155,-256,-427,-446,-418,-427,-470,-512,-510,-468,-357,-317,-395,-397,-298,-234,-280,-385,-329,-377,-540,-493,-527,-684,-863,-1025,-936,-1002,-951,-112,536,-68,-3112,-5281,-3851,-2116,-1105,-595,-631,-587,-518,-741,-745,-681,-727,-706,-541,-348,-258,-1,245,468,578,586,638,607,501,479,456,473,436,442,433,497,473,559,635,710,793
2018-05-17,13:26:08.622,767,769,770,711,648,617,650,681,695,655,618,567,544,552,525,474,405,356,335,633,1282,1668,852,-1965,-3218,-1678,-452,260,642,749,773,780,792,813,753,673,689,721,728,814,876,858,820,761,609,431,355,215,-23,-183,-303,-287,-251,-245,-149,-76,-21,-43,-100,-95,-64,-123,-20,-63,-173,-6,2,-157,-170,-239,-330,-393,-396,-367,-411,-508,-686,-670,-569,-439,167,925,1144,-1452,-4838,-4177,-2208,-995,-462,-280,-166,-144,-209,-198,-112,-55,21,152,267,417,529,662,784,838,822,771,683,589,493,398,258,123,28,3,17,50,106,145,167,174,173,230,255,235,225,219,193,153
2018-05-17,13:26:09.659,83,20,-71,-185,-277,-286,-248,-241,-262,-285,-293,-285,-239,177,980,1340,-283,-3620,-3679,-1791,-547,91,286,271,279,356,324,268,262,339,276,259,347,379,370,382,364,324,242,134,180,206,137,85,-61,-23,-105,-200,-243,-228,-285,-361,-392,-395,-485,-599,-702,-758,-835,-835,-718,-800,-698,-751,-735,-677,-701,-902,-920,-841,-813,-850,-901,-862,-860,-730,78,997,1096,-1453,-4625,-3826,-1616,-215,541,907,1000,1090,1180,1168,1228,1328,1356,1405,1409,1436,1501,1562,1562,1598,1588,1516,1371,1316,1181,1039,961,799,609,581,520,416,398,329,253,209,116,31,-11,-67,-95,-129,-177,-179,-215,-140,-139,-146
2018-05-17,13:26:10.697,-198,-184,-178,-137,-110,-174,-262,-285,-289,78,849,1339,811,-2093,-4135,-2845,-1363,-605,-214,-156,-75,59,86,104,239,374,323,480,493,477,631,602,622,655,442,347,151,71,-178,-521,-924,-1134,-1138,-1227,-1056,-1073,-1191,-1210,-1120,-1191,-1304,-1411,-1323,-1234,-1279,-1274,-1218,-1237,-1235,-1104,-1017,-1065,-1023,-878,-639,-422,-294,-100,65,246,507,1339,2259,2499,-188,-3632,-2614,-588,572,1179,1348,1368,1370,1352,1310,1245,1209,1191,1222,1273,1296,1292,1254,1223,1177,1114,1051,940,759,552,342,160,18,-64,-126,-154,-178,-225,-292,-336,-358,-361,-370,-363,-325,-252,-197,-192,-150,-99,-65,-115,-107,-73,-94,-159,-105,-93
2018-05-17,13:26:11.734,-106,-242,-288,-235,16,622,1238,1026,-2049,-4286,-2920,-1235,-420,165,504,529,744,847,802,830,825,732,710,765,751,596,504,478,467,642,442,200,141,-70,-376,-682,-820,-975,-1129,-1182,-1219,-1297,-1303,-1327,-1254,-1212,-1164,-1087,-937,-854,-669,-527,-410,-175,4,143,223,313,427,530,607,744,810,885,926,953,1048,1497,2202,2555,1454,-1526,-2533,-885,412,1167,1481,1498,1428,1351,1287,1208,1116,1030,949,862,750,660,617,563,509,461,404,294,215,123,-2,-111,-232,-316,-307,-345,-366,-364,-376,-348,-311,-311,-264,-228,-221,-264,-295,-280,-312,-448,-589,-600,-600,-688,-707,-504,-334,-263,-222,-98,109,223
2018-05-17,13:26:12.771,511,1350,1873,1097,-2263,-4041,-2513,-981,6,427,281,55,-68,28,-82,-217,-127,-253,-358,-366,-350,-450,-365,-375,-399,-504,-662,-822,-849,-876,-1057,-1088,-978,-942,-794,-639,-470,-321,-129,-28,73,176,258,350,439,487,563,622,665,702,699,678,650,620,647,731,727,757,766,778,801,928,1508,2276,2393,220,-2545,-2116,-562,428,920,1056,1058,1064,998,912,812,771,725,643,616,557,531,468,430,381,338,241,122,36,-29,-197,-361,-445,-501,-567,-653,-654,-632,-651,-686,-700,-643,-650,-672,-670,-628,-602,-655,-593,-508,-547,-536,-542,-534,-569,-540,-422,-394,-346,-189,-119,-118,88,737,1361,1507,-279
2018-05-17,13:26:13.808,-3175,-2927,-1236,-92,552,726,710,653,681,599,584,595,597,541,536,626,724,738,762,728,713,657,573,423,235,94,23,123,-77,-42,-148,-117,-35,9,-52,-98,43,9,-97,-50,-65,-22,-72,-128,-47,76,-61,-78,-8,2,22,-8,33,11,15,65,228,787,1261,1020,-1265,-3265,-2435,-1099,-302,210,391,412,385,240,285,335,224,144,143,209,156,267,282,281,277,301,184,26,-70,-143,-240,-436,-490,-449,-432,-425,-433,-342,-318,-267,-221,-171,-196,-117,-36,-72,11,5,78,42,22,46,-37,-41,28,32,-19,7,17,52,92,295,1034,1516,1080,-1283,-3357,-2145,-721,162,690,829
2018-05-17,13:26:14.845,706,684,752,656,426,363,416,534,511,378,392,367,385,450,400,237,117,41,-294,-561,-576,-684,-1075,-1274,-1334,-1116,-1204,-1414,-1555,-1671,-1709,-1689,-1682,-1750,-1760,-1703,-1667,-1551,-1496,-1487,-1395,-1355,-1215,-1049,-784,-615,-361,-165,0,293,739,1694,2396,2187,-722,-3071,-1680,40,1109,1627,1777,1786,1732,1741,1793,1775,1711,1650,1605,1521,1492,1525,1561,1550,1496,1424,1242,1026,810,613,416,235,164,82,26,-10,-59,-86,-128,-217,-283,-340,-388,-434,-472,-494,-443,-402,-305,-213,-205,-176,-200,-259,-223,-116,-96,-70,127,134,180,324,855,1579,1700,-438,-3542,-3064,-1186,-209,401,755,725,673,654,477,668,570
2018-05-17,13:26:15.882,339,447,641,482,340,432,380,366,427,322,47,-83,-222,-480,-621,-798,-990,-930,-951,-1081,-992,-984,-962,-990,-861,-805,-797,-786,-717,-712,-691,-583,-542,-525,-477,-450,-446,-449,-338,-212,-165,-114,-75,-19,6,176,870,1602,1725,-609,-3722,-3052,-1158,-43,505,666,688,689,640,610,590,555,561,572,581,624,653,679,697,650,554,433,303,178,72,-34,-124,-193,-249,-253,-244,-266,-236,-190,-222,-202,-128,-127,-48,-26,0,26,74,180,240,245,254,259,283,383,465,437,388,390,419,335,388,646,1321,1793,1012,-2113,-3416,-1890,-492,367,871,977,819,743,704,730,752,632,599,609,619,497
2018-05-17,13:26:16.920,435,553,430,465,266,-9,-173,-219,-377,-524,-789,-847,-908,-1089,-976,-1007,-1034,-1035,-956,-956,-1000,-927,-968,-1020,-813,-791,-761,-602,-534,-457,-348,-289,-233,-240,-185,-26,70,90,134,174,176,314,906,1659,1979,654,-2575,-3254,-1438,-195,569,910,976,977,903,882,924,869,824,758,750,731,692,694,713,674,618,503,360,234,109,-11,-161,-300,-388,-447,-462,-451,-419,-373,-307,-244,-215,-169,-174,-217,-219,-185,-81,74,156,164,197,229,153,57,28,24,46,204,125,124,199,352,980,1612,1273,-1713,-4083,-2769,-1032,-70,278,431,548,424,278,292,257,200,128,115,149,126,162,344,253,225
2018-05-17,13:26:17.957,226,303,105,-70,-242,-423,-535,-590,-664,-799,-826,-834,-903,-860,-852,-779,-660,-707,-738,-652,-615,-590,-556,-511,-470,-414,-385,-376,-358,-367,-361,-284,-194,-133,-82,1,62,132,467,1298,1920,1469,-1641,-4034,-2486,-619,415,803,896,945,960,1031,1052,1012,983,942,916,889,855,813,756,730,682,572,437,301,174,40,-118,-262,-370,-461,-504,-513,-495,-477,-414,-329,-312,-288,-262,-239,-207,-168,-128,-77,-54,13,113,196,262,276,288,283,251,215,197,162,138,154,153,216,741,1532,1932,474,-3421,-3887,-1860,-322,531,709,702,746,788,697,657,713,676,635,647,665,648,633,661,672,620,517
2018-05-17,13:26:18.994,418,255,151,-21,-251,-430,-473,-438,-493,-544,-560,-551,-565,-554,-519,-473,-471,-475,-482,-445,-427,-402,-392,-354,-315,-291,-271,-262,-252,-260,-247,-182,-147,-135,-96,-81,-84,-14,434,1146,1595,0,-3235,-3362,-1584,-438,178,383,418,447,502,485,415,405,394,422,402,405,412,450,465,434,385,328,244,180,80,-15,-117,-304,-386,-398,-435,-434,-468,-514,-434,-354,-359,-402,-363,-369,-363,-328,-264,-169,-223,-286,-250,-193,-132,-158,-184,-223,-263,-267,-231,-227,-216,-225,-227,-175,71,767,1123,355,-2076,-3384,-2207,-1064,-299,205,371,388,395,360,318,302,275,258,249,259,276,338,393,411,478,492
2018-05-17,13:26:20.031,478,421,319,223,176,138,109,86,65,51,66,74,73,93,87,112,189,162,183,216,233,231,302,324,327,324,325,391,391,403,394,402,438,443,356,320,490,732,1356,1963,1361,-1544,-3264,-1990,-664,72,548,790,737,529,419,648,571,319,171,225,160,63,20,-50,2,37,-156,-310,-407,-629,-684,-998,-1231,-1426,-1515,-1621,-1653,-1565,-1590,-1510,-1344,-1288,-1213,-1165,-1060,-870,-831,-615,-407,-244,-137,72,298,375,417,420,494,619,675,698,709,693,742,822,1341,2165,2589,790,-2858,-2905,-1007,247,928,1161,1174,1140,1109,1136,1164,1139,1114,1111,1076,995,943,873,773,803,756,631,504,350
2018-05-17,13:26:21.068,197,47,-84,-199,-286,-308,-329,-332,-349,-357,-289,-251,-224,-199,-164,-129,-116,-129,-73,-48,7,48,-3,-13,21,14,-58,-44,-90,-68,107,158,202,374,698,1444,2100,1483,-1711,-3479,-2126,-780,158,777,828,732,682,685,638,576,570,495,482,476,455,434,378,392,364,238,36,-50,-118,-234,-355,-454,-564,-691,-744,-727,-693,-663,-619,-591,-517,-467,-410,-383,-327,-267,-243,-226,-182,-136,-82,-86,-66,-40,-65,-41,-12,82,147,125,148,164,280,901,1506,1415,-848,-3220,-2536,-1123,-215,447,673,730,790,758,711,667,651,641,581,582,598,631,624,675,707,670,567,432,265,28,-192,-354
2018-05-17,13:26:22.106,-492,-623,-725,-736,-672,-610,-534,-533,-523,-459,-432,-457,-410,-406,-390,-307,-301,-320,-251,-257,-256,-257,-234,-148,-120,-102,-92,-97,-79,-37,411,1071,1325,120,-2532,-3247,-1814,-677,76,420,476,490,498,478,470,468,484,449,444,452,474,532,566,557,530,481,357,209,85,-17,-158,-295,-354,-383,-405,-419,-384,-382,-348,-302,-304,-282,-285,-308,-295,-295,-303,-295,-275,-262,-272,-304,-309,-281,-268,-233,-211,-223,-234,-239,-213,-40,564,1256,1405,-482,-3566,-3386,-1536,-294,332,539,611,620,517,431,427,428,423,398,389,390,408,423,426,405,374,253,116,47,-39,-151,-207,-264,-331,-389,-382,-361
2018-05-17,13:26:23.143,-246,-239,-217,-182,-157,-154,-125,-122,-142,-162,-139,-105,-101,-109,-105,-134,-216,-207,-152,-93,-94,-110,-76,-64,-49,-38,176,885,1541,1249,-1739,-3944,-2597,-982,-12,403,512,519,525,512,511,482,445,449,494,519,546,556,566,536,506,460,422,349,259,110,-29,-142,-245,-325,-404,-537,-569,-561,-471,-409,-401,-443,-393,-342,-270,-153,-128,-146,-118,-69,-36,0,37,33,38,41,80,77,79,81,82,112,129,127,271,822,1453,1469,-572,-3150,-2650,-1150,-157,408,561,597,593,611,611,595,551,560,581,542,524,602,658,667,671,679,574,483,386,256,114,47,-41,-166,-256,-382,-390,-366
