2018-05-16,10:54:24.758,-118,-80,10,36,28,21,19,15,-1,39,225,-131,-1746,-2269,461,1454,962,587,289,-19,-89,-93,-133,-162,-177,-204,-213,-242,-260,-272,-292,-309,-325,-348,-365,-375,-364,-344,-301,-268,-234,-155,-30,84,170,244,297,317,306,279,263,240,204,180,163,138,125,106,93,77,67,48,46,48,31,26,23,1,-14,-12,-111,-171,-137,-135,-56,33,36,31,17,17,13,21,167,292,-723,-2881,-1887,979,1312,868,563,191,66,56,14,-17,-46,-76,-102,-117,-135,-164,-184,-205,-228,-244,-258,-280,-276,-256,-221,-186,-151,-100,-29,72,142,189,242,265,270,253,242,222,190,172,151,134
2018-05-16,10:54:25.395,117,104,84,66,70,60,54,49,41,30,30,18,14,3,-7,-61,-160,-149,-127,-85,46,71,51,49,54,45,36,99,402,61,-1998,-3315,-260,1323,1097,771,449,179,135,110,76,36,7,-15,-37,-69,-107,-140,-156,-176,-203,-229,-242,-236,-220,-199,-160,-123,-92,-25,64,149,208,270,297,304,298,270,237,206,180,146,122,98,79,58,36,1,-24,-38,-60,-80,-95,-102,-125,-162,-200,-231,-249,-358,-452,-437,-430,-355,-268,-269,-289,-314,-345,-373,-370,-278,-50,-745,-2926,-2788,433,988,510,202,-144,-380,-410,-427,-457,-471,-468,-483,-501,-508,-510,-525,-520,-506,-518,-519,-496,-497
2018-05-16,10:54:26.432,-459,-402,-340,-267,-183,-55,104,263,385,480,558,607,627,638,641,650,652,661,661,661,665,673,685,694,709,724,727,730,752,764,767,783,798,793,785,704,660,684,714,807,900,902,895,871,859,857,860,936,1052,345,-1538,-827,2058,2093,1581,1290,959,700,661,632,590,543,517,485,459,429,388,353,307,262,225,192,152,120,103,106,126,140,182,254,357,452,533,573,580,587,552,510,469,415,362,316,270,231,189,151,117,84,59,24,3,-27,-54,-79,-99,-122,-155,-172,-256,-372,-373,-370,-324,-203,-192,-210,-239,-248,-267,-285,-224,1,-383,-2287,-3310,-174,1121,700
2018-05-16,10:54:27.470,344,-39,-286,-315,-334,-361,-397,-428,-451,-468,-487,-513,-534,-560,-569,-581,-605,-615,-617,-621,-593,-549,-505,-450,-374,-278,-196,-136,-90,-49,-32,-34,-58,-70,-75,-97,-118,-137,-157,-162,-169,-192,-200,-207,-203,-209,-211,-216,-227,-230,-235,-252,-255,-303,-405,-394,-371,-330,-200,-160,-167,-172,-172,-172,-158,-106,180,-5,-1859,-3583,-825,1138,959,615,286,-14,-65,-73,-104,-140,-156,-183,-216,-242,-272,-300,-318,-344,-353,-366,-390,-402,-389,-361,-334,-291,-273,-217,-133,-52,21,74,106,124,120,101,67,44,32,0,-18,-27,-38,-50,-58,-76,-81,-98,-108,-113,-109,-110,-117,-133,-137,-145,-259,-302
2018-05-16,10:54:28.507,-272,-279,-166,-77,-68,-68,-77,-94,-110,-98,56,235,-620,-2674,-1980,967,1253,749,435,85,-145,-187,-199,-227,-256,-279,-298,-322,-332,-334,-364,-380,-399,-418,-435,-454,-453,-439,-410,-365,-330,-272,-158,-32,98,213,286,328,354,349,329,315,309,290,258,242,221,199,181,185,172,148,138,143,132,111,102,95,94,82,-7,-49,-20,-9,98,182,187,168,164,175,170,186,285,391,-422,-2204,-1205,1421,1459,955,663,323,92,64,55,23,-1,-29,-53,-72,-94,-117,-141,-161,-171,-185,-215,-233,-243,-238,-220,-203,-153,-99,-25,96,209,292,363,411,408,384,362,327,304,288,267,240
2018-05-16,10:54:29.544,225,216,189,161,151,134,119,118,93,73,57,53,25,-97,-124,-90,-87,16,97,87,80,85,69,35,52,237,384,-739,-2936,-1464,1233,1280,802,479,106,-4,-20,-55,-94,-122,-142,-162,-173,-206,-225,-237,-252,-272,-297,-326,-326,-315,-299,-263,-235,-197,-135,-51,47,136,202,240,258,241,227,223,209,192,167,151,132,113,111,101,90,74,56,47,48,36,16,7,6,-45,-161,-156,-137,-126,11,71,67,53,48,47,46,88,385,274,-1508,-3398,-664,1342,1137,778,423,142,122,93,42,1,-20,-30,-66,-96,-118,-137,-157,-183,-203,-212,-229,-251,-251,-229,-188,-145,-117,-67
2018-05-16,10:54:30.581,29,110,161,199,232,244,235,216,189,165,146,131,104,73,56,37,22,8,-12,-19,-23,-29,-41,-50,-33,-75,-210,-205,-163,-154,-37,41,39,24,16,17,14,39,343,378,-1206,-3234,-1117,1182,1127,776,498,152,75,65,18,-28,-60,-85,-86,-82,-103,-135,-164,-184,-199,-227,-236,-247,-242,-220,-184,-148,-127,-89,-4,79,161,241,266,268,268,250,218,208,193,185,171,165,144,145,137,119,123,118,124,119,101,74,76,-4,-106,-82,-78,-60,57,118,133,119,121,109,104,192,458,84,-1632,-2109,682,1475,1002,730,486,176,41,25,0,-16,-40,-37,-49,-55,-108,-216
2018-05-16,10:54:31.618,-169,-181,-190,-175,-131,-246,-254,-178,-253,-298,-163,-87,8,131,254,316,352,403,350,304,279,259,216,180,222,190,144,167,126,123,91,47,40,66,30,8,-67,-125,-100,-102,-31,87,106,93,82,60,46,71,215,490,-107,-2383,-2316,918,1485,1025,576,164,105,47,-184,-213,-163,-235,-304,-311,-304,-306,-431,-516,-505,-502,-526,-572,-555,-517,-474,-442,-414,-302,-188,-63,48,121,191,212,213,206,200,202,193,182,177,188,168,185,228,200,209,164,137,158,157,140,92,-11,-43,-59,-65,52,122,73,69,9,62,1,-45,222,390,-1164,-3373,-1269,1095,965,556,338,0,-93
2018-05-16,10:54:32.656,-92,-99,-148,-181,-220,-237,-245,-248,-287,-323,-324,-350,-355,-357,-354,-349,-304,-195,-130,-74,28,164,290,378,427,449,460,457,407,393,352,341,353,292,213,224,367,124,-48,34,31,58,87,18,-141,-284,-185,-161,-347,-306,-155,-106,-147,-151,-194,-183,-88,118,136,-1058,-3181,-1346,990,876,539,341,17,-126,-162,-152,-185,-227,-240,-257,-256,-281,-344,-366,-393,-358,-373,-410,-407,-358,-331,-256,-246,-135,-83,20,169,284,359,423,430,378,322,377,412,341,210,225,207,118,98,94,85,78,53,33,20,24,-9,-96,-131,-108,-110,-28,75,86,70,70,91,96,143,334,421,-688
2018-05-16,10:54:33.693,-2596,-422,1716,1246,846,588,251,68,49,-2,-39,-64,-80,-116,-144,-184,-221,-262,-307,-306,-364,-417,-435,-424,-409,-397,-288,-204,-174,-36,110,207,261,246,271,305,268,238,239,226,119,25,125,-29,-42,-56,-98,-50,-73,-129,-137,-143,-160,-254,-316,-227,-164,-164,9,-52,-51,-21,-51,-61,-79,209,142,-1334,-2928,-423,1430,1089,629,390,93,-77,-147,-142,-171,-178,-175,-175,-192,-212,-247,-266,-298,-328,-352,-373,-400,-413,-366,-307,-221,-85,44,193,376,467,506,553,595,605,613,594,553,540,572,525,475,491,511,443,306,238,245,232,163,108,74,-68,-123,-70,-75,-23,94,89
2018-05-16,10:54:34.730,78,76,63,65,67,232,401,-817,-3110,-1536,1114,1259,863,572,204,139,151,98,107,102,40,-42,-67,-88,-100,-142,-167,-191,-207,-262,-322,-315,-214,-138,-141,-106,1,60,177,273,316,332,322,315,293,282,250,238,216,186,175,164,126,109,108,99,88,85,53,10,-4,-2,-54,-178,-191,-170,-160,-83,-28,-39,-66,-105,-113,-131,-113,163,115,-1722,-3767,-1002,981,808,486,208,-85,-149,-180,-228,-272,-302,-325,-346,-378,-402,-421,-442,-462,-477,-497,-502,-495,-491,-453,-422,-376,-310,-226,-102,18,87,148,192,206,219,217,208,202,202,196,194,188,165,168,184,180,189,202,200
2018-05-16,10:54:35.767,212,225,239,232,242,231,128,114,179,210,298,379,408,400,388,375,391,417,602,663,-539,-2508,-725,1854,1607,1174,956,627,399,341,298,238,192,168,144,120,84,53,28,-1,-38,-67,-103,-138,-159,-157,-111,-61,-12,75,191,319,412,479,515,518,510,484,452,412,372,323,289,252,211,188,187,175,148,130,124,104,82,80,63,31,23,-9,-133,-187,-141,-153,-76,0,8,3,-4,-27,-32,-35,67,123,-869,-2786,-1555,1240,1267,740,426,53,-132,-148,-168,-205,-235,-250,-260,-286,-317,-354,-389,-414,-444,-481,-507,-529,-542,-533,-505,-448,-383,-297,-176,-21,90,170,227,246
2018-05-16,10:54:36.804,239,223,195,162,141,121,90,57,29,9,-11,-35,-51,-65,-87,-95,-96,-102,-119,-129,-134,-148,-221,-321,-301,-286,-216,-101,-87,-86,-91,-102,-104,-94,-21,184,-353,-2401,-2815,346,1376,934,572,218,-51,-89,-107,-143,-180,-198,-221,-248,-274,-300,-316,-342,-368,-405,-430,-465,-487,-479,-451,-402,-340,-261,-143,2,123,204,255,282,290,258,231,228,210,174,143,108,93,74,60,41,23,17,4,-9,-18,-18,-21,-24,-29,-24,-21,-46,-74,-87,-180,-232,-217,-209,-102,-21,-26,-29,-40,-47,-52,-45,117,225,-896,-3201,-2086,929,1263,835,544,153,5,-13,-53,-87,-106,-133,-156,-203
2018-05-16,10:54:37.842,-221,-239,-259,-278,-314,-340,-366,-394,-401,-377,-341,-293,-223,-148,-31,79,180,266,300,305,302,288,267,255,241,211,176,146,136,110,96,78,64,44,25,20,24,14,5,3,-12,-24,-23,-19,-39,-58,-79,-176,-203,-172,-155,-26,3,-6,-4,-1,-14,-12,6,163,24,-1352,-2925,-590,1566,1227,719,456,109,-45,-80,-107,-143,-164,-174,-189,-212,-247,-260,-277,-292,-318,-339,-366,-394,-401,-385,-348,-308,-250,-141,-3,133,255,337,394,408,394,379,353,330,306,269,224,200,171,147,124,96,64,37,37,27,5,-6,-5,-24,-29,-42,-67,-91,-152,-253,-263,-251,-224,-134,-111
2018-05-16,10:54:38.879,-133,-149,-167,-187,-188,-167,-46,-423,-2046,-2670,219,1281,712,320,55,-299,-439,-466,-511,-548,-572,-588,-616,-645,-660,-675,-708,-737,-760,-798,-830,-853,-853,-824,-784,-736,-649,-508,-347,-190,-70,22,91,132,147,136,137,138,138,155,152,141,138,135,146,157,170,195,214,225,237,261,281,303,305,311,311,235,189,259,304,399,520,561,576,595,600,604,613,694,789,273,-1260,-654,1822,2092,1479,1068,692,578,579,559,531,510,487,474,473,466,449,421,396,379,353,309,276,256,255,276,321,365,431,531,641,709,762,781,789,776,744,714,688,655,626,595,552,525,508,463
2018-05-16,10:54:39.916,421,395,379,356,328,286,281,260,216,183,160,105,-24,-25,-2,23,134,168,172,153,133,107,95,106,235,160,-933,-2027,315,1622,999,399,-38,-260,-278,-287,-319,-340,-354,-381,-408,-417,-430,-446,-451,-482,-503,-518,-526,-525,-515,-492,-460,-416,-356,-295,-202,-119,-52,0,23,31,24,12,-8,-44,-64,-76,-88,-106,-131,-141,-143,-154,-167,-175,-181,-177,-177,-166,-172,-181,-194,-210,-237,-307,-370,-365,-349,-243,-137,-132,-138,-140,-147,-155,-154,-35,173,-615,-2642,-1614,1571,1472,730,319,-132,-327,-344,-345,-351,-376,-393,-413,-409,-428,-458,-460,-472,-498,-522,-550,-568,-556,-534,-512,-483,-451
2018-05-16,10:54:40.953,-386,-302,-162,-38,61,111,127,115,90,61,30,-21,-68,-79,-105,-133,-177,-185,-207,-231,-247,-263,-276,-284,-291,-288,-325,-345,-350,-390,-489,-500,-488,-447,-309,-263,-254,-255,-241,-227,-212,-174,27,-50,-1390,-2615,75,1919,1233,624,230,-215,-310,-297,-299,-305,-287,-294,-296,-276,-280,-281,-276,-280,-288,-294,-308,-299,-282,-249,-199,-149,-91,22,183,345,497,602,679,700,697,692,662,643,627,597,569,555,533,513,481,462,452,436,424,408,400,382,348,339,317,211,133,141,151,243,341,357,336,319,292,280,289,396,611,-78,-2111,-1653,1602,1953,1217,751,240,-29,-47,-72,-123,-164
2018-05-16,10:54:41.990,-183,-206,-233,-249,-283,-305,-326,-352,-387,-407,-419,-430,-420,-394,-360,-337,-287,-170,-29,72,155,223,255,260,238,193,157,139,114,95,68,41,17,-5,-7,-10,-52,-65,-64,-78,-95,-112,-109,-144,-288,-309,-267,-249,-111,-43,-49,-62,-77,-81,-77,-49,225,365,-1068,-3197,-978,1607,1420,833,378,-84,-191,-187,-220,-249,-265,-279,-290,-315,-338,-347,-372,-402,-427,-448,-456,-461,-453,-414,-369,-334,-280,-204,-90,37,161,242,272,296,294,273,251,230,214,209,190,170,140,123,104,84,66,51,53,46,22,-1,6,-65,-189,-178,-173,-141,-2,42,38,22,7,16,17,74,440,331
2018-05-16,10:54:43.028,-1661,-3287,21,1708,1287,828,350,-24,-71,-79,-109,-137,-163,-187,-212,-228,-240,-256,-282,-296,-320,-341,-353,-355,-334,-295,-265,-230,-168,-72,44,165,261,324,357,363,341,312,297,279,242,220,206,195,160,133,121,113,98,87,88,48,41,37,-62,-175,-141,-129,-96,39,86,79,71,50,39,42,128,440,56,-1958,-2619,676,1708,1127,688,262,-66,-116,-135,-172,-207,-221,-229,-258,-266,-295,-326,-347,-381,-407,-441,-461,-470,-454,-415,-385,-347,-283,-170,-31,95,181,266,298,285,262,232,203,186,161,133,115,74,57,40,12,-7,-33,-45,-73,-86,-86,-170,-312,-300,-255,-230,-115
2018-05-16,10:54:44.065,-58,-72,-99,-103,-105,-106,-63,187,-44,-1633,-2360,502,1675,1067,584,227,-154,-253,-254,-269,-293,-315,-318,-326,-325,-355,-349,-372,-392,-405,-426,-452,-450,-421,-391,-340,-278,-201,-71,82,234,353,422,476,490,473,445,414,398,377,340,322,294,282,262,245,240,236,222,193,192,191,101,-17,5,34,76,189,240,225,200,191,175,170,242,547,172,-1837,-2361,943,1792,1190,737,279,6,-16,-31,-77,-104,-115,-137,-161,-183,-197,-232,-266,-301,-326,-352,-390,-404,-398,-367,-317,-268,-194,-102,15,126,199,239,262,242,210,180,139,112,79,39,0,-34,-58,-84,-103,-126,-146,-169,-203
2018-05-16,10:54:45.102,-217,-214,-259,-409,-420,-374,-360,-252,-161,-154,-156,-156,-156,-145,-97,158,156,-1272,-3055,-720,1542,1233,728,336,-28,-71,-57,-81,-98,-109,-99,-100,-95,-103,-122,-124,-135,-137,-142,-146,-150,-131,-83,-24,49,138,251,387,532,632,692,719,730,724,703,688,678,662,645,622,606,578,552,547,536,509,495,489,465,446,444,388,242,240,281,285,405,476,458,432,424,412,410,452,735,641,-1096,-2722,-64,1815,1485,1044,627,295,232,197,145,112,76,39,3,-27,-63,-97,-137,-178,-210,-245,-288,-310,-312,-288,-230,-175,-107,-14,111,213,299,344,362,357,344,319,297,261,232,218
2018-05-16,10:54:46.139,193,155,130,101,83,72,38,19,6,9,-10,-32,-63,-61,-141,-277,-250,-225,-184,-59,-24,-29,-47,-58,-69,-78,8,351,-96,-2348,-2959,369,1396,935,563,124,-122,-143,-163,-204,-228,-243,-283,-319,-339,-347,-379,-399,-428,-467,-499,-511,-514,-492,-476,-414,-359,-286,-165,-48,45,134,194,216,218,200,172,152,121,80,54,48,29,11,-2,-13,-26,-47,-50,-63,-80,-101,-115,-130,-119,-170,-297,-293,-261,-237,-130,-70,-74,-88,-91,-102,-96,-76,87,46,-1265,-2903,-380,1618,1111,590,297,-94,-248,-263,-295,-326,-344,-349,-362,-381,-397,-423,-440,-478,-503,-527,-549,-566,-558,-524,-494,-447
2018-05-16,10:54:47.176,-361,-236,-105,34,150,218,272,295,291,276,248,226,200,175,152,103,82,69,43,12,-1,-1,-25,-35,-32,-40,-69,-79,-78,-189,-258,-220,-200,-154,-39,-16,-32,-47,-47,-50,-59,31,192,-436,-2297,-1957,1112,1471,861,510,108,-148,-178,-196,-228,-250,-261,-275,-300,-314,-336,-365,-389,-416,-449,-474,-500,-503,-489,-458,-407,-342,-251,-123,31,158,238,297,319,305,288,269,252,210,180,151,128,113,87,72,53,39,25,7,2,-6,-18,-33,-44,-64,-68,-148,-245,-228,-206,-139,-27,-5,-12,-17,-17,-26,-19,77,272,-366,-2371,-2359,741,1458,935,586,174,-32,-33,-49,-85,-116
2018-05-16,10:54:48.214,-134,-143,-169,-191,-201,-221,-244,-283,-307,-335,-340,-343,-333,-289,-236,-165,-92,24,159,274,345,395,416,424,413,384,346,324,315,296,281,261,227,212,203,189,180,170,157,155,148,135,128,120,95,93,43,-81,-81,-54,-18,112,135,119,115,112,98,111,157,399,109,-1783,-2954,-46,1542,1185,777,396,133,98,68,23,-7,-32,-55,-80,-108,-122,-159,-197,-230,-254,-279,-308,-325,-324,-295,-251,-198,-137,-36,90,206,277,326,368,378,355,349,324,289,271,254,229,196,166,150,139,126,111,96,87,73,72,69,68,56,33,20,-2,-94,-158,-135,-120,2,72,70,55
2018-05-16,10:54:49.251,48,36,27,44,238,384,-802,-3058,-1599,1182,1354,893,560,187,84,59,19,-9,-54,-86,-96,-125,-152,-175,-207,-241,-266,-292,-318,-336,-334,-322,-283,-232,-196,-118,-9,107,210,273,302,301,294,282,268,249,235,210,183,165,137,114,84,61,36,26,19,7,2,-6,-3,-6,-25,-35,-39,-46,-93,-205,-218,-194,-155,-30,25,10,-7,0,-11,-12,29,174,50,-1296,-2653,-211,1634,1192,695,383,3,-161,-176,-203,-231,-259,-290,-338,-370,-389,-413,-447,-500,-535,-573,-622,-672,-698,-689,-664,-639,-605,-523,-410,-282,-175,-112,-62,-59,-81,-112,-146,-176,-199,-230,-267,-294,-327,-350,-363
2018-05-16,10:54:50.288,-369,-385,-404,-411,-400,-391,-379,-358,-361,-381,-367,-357,-430,-449,-391,-336,-196,-97,-72,-63,-34,1,31,59,227,373,-656,-2768,-1190,1623,1622,1121,828,458,346,369,347,326,331,331,330,332,344,344,344,350,360,368,365,378,391,436,464,508,565,652,760,881,963,1019,1063,1082,1062,1043,1029,1011,964,938,927,907,875,849,838,795,768,758,743,733,739,736,671,630,589,569,528,412,418,448,452,558,594,552,546,514,485,466,480,711,796,-564,-2874,-1229,1360,1448,1121,856,441,294,266,211,145,93,55,13,-27,-66,-108,-187,-252,-279,-306,-346,-378,-459,-471,-430,-383,-386
2018-05-16,10:54:51.325,-358,-251,-137,-33,27,24,14,9,14,2,-74,-121,-155,-162,-200,-241,-262,-286,-296,-330,-362,-394,-421,-428,-448,-465,-478,-480,-492,-595,-682,-650,-637,-572,-448,-432,-443,-456,-459,-476,-477,-395,-123,-546,-2457,-3209,-179,940,541,237,-94,-398,-423,-426,-457,-490,-522,-511,-526,-553,-558,-557,-571,-607,-617,-627,-655,-698,-722,-653,-584,-538,-492,-374,-242,-120,-12,61,99,101,98,82,62,54,21,-12,-18,-35,-57,-74,-89,-83,-85,-87,-100,-118,-118,-105,-108,-112,-98,-157,-257,-261,-250,-192,-67,-30,-48,-55,-45,-35,-21,-2,143,-23,-1305,-2360,12,1551,995,585,332,0,-187,-201,-203,-186
2018-05-16,10:54:52.362,-228,-237,-232,-230,-245,-260,-232,-237,-293,-333,-353,-432,-429,-417,-380,-318,-219,-161,-26,102,200,294,372,388,348,309,305,341,341,245,193,192,204,146,125,130,142,139,101,90,78,63,48,53,33,-76,-101,-69,-21,66,108,131,115,114,116,101,93,250,362,-652,-2640,-1235,1377,1329,874,646,283,62,35,-13,-34,-33,-66,-97,-136,-161,-186,-215,-240,-269,-312,-360,-388,-394,-376,-331,-264,-187,-93,26,156,288,385,416,437,434,435,396,359,321,296,283,253,240,221,195,169,151,157,133,129,107,72,44,18,-44,-135,-124,-97,-66,58,105,88,56,48,55,49,70
2018-05-16,10:54:53.400,306,327,-1077,-3209,-1012,1423,1285,866,580,145,-28,-44,-75,-108,-117,-141,-191,-209,-223,-264,-314,-347,-400,-430,-416,-437,-462,-439,-379,-327,-258,-133,26,161,266,370,430,436,433,415,373,358,332,283,203,222,202,131,181,66,-38,-14,4,9,14,-37,-46,-21,-134,-227,-200,-166,-107,0,32,31,20,8,6,9,50,259,15,-1690,-3042,4,1688,1209,766,436,36,-65,-76,-115,-156,-179,-195,-218,-235,-271,-309,-332,-352,-379,-424,-456,-479,-499,-491,-451,-399,-318,-187,-17,143,266,344,386,397,384,353,336,307,265,267,215,168,166,133,104,109,88,75,59,24,32,20,-30
2018-05-16,10:54:54.437,-81,-201,-188,-171,-134,-9,51,57,58,45,51,62,69,177,97,-944,-2513,-737,1610,1287,811,527,170,-72,-87,-102,-135,-154,-162,-198,-211,-237,-256,-288,-305,-333,-371,-408,-453,-476,-467,-418,-356,-265,-138,11,173,298,382,408,442,423,386,368,333,307,282,258,230,208,203,182,151,125,127,129,107,97,73,57,21,-91,-104,-60,-86,-17,73,71,73,70,39,33,56,152,271,-569,-2561,-1765,1182,1455,922,623,235,11,-3,-28,-77,-119,-125,-137,-162,-188,-223,-261,-290,-300,-327,-379,-414,-428,-416,-381,-325,-263,-152,-8,147,261,345,386,399,390,351,331,301,273,249,238
2018-05-16,10:55:13.071,121,151,138,107,84,43,1,-17,-16,-9,-618,-2153,-1862,921,1451,957,634,340,-91,-305,-328,-340,-380,-404,-447,-484,-517,-534,-555,-557,-565,-529,-512,-540,-576,-586,-548,-458,-342,-215,-16,195,341,402,408,391,371,348,350,353,364,384,389,364,335,309,288,265,242,215,172,139,137,100,58,59,83,20,-108,-101,-78,-62,20,58,54,28,7,-22,-43,-41,19,154,-419,-2133,-2027,793,1412,967,622,302,-80,-244,-209,-171,-178,-183,-175,-173,-171,-168,-189,-243,-293,-356,-409,-475,-522,-531,-522,-454,-332,-201,-21,192,382,531,600,628,619,587,556,494,422,369,339,299,237,181
2018-05-16,10:55:14.395,138,110,67,38,27,-7,-29,-54,-73,-91,-95,-156,-296,-342,-334,-306,-197,-131,-114,-75,-40,2,53,77,143,310,-114,-1919,-2705,483,1772,1365,992,695,198,-34,-86,-126,-151,-183,-204,-208,-198,-184,-165,-159,-178,-193,-245,-329,-413,-489,-552,-574,-556,-484,-350,-180,-9,112,195,247,257,254,244,226,219,204,187,182,197,206,178,138,99,67,12,-27,-26,-17,9,26,30,25,-46,-97,-71,-39,30,109,103,92,89,69,56,51,89,266,209,-1018,-2986,-1039,1598,1504,1163,967,521,173,91,50,11,-31,-66,-100,-145,-188,-227,-289,-354,-426,-486,-554,-640,-713,-745,-741,-690,-597
2018-05-16,10:55:15.432,-430,-234,-31,114,228,298,317,306,312,352,404,467,510,506,442,389,365,346,315,280,210,138,64,-13,-74,-136,-159,-175,-252,-201,-75,16,98,159,158,133,137,131,100,77,114,238,-154,-1724,-2546,137,1335,929,735,544,185,-96,-142,-165,-199,-235,-254,-262,-274,-277,-292,-325,-372,-450,-549,-640,-720,-760,-746,-676,-551,-408,-222,21,231,379,461,512,516,502,453,393,340,293,278,311,342,360,361,368,370,373,355,333,312,281,244,213,142,0,-47,-31,-39,10,55,35,10,-7,-29,-64,-79,-48,17,-490,-2092,-2408,548,1643,1134,700,317,-197,-429,-435,-458,-463,-440,-390
2018-05-16,10:55:16.470,-342,-305,-297,-278,-255,-241,-265,-290,-310,-371,-448,-488,-521,-507,-450,-337,-154,45,235,394,479,500,499,506,515,496,469,444,411,373,316,261,199,134,107,69,25,-5,-50,-84,-89,-184,-311,-297,-250,-187,-55,-12,-14,9,37,33,26,14,86,198,-678,-2927,-2639,580,1298,1000,795,515,141,49,47,15,-8,-14,-33,-75,-117,-148,-185,-216,-250,-269,-311,-338,-369,-389,-376,-310,-216,-93,63,248,411,536,613,621,600,580,535,472,427,384,334,292,241,190,149,89,32,24,2,-13,-41,-83,-114,-154,-285,-352,-318,-293,-222,-82,-28,5,51,86,95,84,82,212,95,-1138
2018-05-16,10:55:17.507,-2831,-556,1514,1109,707,457,122,-184,-222,-169,-129,-118,-88,-50,-55,-100,-148,-192,-230,-272,-307,-355,-394,-458,-483,-508,-470,-395,-250,-69,128,281,390,420,409,366,321,308,334,392,425,416,412,360,273,184,88,9,-52,-106,-160,-182,-186,-182,-243,-307,-265,-215,-170,-62,-20,-14,-31,-33,-26,-21,-14,93,132,-692,-2476,-1550,1290,1402,1060,804,544,175,48,12,-43,-100,-126,-157,-193,-226,-267,-316,-358,-411,-471,-520,-608,-680,-720,-721,-684,-609,-485,-288,-71,103,238,301,320,313,285,274,267,267,296,327,363,396,415,428,426,410,391,378,337,231,109,22,-83,-247,-288,-261
2018-05-16,10:55:18.544,-201,-34,65,81,95,116,114,99,58,122,334,-342,-2582,-3069,97,1159,948,767,567,118,-88,-82,-118,-152,-153,-148,-173,-201,-215,-236,-279,-309,-327,-372,-456,-553,-641,-664,-614,-535,-415,-230,-20,191,359,475,554,601,607,572,511,480,421,352,299,251,196,150,133,140,159,200,253,282,288,291,269,140,70,89,82,120,165,151,132,118,81,59,47,41,180,-120,-1732,-3122,-510,1415,1143,795,522,29,-284,-363,-422,-471,-485,-490,-481,-437,-364,-313,-297,-289,-274,-268,-284,-326,-362,-366,-348,-331,-312,-276,-168,-30,97,180,242,292,305,336,386,441,457,451,467,477,467,440
2018-05-16,10:55:19.581,397,318,255,189,162,119,81,54,-14,-167,-220,-199,-200,-144,-68,-44,-61,-59,-46,-68,-90,-6,176,-285,-1998,-2859,204,1394,939,632,401,57,-135,-149,-144,-155,-157,-162,-157,-144,-161,-219,-287,-330,-382,-431,-490,-532,-529,-435,-326,-237,-123,37,238,430,554,637,697,701,682,636,576,537,481,408,350,280,214,191,163,127,91,74,21,-4,-30,-32,-133,-266,-267,-280,-273,-180,-124,-117,-124,-101,-67,-25,13,102,157,-597,-2495,-2014,1149,1598,1090,713,358,-78,-230,-254,-272,-250,-206,-148,-121,-127,-136,-151,-171,-181,-213,-264,-340,-428,-469,-484,-486,-439,-347,-234,-88,44,133,209
2018-05-16,10:55:20.618,277,279,254,245,242,221,174,114,96,111,149,150,133,103,47,-24,-73,-88,-57,-37,-114,-122,-54,-26,34,137,155,150,153,119,84,62,70,256,74,-1538,-3336,-881,1483,1456,1171,997,555,274,231,190,118,65,20,-23,-74,-112,-163,-219,-262,-318,-393,-448,-528,-598,-617,-596,-570,-497,-340,-159,18,161,269,304,299,293,261,223,213,225,252,285,301,295,281,270,231,197,170,151,123,72,15,-85,-260,-320,-285,-234,-103,33,82,115,126,124,125,122,204,435,66,-1681,-2778,22,1357,1068,838,646,267,-10,-73,-124,-191,-240,-253,-227,-194,-213,-250,-252,-232,-221,-234,-271
2018-05-16,10:55:21.656,-378,-473,-539,-587,-607,-549,-415,-212,4,162,265,362,403,414,417,399,370,338,317,286,256,222,188,164,161,173,179,204,214,218,202,94,29,48,66,117,175,182,149,129,118,101,90,94,126,-292,-1703,-2212,610,1659,1096,776,473,26,-265,-327,-366,-442,-499,-533,-550,-568,-568,-554,-531,-497,-467,-443,-468,-525,-560,-555,-505,-434,-330,-203,-46,100,204,275,324,339,379,407,416,449,468,454,424,389,349,308,301,268,202,177,138,109,96,33,-121,-136,-104,-101,-49,21,25,14,1,-8,-13,-13,53,257,-235,-2131,-2839,64,1331,1006,661,381,-38,-179,-169,-182,-217,-215
2018-05-16,10:55:22.693,-203,-203,-200,-188,-201,-240,-297,-369,-433,-440,-441,-454,-423,-359,-276,-170,-24,168,344,477,559,611,609,583,540,492,457,402,351,302,240,193,137,100,84,54,41,14,2,12,-34,-168,-191,-162,-179,-122,-58,-107,-139,-112,-90,-69,-38,50,228,-292,-2273,-2722,587,1737,1354,1075,784,285,74,-15,-127,-210,-235,-255,-221,-172,-151,-140,-127,-113,-113,-137,-215,-294,-353,-390,-412,-390,-276,-112,44,205,313,354,382,401,420,426,430,416,389,364,320,256,203,205,234,234,197,101,3,-26,-84,-253,-323,-295,-296,-250,-154,-131,-135,-137,-120,-118,-103,-62,69,-322,-1873,-2678,177,1374
2018-05-16,10:55:23.730,942,716,549,239,42,14,2,-11,-12,-22,-51,-85,-123,-162,-207,-252,-287,-341,-416,-487,-541,-553,-512,-468,-390,-268,-81,109,249,347,395,386,338,282,217,166,119,67,32,17,30,60,98,118,149,172,132,99,78,37,-90,-106,-105,-136,-119,-56,-22,-3,24,57,72,63,172,401,-265,-2433,-2752,390,1249,985,786,615,237,28,-18,-70,-136,-178,-191,-210,-220,-238,-267,-296,-338,-400,-461,-521,-575,-624,-646,-634,-593,-498,-354,-163,29,203,327,404,437,455,431,419,416,405,396,373,337,278,237,194,158,121,88,61,79,176,161,97,127,147,190,298,328,314,275,232
2018-05-16,10:55:24.767,204,189,184,317,221,-1161,-3094,-1028,1502,1422,1052,784,332,-33,-106,-133,-171,-227,-270,-315,-380,-422,-463,-486,-510,-533,-536,-532,-532,-530,-509,-461,-378,-263,-121,62,247,413,504,485,391,302,235,199,201,207,218,255,299,310,310,281,234,224,231,195,168,157,124,-20,-52,-50,-46,17,69,55,29,-6,-42,-62,-86,-26,125,-549,-2542,-2458,825,1369,1047,783,484,60,-134,-189,-211,-188,-179,-212,-231,-249,-279,-290,-276,-278,-317,-378,-450,-513,-565,-556,-502,-442,-323,-147,80,282,447,572,642,633,606,599,574,537,490,438,381,314,264,213,140,64,21,-10,-37,-40,-78,-194
2018-05-16,10:55:25.804,-194,-129,-99,-24,46,74,67,56,24,6,6,61,34,-657,-2198,-1407,1282,1444,943,621,301,-113,-283,-309,-358,-401,-429,-423,-328,-261,-231,-225,-227,-230,-245,-244,-282,-323,-351,-327,-271,-219,-176,-104,31,171,278,339,339,323,293,261,218,173,132,91,81,82,71,60,58,35,15,-37,-83,-111,-195,-311,-295,-228,-162,-36,39,46,82,105,92,79,85,185,241,-699,-2791,-1865,1147,1520,1157,922,589,272,217,216,200,153,125,84,42,12,-41,-79,-140,-209,-271,-360,-429,-491,-532,-558,-556,-508,-416,-276,-114,31,143,202,233,225,205,175,156,130,94,76,86,108,135,176
2018-05-16,10:55:26.842,229,230,212,192,144,128,48,-33,-30,-32,-3,74,134,134,-97,-146,-112,-84,-34,256,231,-1302,-3586,-1418,1151,1127,957,885,545,248,172,124,69,38,14,-35,-111,-195,-274,-330,-374,-400,-437,-467,-492,-533,-547,-560,-566,-503,-408,-268,-73,81,194,240,240,252,264,268,249,212,201,223,235,230,226,233,229,232,235,215,224,209,106,94,139,166,224,299,310,300,269,245,240,238,261,260,-454,-2094,-1547,1246,1505,992,689,364,-62,-241,-246,-263,-280,-301,-317,-350,-400,-429,-472,-522,-564,-623,-694,-743,-753,-717,-653,-550,-417,-246,-66,109,237,342,427,479,498,479,433,357
2018-05-16,10:55:27.879,295,239,188,141,138,189,193,187,189,186,189,195,183,60,-3,17,19,70,149,183,167,123,107,108,94,180,288,-549,-2685,-2164,875,1205,927,737,500,96,-101,-159,-248,-308,-334,-366,-405,-416,-410,-405,-411,-416,-433,-445,-479,-558,-614,-617,-596,-521,-407,-252,-52,173,369,502,586,623,621,615,594,579,559,512,479,452,410,368,330,287,255,219,164,136,-5,-122,-123,-127,-119,-26,16,21,9,-11,-7,-15,-12,66,-257,-1724,-2915,-192,1750,1356,947,718,254,8,-45,-128,-191,-227,-250,-320,-409,-488,-546,-588,-612,-598,-558,-518,-535,-514,-464,-387,-307,-217,-106,51,240,402
2018-05-16,10:55:28.916,504,543,546,520,484,412,362,347,326,282,237,215,188,144,67,24,-21,-65,-56,-54,-109,-60,-29,-37,28,53,-3,-26,-44,-53,-16,7,177,162,-1142,-3279,-1620,1176,1335,1029,890,523,163,76,35,-11,-57,-86,-87,-114,-144,-163,-191,-218,-243,-298,-354,-451,-523,-551,-528,-483,-434,-328,-129,120,291,398,471,484,467,457,452,400,355,326,315,272,207,148,98,32,-21,-65,-76,-97,-204,-222,-149,-92,-44,25,22,-8,-34,-43,-63,-82,-108,-150,-719,-2297,-1825,1460,1825,1155,746,421,-24,-243,-261,-272,-273,-262,-225,-213,-218,-251,-287,-293,-282,-272,-317,-407,-523,-603,-623,-597
2018-05-16,10:55:29.953,-519,-407,-252,-32,170,341,457,482,466,461,447,395,365,345,304,275,253,205,162,130,116,103,61,38,13,-119,-169,-125,-113,-62,5,24,90,140,164,162,176,242,305,-340,-2186,-2000,1291,2017,1531,1167,819,245,0,-51,-133,-180,-194,-202,-228,-273,-344,-409,-468,-542,-594,-652,-707,-773,-811,-800,-771,-699,-606,-451,-237,-9,199,346,461,545,607,628,625,611,564,479,406,328,289,196,20,-23,-30,-70,-35,-1,-80,-102,-29,50,130,229,257,251,246,221,224,221,256,503,-9,-2222,-3335,-64,1403,1156,934,734,244,-44,-95,-142,-194,-210,-222,-262,-313,-360,-395,-412,-419,-432
2018-05-16,10:55:30.990,-485,-560,-583,-593,-551,-500,-455,-386,-280,-109,72,221,337,396,455,477,460,457,448,445,447,459,434,409,386,351,310,295,277,265,229,73,-25,-30,-49,-63,-21,-12,-23,-44,-61,-100,-105,-78,-24,-518,-2066,-2376,683,1691,1118,664,306,-165,-330,-289,-236,-174,-105,-13,-26,-129,-206,-224,-249,-298,-350,-417,-527,-642,-691,-693,-676,-601,-447,-260,-41,189,363,484,523,537,540,511,482,450,426,416,383,345,306,284,261,241,212,156,112,20,-132,-95,-29,-21,73,176,211,207,165,103,30,-41,-54,-212,-1188,-2764,-1308,1246,1180,746,473,159,-137,-180,-197,-242,-261,-282,-306,-302
2018-05-16,10:55:32.028,-269,-237,-228,-238,-234,-256,-294,-344,-374,-385,-359,-320,-270,-182,-44,119,274,389,438,449,448,413,357,313,274,242,208,181,132,103,80,43,9,-38,-84,-117,-182,-288,-262,-183,-111,31,193,225,175,117,83,68,42,117,197,-772,-3138,-2427,727,1117,778,608,346,73,47,75,60,57,62,60,39,2,-43,-70,-109,-140,-207,-300,-349,-378,-390,-388,-385,-359,-277,-150,2,137,235,303,353,373,377,362,347,312,256,198,147,102,69,50,54,53,64,75,92,58,-38,-40,-27,-54,5,84,105,98,108,115,101,94,155,165,-700,-2552,-1609,1377,1571,1160,888,562,96,-37
2018-05-16,10:55:33.065,-65,-85,-119,-136,-174,-209,-251,-280,-331,-360,-406,-443,-502,-571,-620,-644,-650,-628,-553,-461,-326,-125,40,176,268,334,371,411,445,432,390,308,250,230,210,181,144,83,19,-17,-55,-92,-166,-244,-222,-159,-87,44,123,165,181,179,175,175,176,290,26,-1344,-2399,-7,1474,1066,786,554,211,-54,-114,-152,-209,-220,-238,-276,-302,-275,-240,-242,-258,-285,-381,-502,-602,-663,-695,-664,-587,-467,-295,-93,99,264,376,434,453,435,415,384,370,362,332,296,280,292,304,332,341,327,314,308,270,126,43,51,66,123,190,199,166,120,88,72,65,82,112,-556,-2346,-2012,1192,1644
2018-05-16,10:55:34.102,1122,728,334,-139,-303,-308,-368,-425,-450,-458,-424,-380,-339,-309,-304,-349,-402,-426,-452,-483,-491,-491,-463,-457,-405,-302,-152,-13,129,233,319,375,396,401,414,452,478,468,438,388,342,305,265,211,162,137,99,-22,-117,-95,-93,-92,-5,19,23,27,23,28,42,100,318,-173,-2127,-2899,1,1337,1032,695,387,-21,-143,-124,-131,-139,-143,-133,-127,-121,-149,-192,-231,-274,-301,-343,-388,-413,-415,-397,-345,-271,-180,-52,126,304,419,493,551,545,525,507,478,457,429,408,375,317,287,236,208,171,123,82,-9,-141,-154,-140,-145,-75,-15,-30,-70,-104,-138,-163,-156,-95,-179,-1057
2018-05-16,10:55:35.139,-2610,-708,1689,1316,833,486,103,-251,-382,-427,-436,-430,-410,-381,-357,-319,-274,-244,-228,-222,-215,-264,-314,-325,-337,-347,-324,-259,-167,-43,100,209,305,351,373,378,359,336,316,285,258,232,221,210,193,175,154,130,118,40,-132,-194,-192,-226,-187,-101,-80,-72,-55,-42,-21,6,131,117,-834,-2589,-1336,1343,1396,1052,801,466,140,73,58,52,32,-1,-21,-37,-45,-74,-108,-144,-187,-254,-343,-415,-460,-480,-488,-464,-407,-304,-153,26,190,300,356,381,396,389,354,344,321,285,235,178,133,107,87,67,42,23,12,-56,-78,-61,-88,-84,-9,25,8,-29,-56,-99,-109,-46
2018-05-16,10:55:36.176,81,-644,-2784,-2506,769,1388,1078,872,614,232,104,88,79,55,15,-27,-65,-96,-148,-192,-240,-301,-360,-412,-464,-538,-585,-572,-551,-468,-362,-239,-74,87,187,261,297,290,265,226,188,163,153,150,158,164,181,181,151,124,143,171,101,10,39,42,47,133,167,166,145,135,130,136,185,378,-53,-1920,-2836,271,1669,1359,1112,897,417,134,87,50,-16,-64,-109,-147,-177,-223,-252,-278,-330,-366,-436,-509,-574,-626,-661,-668,-606,-510,-359,-172,42,212,352,457,470,441,391,352,293,271,249,201,151,95,54,29,-6,-12,-15,-114,-198,-164,-118,-50,74,118,150,173,186,199
2018-05-16,10:55:37.214,196,212,349,-82,-1728,-2205,534,1383,993,793,544,152,-96,-147,-160,-196,-215,-226,-242,-260,-285,-302,-341,-373,-471,-570,-636,-706,-742,-709,-642,-559,-427,-277,-108,65,207,308,381,429,438,405,384,354,325,316,301,293,286,291,299,302,304,295,230,100,88,85,98,192,240,234,198,172,145,129,124,167,-210,-1653,-2415,339,1752,1238,869,536,49,-224,-269,-306,-349,-394,-428,-441,-465,-471,-451,-419,-399,-375,-384,-449,-523,-585,-588,-554,-519,-472,-378,-238,-93,50,156,241,314,372,404,441,470,472,437,406,404,386,337,323,348,329,300,195,36,7,1,1,68,106,99,35
2018-05-16,10:55:38.251,-28,-56,-59,-26,205,-104,-1835,-3200,-512,1291,1110,835,577,139,-107,-145,-186,-231,-243,-238,-216,-205,-206,-205,-218,-234,-258,-267,-279,-310,-353,-379,-367,-333,-249,-122,13,179,337,455,528,568,571,568,545,514,486,466,424,377,349,307,284,250,192,172,134,-2,-61,-58,-57,-10,50,65,54,32,5,-25,-54,-27,-179,-1236,-2924,-1227,1708,1505,969,626,221,-139,-228,-270,-311,-324,-342,-365,-391,-424,-468,-497,-514,-524,-534,-544,-549,-519,-491,-452,-375,-263,-145,-17,111,270,376,447,477,471,447,409,359,316,272,235,190,159,141,129,92,59,53,8,-107,-118,-57,-31,23,77
2018-05-16,10:55:39.288,41,-21,-69,-88,-83,-63,37,-159,-1310,-2463,-337,1461,1164,864,648,324,68,5,-37,-86,-123,-157,-157,-157,-141,-124,-125,-150,-173,-211,-267,-328,-344,-341,-358,-338,-271,-173,-35,125,246,323,389,410,390,361,344,308,256,230,199,152,113,89,30,-25,-75,-130,-158,-203,-309,-287,-222,-168,-56,57,86,47,-19,-45,-46,-52,5,-105,-1103,-2715,-932,1363,1257,826,586,235,52,40,36,35,32,28,-19,-46,-52,-64,-90,-125,-195,-270,-324,-394,-452,-512,-557,-513,-413,-319,-207,-66,75,171,244,295,309,320,316,286,245,166,104,67,30,14,12,33,51,55,65,73,6,-21
2018-05-16,10:55:40.325,32,46,83,180,197,196,172,155,136,137,226,360,-326,-2302,-2046,1003,1633,1246,974,656,246,121,82,20,-44,-119,-183,-245,-299,-317,-324,-343,-376,-429,-460,-510,-564,-606,-598,-573,-535,-460,-323,-165,26,177,281,348,407,434,461,449,416,357,289,218,136,76,36,16,-8,-27,-37,-14,-27,-113,-87,-19,8,99,173,169,173,174,149,126,118,247,376,-690,-3145,-2170,929,1197,957,780,482,47,-100,-129,-180,-206,-219,-220,-228,-255,-300,-337,-394,-431,-465,-494,-506,-502,-468,-456,-399,-298,-197,-69,102,267,378,460,500,499,477,429,393,369,369,386,409,389,375,349,333,326
2018-05-16,10:55:41.362,295,279,265,169,16,-23,-11,9,77,99,55,13,8,1,-2,-4,35,-259,-1455,-2228,209,1704,1163,769,425,-27,-330,-390,-410,-437,-459,-444,-410,-382,-356,-342,-349,-392,-438,-449,-454,-493,-523,-555,-550,-508,-423,-293,-142,22,188,372,488,500,507,500,479,456,418,384,346,327,312,265,240,228,204,163,121,34,-97,-169,-163,-139,-67,16,39,41,35,35,22,18,44,-167,-1200,-2346,-428,1463,1119,710,390,55,-210,-265,-271,-274,-258,-247,-282,-308,-327,-349,-348,-281,-139,-289,-299,-279,-270,-270,-254,-209,-155,-73,24,117,208,332,433,430,361,301,253,200,130,108,70,56
2018-05-16,10:55:42.400,20,-8,-14,-35,-46,-68,-83,-72,-85,-173,-220,-194,-178,-161,-72,-6,46,76,101,113,164,235,307,-120,-1631,-2340,379,1506,1063,690,402,69,-19,-38,-65,-63,-74,-124,-143,-173,-194,-267,-312,-353,-409,-465,-499,-546,-551,-481,-360,-245,-132,11,147,269,328,338,367,380,373,359,343,329,321,281,248,197,165,129,64,21,-11,-58,-102,-43,0,-78,-58,8,68,178,257,274,276,272,273,271,254,318,311,-536,-2173,-1113,1490,1656,1195,809,373,71,11,-34,-51,-62,-117,-180,-198,-286,-391,-423,-453,-497,-537,-582,-640,-683,-693,-649,-601,-520,-414,-309,-142,6,101,181,200,204
2018-05-16,10:55:43.437,217,224,222,206,232,253,262,269,258,245,237,196,129,99,89,85,36,-94,-143,-124,-117,-39,55,82,105,143,189,235,215,280,406,-414,-2595,-2236,826,1280,918,664,382,-42,-186,-209,-252,-278,-280,-269,-280,-294,-315,-329,-352,-378,-426,-500,-559,-582,-606,-571,-470,-368,-246,-88,84,223,325,379,403,427,424,395,382,376,359,339,327,305,297,267,254,245,237,208,195,209,167,33,-6,13,38,140,219,191,128,58,1,4,60,183,180,-908,-2979,-1365,1683,1543,1115,777,347,-102,-234,-277,-343,-399,-423,-427,-421,-419,-430,-407,-378,-380,-405,-421,-423,-443,-430,-405,-366,-328
2018-05-16,10:55:44.474,-257,-144,10,162,280,368,412,428,432,434,417,419,393,357,302,235,171,127,84,42,-10,-61,-70,-154,-250,-181,-137,-108,-6,56,84,94,98,107,88,92,198,-79,-1420,-2309,67,1457,994,708,447,97,-178,-240,-230,-233,-247,-251,-252,-260,-272,-277,-281,-296,-331,-366,-397,-422,-445,-427,-370,-295,-212,-104,43,198,334,449,511,540,542,537,497,441,392,334,282,240,200,182,161,122,84,66,65,59,-22,-167,-204,-186,-163,-77,-14,11,24,17,3,22,37,119,13,-978,-2719,-1123,1388,1238,767,471,118,-199,-259,-225,-221,-203,-188,-188,-180,-150,-161,-168,-164,-154,-141,-182
2018-05-16,10:55:45.511,-250,-292,-302,-319,-305,-243,-183,-92,9,102,170,221,238,269,268,250,245,233,210,186,160,147,137,104,62,8,-31,-53,-62,-149,-233,-189,-142,-115,5,56,59,62,75,89,72,78,217,-108,-1666,-2893,-154,1636,1293,984,795,391,145,138,121,62,26,-2,-38,-75,-101,-132,-162,-214,-271,-314,-382,-444,-496,-498,-466,-445,-411,-295,-161,-11,112,211,283,288,277,260,226,201,187,177,172,181,180,161,134,131,120,98,77,69,-55,-152,-135,-166,-157,-54,-7,13,49,60,93,120,219,446,-168,-2305,-2672,434,1351,1088,880,662,249,42,1,-46,-107,-158,-203,-227,-263,-274
2018-05-16,10:55:46.548,-271,-277,-316,-336,-370,-432,-470,-505,-546,-544,-504,-436,-316,-148,6,138,257,338,382,403,400,405,367,359,355,337,301,257,227,212,205,199,191,188,124,26,28,45,84,176,217,220,234,218,166,142,144,233,-52,-1386,-2523,131,1761,1237,882,594,182,-142,-207,-211,-250,-293,-312,-330,-355,-401,-446,-504,-543,-586,-621,-677,-700,-672,-622,-560,-473,-370,-242,-88,62,176,277,350,370,355,299,268,270,275,274,265,257,266,262,277,293,317,342,338,213,61,26,3,-1,74,122,152,134,66,6,-33,-1,131,-257,-1778,-2449,190,1406,995,758,504,132,-95,-123,-159,-219,-266
2018-05-16,10:55:47.586,-330,-361,-379,-393,-388,-382,-376,-375,-383,-411,-439,-430,-396,-353,-306,-250,-178,-74,63,223,352,442,488,502,490,471,472,443,405,377,368,333,273,233,193,152,136,120,21,-95,-95,-75,-54,34,68,67,47,37,33,13,20,125,-252,-1900,-2851,146,1759,1331,828,440,-42,-229,-211,-198,-184,-189,-203,-236,-271,-273,-270,-295,-321,-398,-476,-547,-604,-644,-626,-557,-451,-329,-157,27,191,314,383,414,422,418,392,380,352,323,305,264,198,147,113,67,29,-11,-69,-78,-152,-208,-151,-106,-99,-12,30,18,-10,-45,-58,-68,-44,150,-198,-2020,-3310,-328,1560,1308,974,776,364,190
2018-05-16,10:55:48.623,181,133,87,60,40,-5,-46,-78,-129,-170,-207,-257,-285,-298,-325,-320,-292,-274,-255,-201,-78,69,214,356,451,486,475,461,443,417,382,344,295,246,194,147,107,97,71,20,-31,-74,-193,-285,-270,-269,-251,-155,-100,-63,-34,-10,-2,27,77,165,-326,-1984,-2355,591,1578,1049,690,437,55,-170,-196,-178,-167,-134,-123,-117,-109,-121,-122,-149,-188,-235,-299,-369,-445,-458,-485,-485,-458,-382,-288,-153,-24,77,193,293,324,340,325,312,312,289,249,212,156,115,80,31,-9,-33,-46,-64,-141,-124,-72,-61,5,105,143,173,175,157,136,124,169,148,-630,-2326,-1513,1368,1477,1070
2018-05-16,10:55:49.660,812,542,175,58,38,-1,-31,-62,-75,-105,-144,-182,-223,-282,-320,-381,-462,-547,-592,-608,-603,-572,-498,-380,-240,-56,105,225,304,340,347,324,285,254,229,201,174,157,147,136,152,142,128,115,111,90,-29,-103,-79,-93,-96,-21,4,1,-24,5,45,52,135,336,-182,-2172,-2739,367,1530,1229,988,757,315,107,55,0,-78,-130,-175,-207,-238,-278,-295,-332,-413,-491,-547,-604,-661,-658,-636,-628,-590,-495,-363,-179,9,192,314,394,423,449,445,438,424,407,397,387,355,332,302,249,223,186,134,127,120,27,8,64,97,160,243,252,239,230,219,193,173,263,374,-500
2018-05-16,10:55:50.697,-2756,-1968,1371,1626,1166,844,453,-31,-167,-196,-240,-281,-305,-307,-328,-383,-410,-451,-495,-548,-587,-629,-687,-700,-681,-622,-529,-439,-310,-148,33,190,297,383,411,404,350,310,299,293,268,246,236,237,248,266,289,285,288,308,321,202,99,63,15,33,104,136,135,108,50,4,-30,44,177,-366,-2055,-2227,551,1312,915,674,448,134,-39,-70,-136,-234,-299,-340,-378,-403,-411,-407,-406,-414,-450,-482,-500,-506,-519,-520,-480,-413,-334,-215,-51,138,285,378,467,516,529,523,494,465,453,441,416,374,310,271,245,216,191,159,120,37,-109,-153,-139,-119,-46,17,29,2,12,-8
2018-05-16,10:55:51.734,-19,-9,33,-149,-1179,-2472,-447,1723,1412,894,482,43,-273,-325,-330,-333,-334,-334,-334,-331,-321,-339,-357,-363,-390,-453,-515,-577,-622,-605,-548,-474,-375,-247,-87,78,242,387,465,509,519,499,474,448,403,351,299,255,210,168,123,101,89,54,41,27,-68,-130,-114,-108,-73,25,52,45,26,-1,-17,-22,-7,89,-290,-1798,-2798,3,1673,1269,848,605,191,66,79,56,6,-36,-83,-100,-147,-193,-219,-221,-226,-250,-271,-302,-333,-360,-361,-349,-305,-252,-162,-40,107,263,358,395,404,398,378,365,339,299,263,227,195,162,126,121,104,53,-3,-37,-54,-168,-260,-234,-213,-160
2018-05-16,10:55:52.772,-49,-18,-26,1,16,18,42,82,208,-181,-1881,-2928,-76,1597,1206,779,512,80,-121,-143,-150,-147,-133,-136,-121,-102,-98,-60,-48,-69,-145,-220,-258,-316,-375,-398,-391,-349,-300,-236,-141,-42,112,266,324,355,395,386,349,315,301,278,258,208,121,59,25,-6,-33,-51,-40,-79,-160,-147,-98,-67,24,98,113,119,134,131,118,109,162,106,-764,-2374,-852,1481,1289,952,721,450,112,-2,-25,-62,-109,-140,-159,-190,-209,-247,-275,-301,-337,-390,-436,-501,-556,-585,-559,-515,-439,-341,-210,-44,85,186,245,265,267,252,246,250,223,196,166,148,123,98,88,76,60,33,4,-18
2018-05-16,10:55:53.809,-117,-225,-213,-199,-150,-40,54,105,139,144,140,169,215,407,316,-1032,-2884,-1027,1284,1119,893,784,478,123,20,-25,-92,-162,-233,-299,-275,-247,-249,-277,-288,-311,-351,-397,-463,-536,-582,-596,-586,-522,-409,-256,-42,152,289,378,425,447,454,440,439,437,415,375,322,283,244,215,212,206,194,194,162,42,7,38,60,126,207,219,193,180,160,154,117,163,389,-347,-2722,-3093,481,1622,1296,999,648,147,-18,-31,-79,-142,-203,-244,-297,-347,-372,-395,-403,-415,-395,-411,-451,-440,-457,-455,-438,-391,-300,-157,13,158,255,296,304,299,291,297,301,303,312,300,274,279,265,248
2018-05-16,10:56:05.633,-923,-922,-919,-856,-763,-672,-563,-399,-171,45,202,339,434,450,450,446,444,442,438,451,468,436,370,319,253,253,229,164,100,-45,-61,-116,-238,-262,-174,-119,-94,-91,-73,-68,-61,-71,-224,-958,-2477,-1649,1422,1726,1224,909,595,141,-21,-148,-276,-387,-419,-445,-450,-461,-444,-432,-433,-417,-417,-438,-510,-570,-533,-461,-393,-306,-210,-104,51,254,326,295,290,312,426,546,649,647,404,201,122,123,110,112,99,70,43,22,-22,-166,-213,-183,-174,-138,-72,-95,-118,-115,-87,-74,-30,110,189,-777,-2916,-1988,1151,1588,1286,1088,743,350,266,234,190,173,164,170,145,87,36,-57
2018-05-16,10:56:06.670,-143,-198,-280,-467,-652,-757,-759,-700,-586,-487,-373,-208,-43,99,198,283,363,409,468,519,524,493,456,403,305,182,102,18,-21,-48,-63,-68,-130,-169,-148,-107,-30,102,185,232,228,192,146,134,136,230,-130,-1671,-2568,135,1283,981,1014,716,265,1,-51,-74,-120,-167,-192,-207,-206,-240,-291,-346,-419,-508,-603,-675,-738,-773,-749,-734,-688,-593,-457,-260,-43,139,282,368,427,462,496,513,514,498,458,457,465,448,434,452,446,416,363,301,162,48,23,38,97,77,-76,-231,-249,-174,-131,-97,-66,-200,-786,-1966,-1056,1516,1847,1142,600,172,-167,-239,-235,-254,-289,-345,-434,-496
2018-05-16,10:56:07.707,-515,-526,-521,-532,-539,-541,-526,-479,-458,-430,-396,-335,-250,-178,-32,114,208,330,406,405,460,508,554,501,339,96,91,275,369,347,271,214,148,90,71,38,-93,-158,-168,-176,-115,-52,-80,-127,-140,-150,-181,-196,-129,-155,-1127,-2977,-1469,1358,1510,1087,788,381,72,10,6,-4,-26,-34,-71,-104,-91,-76,-106,-94,-86,-203,-367,-394,-416,-453,-476,-504,-474,-457,-369,-144,26,164,242,288,294,285,257,241,236,246,268,292,350,351,348,355,263,101,14,-134,-353,-366,-342,-317,-191,-112,-53,28,55,52,55,101,312,216,-1315,-3472,-1425,1126,1152,988,880,624,321,324,353,202
2018-05-16,10:56:08.745,125,35,-26,-11,-31,-69,-92,-133,-148,-173,-230,-323,-369,-403,-463,-473,-458,-392,-267,-190,-78,60,102,104,151,172,184,210,181,110,83,38,71,195,251,223,189,198,132,-46,-104,-95,-34,134,252,271,296,269,220,164,86,131,-291,-2299,-4313,-979,1558,1409,1128,925,474,58,-65,-137,-178,-179,-139,-85,-28,1,20,7,-75,-229,-385,-534,-660,-719,-682,-639,-544,-415,-263,-77,89,265,385,484,584,602,519,463,458,461,464,429,381,313,279,356,415,229,143,71,93,101,101,169,222,227,229,254,232,152,78,60,-406,-1915,-2555,228,1459,920,589,314,-126,-425,-427,-400
2018-05-16,10:56:09.807,-369,-343,-322,-314,-309,-288,-261,-227,-219,-226,-244,-262,-271,-250,-213,-193,-168,-110,-15,86,186,288,353,423,467,396,247,122,61,102,144,159,95,83,119,121,115,91,81,29,-13,75,208,301,394,413,374,281,121,-12,-91,-121,61,-139,-1779,-3820,-1283,1092,1099,904,830,446,190,149,128,109,83,34,2,3,6,-21,-81,-180,-250,-189,-23,-68,-95,-6,36,27,29,82,167,267,350,424,411,333,244,169,116,61,73,63,16,-42,-114,-201,-308,-428,-466,-500,-517,-378,-223,-121,-27,63,101,130,143,159,170,158,276,58,-1254,-2388,58,1828,1396,1120,770,310,-60,-64
2018-05-16,10:56:10.844,-59,-242,-428,-486,-478,-476,-467,-450,-467,-498,-562,-671,-745,-798,-821,-784,-677,-496,-270,-34,184,348,443,469,442,375,308,248,186,142,124,140,155,137,148,196,209,201,206,123,-25,-14,0,12,88,220,316,338,276,261,342,259,379,255,-1315,-3093,-580,1346,1133,921,780,436,123,-5,-128,-210,-292,-352,-382,-424,-463,-484,-529,-604,-694,-781,-853,-890,-844,-762,-655,-521,-371,-209,-25,150,316,419,484,503,522,525,501,471,461,471,459,400,345,263,178,123,134,-20,-275,-349,-361,-343,-222,-144,-107,-94,-125,-194,-197,-169,-159,-612,-2052,-2430,692,2015,1437,967,675,156,-134,-242
2018-05-16,10:56:11.881,-347,-411,-410,-424,-435,-443,-402,-342,-356,-381,-404,-419,-428,-414,-384,-367,-307,-262,-237,-110,48,174,283,412,561,628,438,338,214,167,279,293,248,214,198,169,150,129,1,-114,-103,-72,-77,3,68,90,104,104,88,87,92,337,71,-1836,-3599,-532,1463,1377,1220,1061,538,267,264,245,199,154,109,87,96,84,83,57,-31,-88,-148,-218,-250,-221,-239,-445,-633,-602,-440,-230,-30,160,284,309,329,330,309,312,333,365,414,463,489,491,477,432,343,109,-72,-121,-162,-170,-91,-47,-47,-59,-23,2,7,96,359,-315,-2660,-2933,579,1568,1234,1044,862,408,115,1,-32,66
2018-05-16,10:56:12.918,224,134,-66,-179,-341,-423,-368,-324,-349,-412,-490,-560,-601,-639,-611,-551,-479,-334,-119,76,199,302,347,373,382,369,324,273,273,294,288,294,312,295,291,186,66,64,77,115,206,257,276,312,315,323,357,400,491,-53,-2339,-3264,570,1623,1042,717,514,28,-194,-140,-140,-147,-180,-236,-276,-306,-324,-311,-261,-218,-188,-183,-249,-327,-412,-502,-558,-565,-539,-447,-284,-77,133,259,314,314,330,292,262,255,265,250,240,284,298,290,240,58,-21,-14,14,102,302,311,129,25,-29,-29,7,164,192,-1042,-3267,-1833,1248,1472,1130,892,499,-11,-128,-148,-187,-231,-257,-294,-296,-324
2018-05-16,10:56:13.955,-323,-369,-385,-369,-348,-351,-364,-371,-374,-369,-359,-306,-207,-70,89,260,388,465,513,488,473,413,364,337,288,98,-111,-212,-152,-38,-152,-258,-175,-140,-145,-80,-28,-4,28,95,171,263,394,625,52,-2193,-2845,980,1939,1265,876,574,10,-204,-210,-192,-139,-137,-112,-145,-178,-180,-182,-117,-64,-60,-134,-272,-403,-481,-505,-448,-287,-192,-134,16,130,226,370,471,456,411,384,405,412,387,363,320,219,109,-50,-210,-217,-191,-172,-121,-64,-74,-173,-298,-284,-225,-169,22,-260,-1820,-3051,-228,1434,1153,965,800,436,168,125,123,108,69,16,-18,-62,-106,-146,-202,-282,-355,-410,-492
2018-05-16,10:56:14.993,-698,-808,-829,-780,-669,-536,-365,-181,-1,137,217,248,291,334,374,418,459,483,518,512,475,394,300,66,-137,-191,-190,-192,-96,-39,19,58,54,30,18,177,326,-657,-3101,-2604,810,1411,1208,1066,844,431,226,159,157,103,-31,-85,-78,-112,-142,-199,-264,-308,-367,-459,-557,-654,-692,-658,-612,-555,-454,-304,-102,98,233,257,265,268,266,228,224,226,193,170,177,219,278,299,158,79,92,120,170,253,280,262,280,292,275,273,431,179,-1638,-3637,-500,1878,1259,714,347,-270,-584,-494,-426,-426,-453,-461,-469,-466,-460,-447,-422,-441,-474,-535,-622,-680,-723,-762,-784,-726,-637,-491
2018-05-16,10:56:16.030,-344,-172,25,181,251,282,278,270,268,268,276,274,252,250,253,231,108,1,55,134,134,209,241,203,86,75,185,200,294,285,-704,-2619,-1297,1416,1438,990,629,229,-135,-227,-241,-240,-241,-268,-312,-319,-291,-292,-281,-248,-225,-214,-211,-234,-209,-195,-147,-74,36,153,287,453,609,736,820,884,900,899,838,738,686,675,624,534,365,243,117,-27,-34,25,65,106,158,188,156,156,171,145,162,206,-262,-1718,-2013,903,1909,1256,778,432,34,-161,-150,-135,-124,-122,-87,-81,-89,-97,-80,-48,-45,-74,-129,-201,-241,-213,-201,-180,-144,-51,100,343,577,633,582,500,467,471
2018-05-16,10:56:17.067,444,428,402,344,250,180,100,38,-10,-141,-223,-213,-205,-175,-86,-73,-74,-70,-67,-45,-17,128,100,-1214,-3448,-1317,1591,1499,1175,1023,612,246,179,147,101,75,29,-19,-47,-74,-127,-179,-220,-277,-349,-373,-423,-627,-831,-877,-819,-694,-513,-308,-81,109,274,393,438,434,433,441,436,450,453,458,435,379,291,174,-36,-203,-238,-221,-149,-41,61,100,63,77,113,144,287,390,-890,-3397,-2025,1116,1373,1149,980,700,330,223,213,252,256,176,101,86,30,-39,-91,-130,-209,-318,-443,-561,-642,-684,-708,-677,-607,-508,-402,-283,-161,-79,-9,81,137,178,185,194,208,235,232,252
2018-05-16,10:56:18.104,239,229,223,129,56,83,133,191,289,331,304,220,180,169,130,128,-59,-1110,-2268,-195,1819,1359,909,551,104,-257,-324,-340,-385,-439,-472,-478,-488,-500,-502,-501,-530,-602,-665,-707,-758,-831,-820,-731,-648,-534,-384,-229,-95,63,217,319,393,443,432,394,367,316,286,258,241,182,167,134,-17,-116,-160,-192,-134,141,259,234,160,97,27,16,83,-138,-1303,-2336,-103,1341,905,459,113,-270,-550,-632,-694,-760,-797,-831,-826,-804,-812,-806,-804,-793,-768,-749,-729,-713,-671,-612,-530,-444,-348,-242,-65,139,295,430,515,532,538,501,437,415,400,404,389,309,170,59,64,15,-140,-157
2018-05-16,10:56:19.141,-126,-81,-23,50,98,130,138,171,223,283,347,-102,-1728,-2497,502,1941,1424,977,672,218,42,38,1,-39,-32,-3,39,61,45,49,112,89,46,0,-60,-97,-107,-89,-83,-27,62,49,67,168,217,251,335,320,304,372,402,397,378,337,298,265,218,191,218,193,47,-9,5,-38,-28,47,57,21,22,44,88,185,379,166,-1407,-3109,-169,1918,1643,1300,1052,539,231,201,185,122,102,102,33,-60,-62,-96,-171,-218,-345,-629,-822,-841,-794,-729,-626,-485,-377,-252,-161,-32,96,202,293,358,435,468,460,414,355,285,207,127,81,39,23,-5,-52,-110,-125,-90,-10,55
2018-05-16,10:56:20.179,78,52,71,113,156,192,268,27,-1247,-2261,23,1538,1126,862,672,345,9,-81,-24,-5,-29,-39,-41,11,58,80,34,-101,-264,-398,-504,-583,-608,-607,-574,-563,-532,-462,-378,-258,-138,-42,38,87,144,222,256,270,298,326,329,328,324,333,353,350,254,170,187,226,270,322,319,278,255,211,196,183,67,-305,-1441,-2837,-819,1732,1438,940,512,26,-376,-479,-505,-500,-451,-389,-344,-289,-276,-293,-313,-331,-418,-518,-604,-662,-674,-669,-639,-572,-499,-393,-299,-139,18,137,264,379,457,486,513,516,487,424,358,302,242,200,271,482,340,-59,-138,-88,-100,-64,-24,-12,-11,-15
2018-05-16,10:56:21.216,-32,-45,-16,28,-677,-2681,-2569,752,1597,1127,779,407,-110,-281,-299,-311,-330,-331,-311,-311,-320,-303,-284,-282,-291,-284,-287,-320,-345,-338,-317,-297,-247,-171,-82,38,199,280,314,363,375,375,346,252,101,-29,-94,-103,-68,-35,-39,-46,-10,-68,-207,-166,-72,14,121,179,208,190,134,101,73,54,54,-432,-1970,-2680,166,1484,1047,773,609,231,3,-34,-45,-47,-55,-44,-46,-32,0,22,35,-35,-82,-105,-140,-155,-161,10,210,262,236,228,271,343,501,582,597,519,354,207,77,-22,-96,-135,-169,-239,-305,-332,-346,-324,-330,-382,-357,-291,-204,-90,0,32,48,75,112,119
2018-05-16,10:56:22.253,131,202,-175,-1565,-1639,998,1692,1262,957,598,171,-26,-8,68,127,86,-45,-138,-230,-276,-312,-343,-383,-458,-550,-605,-666,-713,-692,-650,-605,-512,-405,-278,-155,-24,63,89,65,68,70,82,97,126,119,116,138,131,120,116,117,55,-26,7,109,173,255,288,270,247,237,211,232,323,342,-322,-1935,-1624,1193,1715,1301,995,724,378,260,243,139,5,-150,-269,-372,-460,-509,-528,-584,-650,-721,-753,-792,-808,-767,-688,-593,-499,-400,-279,-145,14,168,280,372,421,488,527,522,497,466,458,453,398,344,271,205,190,157,23,-104,-169,-275,-291,-224,-135,-96,-98,-102,-111,-132,-156
2018-05-16,10:56:23.290,-527,-1737,-2605,272,2114,1653,1102,782,289,2,-76,-164,-274,-374,-441,-496,-504,-526,-538,-512,-540,-576,-576,-548,-495,-422,-353,-292,-187,-96,-13,57,128,261,365,378,406,442,521,569,476,364,267,152,116,146,135,116,97,94,-4,-190,-212,-165,-153,-70,-4,-3,-12,-28,-33,-33,-21,79,-312,-1861,-2721,114,1662,1310,930,689,288,132,118,111,84,79,92,109,100,61,51,45,-34,-155,-238,-259,-268,-274,-277,-354,-467,-390,-227,-140,0,147,220,254,267,258,223,191,177,170,160,177,166,124,96,38,-21,-54,-99,-192,-196,-175,-144,-12,41,81,106,110,129,151,201,351
2018-05-16,10:56:24.327,87,-1285,-1972,631,1617,1175,891,622,324,140,82,58,61,50,29,-23,-99,-159,-206,-232,-261,-294,-387,-513,-611,-693,-739,-734,-682,-570,-459,-382,-278,-189,-114,-84,-114,-122,-53,22,27,16,16,15,47,70,80,102,98,137,132,-5,-6,51,99,216,290,298,243,145,81,46,46,90,-365,-1802,-2651,23,1698,1201,765,390,-171,-466,-484,-479,-460,-412,-363,-308,-246,-179,-113,-102,-136,-188,-270,-381,-455,-516,-548,-516,-498,-441,-333,-210,-55,58,213,366,439,520,559,619,663,630,546,481,467,400,319,320,415,526,375,159,50,23,16,27,120,172,180,166,133,110,103,161
2018-05-16,10:56:25.365,108,-910,-2978,-1707,1421,1573,1060,741,293,-130,-225,-239,-252,-255,-227,-189,-121,-89,-89,-83,-79,-90,-90,-104,-123,-139,-136,-111,-44,55,139,215,267,352,453,532,497,296,78,43,96,133,164,164,168,191,189,126,99,93,108,102,15,45,120,182,235,253,219,154,76,27,36,39,145,134,-749,-2496,-1300,1263,1266,1043,902,672,375,230,203,183,107,60,23,-40,-48,-14,-58,-82,-85,-111,-193,-244,-332,-411,-464,-463,-421,-372,-317,-241,-129,-16,87,166,159,133,124,97,47,-9,-48,-60,-64,-62,-84,-106,-86,-4,11,-71,-90,-71,-32,101,196,218,206,208,223,212
2018-05-16,10:56:26.402,260,485,208,-1542,-3057,-84,1748,1445,1156,955,200,-467,-707,-744,-643,-581,-548,-507,-473,-479,-523,-577,-590,-565,-519,-463,-403,-351,-289,-222,-196,-195,-171,-133,-98,-21,36,89,105,84,98,143,139,110,94,66,42,38,66,101,132,181,178,34,-83,-63,24,39,100,164,205,177,70,-70,-105,50,146,-660,-2479,-1624,1110,1269,848,540,208,-114,-156,-163,-214,-291,-359,-446,-499,-525,-522,-499,-483,-466,-438,-424,-405,-368,-327,-271,-184,-101,-22,62,167,310,449,538,572,583,555,499,443,364,341,356,294,139,-56,-214,-251,-232,-177,-142,-234,-251,-177,-168,-103,-11,33,67,92,119
2018-05-16,10:56:27.439,152,195,288,270,-724,-2720,-1439,1348,1431,960,679,270,-97,-151,-136,-153,-186,-182,-206,-209,-200,-185,-138,-78,-75,-94,-152,-218,-232,-225,-180,-40,161,200,-21,-147,-87,0,115,183,239,278,258,186,132,98,74,92,109,114,114,107,59,48,-26,-138,-90,-61,-18,68,91,117,152,163,192,228,266,442,194,-1416,-2741,50,1873,1598,1358,1161,628,154,108,122,112,118,6,-235,-395,-426,-430,-451,-456,-483,-512,-582,-655,-696,-684,-618,-525,-398,-254,-37,166,361,512,603,580,506,405,317,238,207,173,153,125,106,76,56,63,81,25,-91,-103,-5,117,262,346,371,315,268
2018-05-16,10:56:28.476,253,223,253,462,244,-1244,-2570,-182,1487,1242,951,719,361,114,82,60,-1,-127,-250,-308,-345,-394,-448,-500,-535,-547,-600,-657,-689,-699,-680,-600,-462,-359,-280,-162,15,176,319,395,428,449,462,467,442,417,390,381,373,332,276,231,198,227,228,157,48,-134,-279,-261,-148,-74,-75,-101,-120,-128,-148,-205,-587,-1689,-2287,270,1777,1209,767,472,15,-266,-323,-377,-419,-432,-451,-502,-522,-539,-544,-589,-621,-592,-552,-518,-531,-536,-446,-320,-219,-150,-129,-94,-23,93,197,322,451,575,539,419,335,149,6,28,56,64,54,48,13,-23,-122,-309,-349,-314,-281,-168,-60,-6,26,-6
2018-05-16,10:56:29.513,-83,-147,-158,2,-233,-1796,-3433,-790,1303,1197,945,765,350,118,119,114,87,85,80,40,1,9,8,-44,-121,-174,-241,-307,-298,-210,-212,-385,-556,-603,-423,-199,-43,111,228,277,281,250,200,166,154,192,249,301,341,350,345,358,306,170,-2,-119,-150,-176,-170,-80,-59,-53,-34,-13,66,135,199,403,-61,-1925,-2670,423,1562,1194,941,774,367,146,226,377,392,257,177,257,192,70,0,-54,-101,-131,-179,-310,-457,-558,-615,-606,-540,-453,-318,-199,-79,-17,-10,-26,2,34,63,78,96,110,131,166,202,228,221,229,252,236,128,115,167,218,271,315,341,348,339,302
2018-05-16,10:56:30.551,300,315,441,380,-699,-1911,180,1960,1513,1023,630,176,-171,-251,-298,-358,-388,-395,-399,-412,-431,-496,-533,-574,-612,-626,-681,-720,-649,-590,-430,-314,-308,-191,-1,184,328,452,527,576,585,585,590,557,532,488,432,409,379,347,294,294,317,244,275,523,760,779,724,592,461,331,260,223,125,123,66,-908,-2942,-2371,463,885,545,276,-17,-381,-493,-527,-531,-538,-539,-497,-434,-393,-376,-365,-351,-377,-419,-451,-490,-502,-502,-482,-447,-393,-324,-209,-57,92,238,362,452,517,539,598,655,682,619,490,365,275,210,154,80,36,-56,-249,-338,-332,-295,-228,-147,-117,-125,-168,-223,-247
2018-05-16,10:56:31.588,-232,-49,9,-1327,-3585,-1630,1162,1401,1217,932,476,191,170,150,98,37,-1,-29,-76,-88,-96,-132,-135,-145,-183,-177,-139,-76,68,162,182,156,162,235,363,482,559,556,474,400,303,194,120,69,27,-44,-64,-40,-60,-54,-66,-104,-199,-157,-94,-65,50,169,217,220,196,207,199,198,291,282,-761,-2335,-816,1460,1374,1116,871,515,124,12,105,306,589,702,616,419,229,73,-65,-191,-292,-379,-453,-557,-699,-832,-904,-939,-938,-849,-726,-569,-442,-348,-257,-220,-176,-102,-105,-91,-41,-7,15,19,35,56,64,63,16,-88,-105,-99,-89,-35,18,30,12,-17,-41,-57,-53,123
2018-05-16,10:56:32.625,192,-842,-2555,-755,1363,1200,904,629,286,30,-50,-157,-311,-416,-538,-628,-708,-760,-791,-814,-857,-870,-941,-1036,-1057,-1036,-1015,-933,-806,-662,-514,-338,-129,51,177,262,312,318,313,299,289,239,204,179,178,173,157,172,192,168,52,30,166,400,789,1161,1213,1025,812,588,427,283,211,29,-972,-2818,-1965,906,1154,645,314,-9,-325,-169,160,-197,-757,-1120,-1079,-796,-586,-483,-422,-400,-399,-424,-466,-501,-515,-472,-265,-300,-370,-242,-83,93,249,410,491,514,546,559,575,634,691,697,640,561,499,468,425,411,380,232,160,139,98,82,107,62,27,38,38,39,62,247,406,-876
2018-05-16,10:56:33.662,-3696,-2167,1253,1659,1398,1273,808,468,413,365,298,251,188,146,128,68,10,-42,-90,-142,-190,-222,-245,-236,-178,-56,156,368,443,434,387,398,411,388,375,361,299,202,104,10,-80,-165,-158,-122,-147,-181,-202,-314,-397,-417,-407,-374,-206,-145,60,132,89,101,137,200,364,35,-1506,-2102,441,1469,1143,970,735,413,184,86,85,86,67,90,175,203,121,-9,-153,-275,-361,-434,-498,-561,-628,-693,-756,-748,-673,-586,-428,-272,-117,-5,35,-1,-74,-157,-204,-221,-213,-197,-184,-167,-147,-137,-103,-38,-54,-85,-23,55,157,272,373,445,457,457,389,290,251,184,-443,-1958,-1462,1519
2018-05-16,10:56:34.699,1673,1084,667,227,-263,-450,-505,-511,-483,-468,-476,-474,-431,-355,-285,-220,-174,-181,-244,-374,-520,-601,-604,-583,-504,-359,-205,-31,134,270,370,406,395,364,375,390,409,412,405,400,354,385,369,303,276,196,145,163,153,207,364,390,279,150,27,-40,-71,9,191,-435,-2409,-2799,339,1533,1247,970,664,148,-5,-30,-159,-288,-377,-432,-455,-445,-402,-340,-291,-275,-272,-306,-344,-354,-348,-306,-240,-173,-77,49,192,357,461,504,483,459,420,412,375,218,2,-201,-328,-282,-99,-1,31,40,-6,-160,-187,-164,-152,-43,88,194,262,318,335,310,299,305,-94,-1575,-2761,-64,1548,1078
2018-05-16,10:56:35.737,630,380,3,-239,-239,-195,-188,-161,-146,-135,-126,-145,-152,-184,-256,-339,-379,-378,-377,-342,-277,-256,-296,-258,-206,-136,-6,144,251,344,414,416,328,208,110,22,-29,-77,-85,-85,-97,-141,-179,-255,-433,-475,-411,-322,-199,-97,-48,-17,21,42,92,138,242,108,-967,-2143,-129,1668,1381,1063,799,442,139,49,10,13,-12,-40,-123,-306,-496,-574,-507,-475,-500,-560,-620,-670,-718,-695,-639,-540,-391,-221,-12,184,340,458,498,479,451,415,353,308,242,177,156,193,243,246,218,190,177,117,64,126,176,207,302,337,304,236,184,143,77,146,400,-39,-1806,-2036,914,1389,876,563
2018-05-16,10:56:36.774,400,92,0,12,-4,-87,-164,-203,-244,-282,-299,-321,-362,-403,-444,-465,-495,-526,-519,-462,-402,-304,-210,-57,119,264,408,515,576,602,600,596,583,560,553,568,555,501,426,380,260,158,103,1,-61,-75,-220,-364,-283,-153,-96,-48,-26,6,7,27,-26,-801,-2538,-1723,1549,2038,1466,1106,707,212,76,35,-39,-109,-189,-277,-361,-440,-478,-521,-556,-589,-546,-492,-501,-530,-536,-487,-397,-301,-196,-106,28,152,218,291,418,556,699,818,705,579,385,154,80,102,106,123,164,195,72,-93,-127,-160,-195,-146,-115,-119,-128,-146,-176,-211,-199,-162,-690,-2234,-2288,542,1218,773,498,285
2018-05-16,10:56:37.811,-79,-186,-150,-161,-176,-192,-234,-254,-295,-320,-393,-461,-538,-601,-678,-748,-778,-781,-790,-789,-753,-664,-521,-370,-225,-139,-71,-69,-124,-145,-196,-252,-296,-308,-279,-198,-140,-123,-123,-165,-193,-220,-320,-392,-411,-420,-395,-324,-246,-181,-145,-171,-62,77,187,256,-648,-2555,-1395,1146,1224,931,712,460,191,188,309,475,432,216,26,-93,-161,-198,-224,-227,-241,-266,-335,-420,-469,-479,-427,-316,-187,-45,152,343,485,585,661,692,677,687,688,668,662,667,657,665,679,691,715,732,756,736,579,535,567,588,671,731,679,606,487,389,373,415,486,79,-1443,-2873,-230,2297,1967,1333,897,288
2018-05-16,10:56:38.848,-81,-128,-160,-194,-219,-194,-166,-141,-108,-101,-182,-285,-383,-448,-441,-433,-468,-511,-489,-429,-313,-182,33,250,380,464,549,599,587,579,561,462,390,325,243,177,148,236,388,469,372,117,-226,-416,-344,-190,-21,78,142,179,166,78,-32,-49,11,-567,-2387,-2665,404,1333,911,593,314,-128,-321,-308,-278,-263,-233,-227,-235,-225,-210,-212,-213,-221,-267,-306,-340,-378,-374,-350,-284,-193,-118,-56,60,201,346,448,494,448,321,186,114,110,101,105,104,70,41,-5,-83,-86,-89,-171,-191,-131,-104,-18,58,67,-4,-75,-108,-102,-85,-36,-100,-1004,-2548,-1187,1170,1067,806,633,405,136
2018-05-16,10:56:39.885,54,4,-63,-118,-150,-187,-195,-242,-285,-296,-254,-94,58,-105,-406,-567,-640,-615,-578,-524,-445,-330,-212,-138,-81,-16,-5,-16,-6,-1,-17,-26,-44,-58,-58,-62,-56,-54,-74,-52,-47,-129,-144,-84,-29,56,175,246,279,291,285,293,310,443,427,-831,-2834,-858,1758,1601,1198,954,477,-152,-480,-650,-734,-694,-597,-504,-470,-472,-469,-487,-512,-530,-505,-458,-404,-337,-221,-58,89,165,181,207,275,341,414,420,367,327,304,300,313,349,369,358,326,274,260,225,197,159,147,-31,-166,-142,-16,248,383,329,325,316,217,59,-75,69,26,-1280,-2847,-531,1756,1483,930,549,49,-232
2018-05-16,10:56:40.923,-252,-276,-319,-357,-386,-379,-387,-432,-447,-440,-432,-444,-457,-465,-460,-458,-407,-313,-200,-81,42,202,380,513,602,671,695,619,500,443,423,391,384,420,449,381,231,103,54,59,27,-55,-49,-26,-31,14,45,30,-20,-43,-35,-12,16,78,-167,-1310,-1933,587,1733,1125,671,347,-17,-214,-234,-204,-176,-186,-263,-317,-323,-318,-292,-241,-229,-240,-263,-306,-329,-320,-275,-178,-79,52,238,399,469,480,475,437,426,391,375,376,401,458,494,396,239,106,13,-37,-61,-107,-260,-358,-338,-330,-296,-230,-163,-124,-99,-73,-49,-27,-9,-42,-621,-1892,-1214,1087,1282,944,744,536,243,145
2018-05-16,10:56:41.960,180,151,25,-36,-66,-130,-168,-135,-89,-115,-300,-516,-714,-745,-602,-511,-488,-397,-279,-179,-117,-29,70,79,111,145,166,179,127,61,1,-34,-53,-43,-47,-74,-85,-46,-21,-40,-56,-62,-60,-49,-5,54,40,42,84,103,112,128,184,-157,-1248,-1249,969,1536,1150,988,838,530,266,133,76,8,-22,-47,-69,-67,-131,-283,-468,-621,-747,-863,-956,-1001,-1002,-969,-901,-817,-684,-561,-437,-323,-214,-91,-22,24,36,27,25,70,141,192,232,279,310,292,268,272,255,127,71,86,101,128,198,274,388,389,236,88,-27,-150,-428,-1181,-1986,-71,1894,1509,929,445,-83,-433,-477,-451
2018-05-16,10:56:42.997,-409,-335,-313,-330,-365,-415,-482,-561,-610,-609,-621,-652,-677,-608,-524,-459,-364,-256,-98,89,233,360,445,564,584,541,494,374,275,233,217,194,258,360,306,42,-203,-257,-371,-398,-323,-278,-252,-146,-125,-159,-201,-251,-275,-332,-301,-399,-1469,-3372,-1720,1114,1070,576,319,-68,-372,-386,-372,-375,-410,-440,-435,-484,-479,-389,-320,-325,-335,-335,-377,-372,-378,-428,-440,-425,-384,-251,-29,168,230,159,42,0,52,158,195,194,187,146,108,98,107,150,218,345,484,470,450,509,489,475,482,428,334,232,158,138,164,311,547,-264,-2602,-2397,1007,1725,1434,1246,992,534,351,350,296,215
2018-05-16,10:56:44.034,165,219,299,428,658,696,372,95,-150,-375,-485,-496,-396,-248,-155,-111,-69,16,133,257,358,451,529,567,549,542,538,513,483,442,406,383,357,328,338,335,222,155,174,188,228,312,346,359,368,363,380,404,476,444,-544,-2488,-1097,1763,1641,1220,916,352,-318,-654,-730,-638,-547,-536,-533,-527,-561,-630,-722,-796,-843,-876,-855,-793,-700,-617,-515,-410,-337,-279,-181,-66,19,45,58,58,32,-5,-28,-43,-108,-108,-93,-78,-49,-73,-91,-100,-107,-223,-257,-238,-233,-145,-23,44,155,354,562,485,241,239,-278,-2112,-3001,-30,1479,1131,750,431,8,-203,-177,-175,-182,-169,-153,-174
2018-05-16,10:56:45.071,-184,-199,-217,-256,-265,-266,-302,-335,-358,-346,-293,-224,-149,-51,107,330,547,701,815,859,854,820,748,674,604,559,492,486,507,484,317,110,30,-15,-136,-190,-135,-115,-1,138,155,131,92,64,87,164,297,317,-540,-2479,-1065,2115,1933,1289,950,494,29,-108,-187,-221,-241,-239,-238,-223,-238,-245,-247,-258,-277,-330,-403,-407,-419,-424,-391,-344,-203,6,273,527,657,690,612,538,495,412,342,348,367,410,424,349,202,44,-81,-118,-127,-263,-337,-303,-262,-238,-173,-113,-89,-58,-30,0,51,159,57,-885,-2342,-805,1322,1226,961,782,514,202,135,109,37,-37,-143,-221,-274,-262
2018-05-16,10:56:51.745,-12,-15,-67,-152,-267,-337,-410,-506,-596,-628,-558,-448,-412,-449,-446,-392,-320,-155,68,175,217,245,238,200,135,112,142,188,231,294,357,437,438,310,274,257,165,84,19,-49,-90,-123,-135,-132,-58,264,277,-1259,-3590,-1232,1419,1339,1073,897,489,76,-73,-143,-85,69,240,293,239,-11,-247,-235,-268,-342,-376,-368,-354,-345,-377,-455,-508,-514,-411,-280,-117,-1,54,79,104,120,128,143,142,132,134,159,192,201,186,189,206,149,69,67,97,146,257,304,330,329,336,327,284,220,163,-384,-1806,-1400,1417,1777,1029,484,127,-256,-397,-395,-425,-450,-461,-506,-583,-638,-649,-638
2018-05-16,10:56:52.733,-628,-626,-603,-603,-654,-707,-722,-715,-657,-590,-510,-327,-91,101,259,389,418,384,396,449,469,443,390,341,332,323,283,245,219,142,-1,-24,94,260,392,467,430,345,208,100,89,157,283,-11,-1369,-1997,579,1643,1079,575,164,-329,-556,-563,-574,-580,-581,-580,-589,-588,-557,-527,-507,-494,-487,-502,-542,-556,-514,-426,-306,-181,-43,92,251,403,499,508,489,470,435,398,378,372,343,180,-31,-151,-161,-160,-133,-115,-172,-164,-94,-78,-52,32,45,58,74,114,158,210,339,372,-687,-2843,-1304,1619,1560,957,662,250,-65,-72,-72,-108,-111,-58,-48,-79,-66,-81,-99,-152,-196,-244
2018-05-16,10:56:53.770,-316,-349,-407,-430,-353,-188,-43,16,181,313,287,172,54,39,140,214,270,277,269,235,215,186,131,50,7,-33,-209,-289,-256,-237,-215,-176,-113,-41,8,14,38,108,298,258,-1039,-2956,-990,1655,1618,1276,1050,635,284,246,215,168,160,140,43,-65,-150,-195,-235,-315,-543,-801,-834,-825,-764,-678,-595,-478,-321,-169,-31,104,222,320,396,430,455,507,529,534,456,375,273,175,103,67,88,84,-6,-66,-26,51,94,137,132,140,161,145,164,179,304,213,-1039,-2738,-551,1410,1242,1136,1009,829,599,467,388,278,152,52,10,-17,-54,-152,-333,-528,-718,-870,-969,-1056,-1118,-1173
2018-05-16,10:56:54.807,-1146,-1052,-941,-858,-766,-644,-537,-423,-349,-294,-243,-209,-192,-176,-170,-176,-179,-184,-156,-129,-137,-154,-274,-346,-313,-326,-313,-307,-320,-336,-355,-287,-198,-146,-182,-604,-1969,-3163,-562,1688,1347,687,163,-433,-717,-702,-648,-583,-515,-408,-296,-209,-158,-178,-186,-236,-357,-507,-635,-685,-612,-487,-349,-180,41,216,390,528,652,813,914,952,965,953,920,900,873,836,765,960,1162,1155,1178,1273,1234,1169,1142,1081,1019,1058,1080,1045,952,868,780,686,747,794,-364,-2855,-1738,1629,1899,1634,1524,1093,567,401,241,197,255,298,271,221,188,167,127,120,94,94,109,117,124,193,265,265,294,417
2018-05-16,10:56:55.844,657,849,1031,1170,1251,1310,1429,1506,1421,1301,1145,1029,873,617,452,547,600,511,450,782,2314,4278,3244,929,-441,-844,-761,-422,46,266,596,891,148,-1701,-550,1493,1229,698,371,-58,-922,-1297,-1485,-1626,-1683,-1777,-1755,-1270,-841,-1781,-2366,-2138,-1855,-1868,-1929,-1821,-1681,-1550,-1397,-1210,-1017,-846,-491,284,1959,4308,6308,5996,3363,1120,-95,-746,-1056,-1207,-1320,-1351,-1265,-1173,-1041,-844,-854,-937,-1061,-1091,-1078,-1026,-1022,-978,-930,-946,-859,-647,-572,-571,-956,-2081,-1280,1179,1241,674,188,-226,-663,-863,-973,-1001,-984,-750,-170,171,-351,-1624,-1712,-1283,-1002,-646,-326,-343,-75,-525,-824,-328,586,1042,749,1107,797,-231
2018-05-16,10:56:56.881,-372,-213,-193,-263,-290,-52,541,-48,-1034,-1632,-1609,-1198,-982,-841,-440,-418,-735,-917,-1061,-951,-739,-450,-266,-154,8,639,2142,3866,4003,661,-2158,389,1592,868,284,-137,-597,-723,-744,-766,-678,-552,-464,-458,-572,-522,-499,-561,-596,-593,-579,-557,-589,-529,-394,-168,-16,71,178,313,480,592,592,588,586,660,689,566,392,346,385,407,683,303,-722,-1452,-1495,-714,-304,80,445,616,825,932,1252,1669,957,465,188,249,438,-247,-2246,-2358,-184,635,1169,-100,-1638,-1627,-1061,-861,-798,-723,-614,-438,-403,-360,-348,-197,554,2285,4079,5434,5398,3149,994,-212,-890,-1246,-1336,-1228,-1057,-848,-701,-538,-445,-468
2018-05-16,10:56:57.919,-455,-419,-472,-473,-446,-461,-405,-336,-254,-117,-14,-144,-198,-224,-336,-293,-225,-227,-176,-97,55,111,-20,-10,-55,-1091,-2617,756,3657,1918,300,-370,-689,-743,-753,-180,495,572,1564,1147,-15,-263,-298,-521,-761,-899,-873,-340,-945,-1331,-671,-1878,-2518,-2182,-1924,-1303,-841,-811,-279,155,-713,-1045,-636,-380,-99,172,394,564,1171,2752,4421,4357,3076,1130,-270,-919,-1132,-1202,-1051,-850,-607,-314,-150,-184,-213,-206,-257,-779,-2312,-2511,733,1854,1268,865,570,27,-199,-165,-161,-201,-305,-399,-447,-531,-584,-590,-591,-532,-417,-459,-433,573,560,-751,-1682,-2506,-1894,-901,-126,541,1180,1867,1631,2462,2318,434,78,542
2018-05-16,10:56:58.956,519,274,110,471,1261,385,-1053,-1426,-1446,-1275,-863,-560,-651,-457,-374,-620,-534,-417,-228,62,68,-1130,-2258,1314,4820,5658,4961,2657,676,-305,-554,-624,-646,-655,-564,-488,-446,-422,-431,-443,-544,-624,-661,-718,-744,-686,-558,-330,-144,80,245,367,571,727,732,726,665,602,542,493,477,360,333,486,538,1116,1998,1965,937,-580,-1185,-922,-573,-84,531,1064,2269,2104,758,1331,1243,-110,-589,-1912,-3577,-1413,754,866,352,-194,-1037,-1718,-1611,-1034,-204,-659,-1426,-1572,-1400,-1195,-763,-427,-390,-464,-432,-277,731,3039,4439,3580,1403,-294,-887,-855,-767,-715,-623,-479,-334,-164,-43,-47,-86,-87,-83,-9,63,93
2018-05-16,10:56:59.993,87,161,78,114,318,320,355,414,406,326,263,253,267,172,-18,-182,-969,-2293,-380,2242,2001,2378,3073,2288,92,-1539,-1594,-1017,-331,263,651,1127,1831,2286,1599,-214,-532,-320,-751,-1088,-1153,-1168,-261,84,-1311,-1146,-1743,-2431,-1999,-1515,-1222,-927,-257,-73,-793,-913,-544,-366,-112,289,1153,2903,4720,5679,4991,2509,346,-690,-1020,-1048,-882,-679,-494,-434,-519,-627,-841,-1515,-2976,-2253,592,789,155,-171,-356,-506,-624,-784,-893,-868,-798,-757,-593,-597,-864,-969,-737,-562,-425,-555,-526,-47,2259,4406,2818,364,-223,-868,-909,75,870,1424,2360,2248,1764,1875,324,-930,-868,-943,-1285,-1026,-580,301,-175,-2111,-3668,-3593
2018-05-16,10:57:01.030,-2616,-1898,-1515,-1112,-492,-1644,-1689,-907,-1045,-933,-1632,-3508,-1849,1757,5032,7388,6642,3093,-207,-1486,-1806,-1888,-1876,-1701,-1454,-1207,-1112,-1079,-1041,-999,-1109,-1212,-1203,-1226,-1218,-1071,-839,-564,-279,43,360,563,650,701,788,990,1095,993,720,429,92,8,360,730,1008,2448,5204,5059,2719,76,-1409,-1054,-615,-99,935,1836,2584,3074,3097,2303,1612,523,-2751,-2908,466,-1397,-2370,-1622,-1461,-1791,-1793,-1062,-594,-677,-1387,-2297,-2666,-2243,-1423,-971,-828,-742,-619,-404,-114,1183,5404,10087,12356,9168,3509,411,-644,-851,-562,-137,345,366,22,-260,-645,-1096,-1511,-1764,-1862,-1859,-1807,-1724,-1658,-1438,-1181,-973,-809,-618,-481,-419,-387,-386
2018-05-16,10:57:02.067,-489,-372,-215,-362,-1053,-2030,25,2081,1809,1947,4352,8576,8381,4591,1469,344,-102,-320,458,1775,2375,2287,1802,1204,597,-1081,-2270,-2624,-2921,-2340,-2142,-3175,-3354,-4640,-4789,-3690,-3038,-2849,-2583,-2165,-1806,-1509,-1625,-1043,-1593,-2325,-1475,-660,-482,-330,249,2763,7826,11660,10374,4151,-25,-1422,-1894,-1984,-1828,-1555,-1273,-1053,-1451,-2961,-3850,-1031,430,-169,-654,-1030,-1480,-1693,-1604,-1409,-1229,-1044,-893,-921,-881,-827,-938,-1107,-1365,-1540,-1520,-1340,-1121,-909,-738,-495,-112,1957,7993,11564,7938,2461,93,-611,-555,-81,870,1834,2569,2979,2858,1028,-362,-911,-2088,-3122,-3350,-2943,-2802,-2947,-2770,-3222,-3611,-3419,-3740,-3320,-2395,-1028,-1175,-2325,-4522,-3842
2018-05-16,10:57:03.105,-930,-289,46,229,558,2381,5838,8418,7311,3194,121,-1077,-1334,-1168,-756,-210,212,279,9,-440,-840,-1184,-1494,-1672,-1666,-1604,-1384,-964,-632,-273,-86,65,137,258,276,190,139,-103,-135,67,180,196,399,535,858,2453,5749,8084,5619,1653,683,620,648,1331,2217,2697,3038,2565,-457,-436,1324,988,-479,-1629,-2020,-2057,-2172,-1829,-1840,-2416,-3178,-3385,-3079,-2621,-2219,-1295,-1336,-1799,-2856,-2548,-1623,-1369,-1192,-963,-827,-544,403,3572,7480,8713,5780,1641,-515,-1114,-1270,-1239,-1006,-642,-350,-224,-381,-561,-658,-779,-857,-797,-795,-739,-557,-387,-191,21,158,205,212,147,-222,-1011,-1953,-5,2059,1438,823,522,35,-308,74,1910
2018-05-16,10:57:04.142,3766,3085,872,-1107,-1247,-1284,-1049,-187,788,1511,1959,2324,2757,1555,-401,-1060,-934,-1285,-1583,-1496,-1407,-1197,-111,-434,-1562,-956,-743,-2250,-2363,-1061,-905,-1408,-1289,-718,-952,-1193,-838,-606,-299,252,1983,6774,11839,11925,7757,2188,-1374,-3001,-4231,-4777,-1809,404,-9,-784,-1371,-1945,-2406,-2694,-2812,-2866,-2877,-2743,-2504,-2266,-1959,-1652,-1589,-1594,-1651,-1715,-1744,-1650,-1702,-1540,-1111,-871,-903,-757,-360,49,617,2523,6012,7766,4735,1082,247,78,150,921,1905,2370,2716,3274,2522,363,-1976,-2109,-1690,-1756,-1960,-2016,-2127,-2173,-1974,-1000,-142,-1147,-3702,-4313,-1805,-536,-86,67,123,-174,-290,-121,23,157,253,590,2060,3974,4290,2925,749,-690
2018-05-16,10:57:05.179,-1104,-1103,-1106,-1035,-779,-556,-358,-184,-20,172,449,673,793,800,821,801,767,876,977,1003,943,900,761,579,465,407,395,572,629,345,449,663,386,453,990,2692,2259,158,-2372,-4126,-1610,1322,1702,1822,1620,1131,1221,1253,-51,-564,-276,-421,-649,-704,-762,-737,-13,433,-827,-1348,-1354,-1988,-2087,-1727,-979,-544,-889,-947,-899,-637,-148,139,364,646,990,3066,8512,12142,10154,4849,597,-1337,-2053,-2402,-2284,-1914,-1547,-1280,-1181,-1204,-1372,-1483,-1400,-1407,-1494,-1587,-2217,-3266,-1549,994,803,397,122,-283,-771,-852,-846,-831,-752,-816,-784,-622,-536,-600,-277,1246,1552,-183,-1111,-1540,-1667,-1525,-1269,-840,14,882,1581,2193
2018-05-16,10:57:06.216,2824,2362,518,454,497,-164,-361,-319,-386,-52,228,-343,-858,-830,-1719,-1822,-1239,-772,-607,-572,-611,-598,-311,-32,25,145,-769,-3245,-1116,4965,7562,6474,3404,457,-1124,-1503,-1603,-1629,-1461,-1238,-1083,-985,-970,-993,-994,-959,-931,-946,-914,-898,-931,-932,-854,-647,-422,-258,-82,185,286,426,732,878,677,233,47,94,299,368,685,2267,4530,3829,858,-1060,-1251,-1010,-739,-468,491,1687,2328,2621,2519,1224,-985,-3362,-2807,-519,-146,-325,-456,-534,-721,-741,-699,-1621,-2236,-2091,-1753,-1471,-1196,-1023,-1050,-914,-653,-696,-678,-486,346,2511,4561,4759,3297,1044,-501,-982,-972,-829,-691,-560,-396,-320,-370,-416,-441,-513,-567,-577
2018-05-16,10:57:07.253,-704,-869,-802,-666,-450,-126,72,126,85,0,19,121,89,-290,-1252,-1731,531,1748,1170,786,511,351,1732,4447,4497,1938,-65,-272,-284,-569,-120,759,1303,1344,1289,1404,214,-1456,-2210,-2335,-2262,-2167,-2107,-2050,-1740,-1335,-1452,-1321,-1166,-1858,-1582,-1835,-1502,-1089,-989,-1005,-720,-437,-350,-290,-175,292,1951,3508,3383,2093,589,-357,-690,-811,-919,-1576,-3052,-1994,1718,2069,1234,665,104,-358,-451,-442,-454,-464,-416,-352,-277,-253,-191,-100,-90,-172,-185,-199,-324,-517,-679,-398,-267,-379,-397,-250,294,1565,1279,293,-785,-1247,-873,-281,505,1145,1875,2150,2251,1988,1282,844,528,92,-309,-462,-544,-551,-30,27,-895,-1280
2018-05-16,10:57:08.291,-1664,-2717,-4184,-2472,26,145,-98,342,217,-733,-659,-322,-116,371,2267,5329,7599,7185,4053,999,-577,-1274,-1667,-1815,-1857,-1713,-1512,-1313,-1211,-1108,-1011,-863,-714,-582,-415,-262,-158,67,203,204,284,311,312,340,261,45,-135,-188,-99,128,394,507,574,318,311,705,1943,3724,3286,-176,259,2634,2596,2093,2012,2282,2401,2155,1772,1274,436,-597,-850,-1767,-2399,-2081,-1872,-1729,-1840,-1369,-2055,-2859,-2823,-2802,-2704,-2172,-1539,-1291,-1439,-1372,-1059,-540,-295,-130,37,264,1358,3743,5127,4335,2167,86,-981,-1304,-1247,-1131,-1076,-730,-356,-142,-94,-119,-111,-105,-79,-499,-2112,-2770,580,2095,1606,1221,933,397,56,60,56,-74
2018-05-16,10:57:09.328,-81,-28,66,110,-68,-143,-496,-496,-236,265,842,135,-1294,-1809,-1750,-1289,-538,-16,499,1005,725,1242,1955,2105,1245,621,644,697,-51,-529,15,-82,-529,-78,-1150,-2302,-1810,-890,-931,-924,-421,-228,-677,-602,-1391,-3126,-2244,534,1130,1432,3583,7854,9407,7158,3242,-131,-1734,-2250,-2382,-2226,-1861,-1496,-1319,-1413,-1703,-1954,-2124,-2232,-2230,-2171,-2060,-1894,-1646,-1337,-976,-654,-292,32,150,214,251,243,479,540,284,227,267,214,128,281,408,809,2767,5768,5709,2575,616,214,-36,274,361,28,-396,2133,3849,2772,410,-894,-998,-1334,-1352,-1247,-1347,-1328,-690,-311,-545,-1589,-1720,-1607,-1640,-1310,-721,-735,-635,-763,-742,-360
2018-05-16,10:57:10.365,-341,-56,404,643,1899,4161,4518,3125,1562,404,-121,-248,-282,-343,-261,-34,186,171,148,149,75,24,104,146,165,143,148,253,343,381,-231,-1933,-1095,2061,2254,1503,1012,504,-184,-528,-542,-503,-432,-402,421,2552,2088,-7,-1852,-2311,-1879,-1666,-1343,-637,-291,22,430,490,13,-590,-801,-703,-582,-501,-495,-432,219,418,-45,-516,-1904,-1610,-916,-1421,-1342,-881,-816,-626,-429,-418,-232,-71,48,1182,4067,6839,6255,1723,-1595,162,1137,248,-397,-729,-936,-828,-765,-850,-1034,-1206,-1317,-1358,-1418,-1395,-1302,-1318,-1243,-1069,-875,-832,-892,-935,-809,-601,-532,-546,-573,-514,29,423,350,27,151,289,478,1609,3568,3445
2018-05-16,10:57:11.402,1645,-43,-358,-84,-266,-186,264,1030,1712,1642,1953,1567,-310,-1287,-896,-920,-2452,-4137,-2056,-41,509,511,-157,-1305,-1899,-1522,-1431,-1329,-875,-511,-839,-899,-597,-286,-192,-200,323,2326,5191,6165,4278,1263,-948,-1790,-1911,-1769,-1552,-1273,-938,-572,-446,-463,-507,-507,-485,-494,-461,-465,-414,-460,-419,-286,-148,-7,103,80,-8,-17,-69,50,191,244,-397,-2123,-1285,1677,1474,881,801,1600,1841,593,-935,-1578,-1134,-607,-135,451,1216,2222,1849,1263,1403,-123,-1055,-921,-965,-1164,-1259,-1198,-858,-498,-196,113,-2200,-2544,-1228,-791,-905,-523,-78,-175,-34,-105,-499,-349,-113,213,1144,3937,7182,7585,4446,935,-747,-1261,-1424,-1593
2018-05-16,10:57:12.439,-2175,-3138,-1301,1746,1589,634,-92,-744,-1269,-1447,-1477,-1511,-1420,-1239,-1037,-886,-837,-790,-726,-689,-785,-785,-691,-710,-740,-673,-557,-573,-1072,-829,-424,-59,641,2663,4930,4760,2875,383,-252,-75,-122,464,1458,2216,2345,2105,2225,1156,-172,-737,-1024,-1379,-1547,-1503,-641,-944,-1414,-2645,-5347,-5648,-2579,-1012,-634,-645,-440,-906,-1381,-1227,-853,-523,-393,-285,241,1342,2076,1843,1113,-81,-923,-1294,-1366,-1336,-1228,-1049,-896,-707,-504,-319,-181,36,232,298,299,315,359,383,452,557,654,686,556,286,230,464,557,488,381,467,465,302,299,340,463,553,357,-903,1034,2620,1082,739,518,269,538,1151,1742,1961,2386,2452
2018-05-16,10:57:13.477,576,-318,102,-273,-809,-732,-618,-355,-327,-1227,-1495,-1908,-2268,-1710,-1130,-731,-720,-921,-662,-341,-441,-231,124,379,842,2911,7729,11507,10643,6040,1574,-780,-1696,-1975,-1899,-1625,-1307,-1107,-1109,-1269,-1498,-1817,-2483,-3744,-2857,7,199,-311,-487,-650,-1001,-1047,-958,-1033,-1158,-1082,-945,-800,-656,-548,-548,-611,-703,-710,-556,-179,1209,3139,3375,1657,37,-667,-303,34,684,1791,2556,2663,2369,2424,1837,675,-9,-1014,-1655,-1675,-1696,-1625,-1280,-826,-1657,-2251,-2504,-2469,-1929,-1591,-1354,-926,-1193,-3054,-3893,-780,500,624,889,1740,2424,2478,2144,1212,-12,-677,-832,-857,-807,-700,-632,-573,-505,-481,-483,-530,-543,-540,-512,-379,-363,-269
2018-05-16,10:57:14.514,-81,234,496,650,789,801,754,667,538,439,379,376,456,492,245,-30,65,357,1708,2822,2009,260,-949,-1073,-513,153,499,-501,-1915,454,2539,1850,709,440,234,-156,-363,-313,204,197,-296,-288,-1214,-2150,-1709,-1144,-888,-406,-582,-188,-148,-1503,-1747,-1297,-738,-363,-2,798,3327,7440,10403,9232,4737,746,-1181,-1880,-2044,-1845,-1564,-1325,-1156,-1108,-1127,-1278,-1428,-1502,-1542,-1497,-1438,-1381,-1244,-1114,-995,-1021,-1839,-2225,253,1450,831,418,21,-414,-434,-335,-646,-635,-587,-451,-297,-17,1501,5166,6092,1398,-1785,-2078,-2302,-1699,-591,394,1358,1785,1822,2120,1136,-11,-622,-1188,-1195,-1118,-1046,-346,-472,-634,-1067,-2659,-2914,-2072
2018-05-16,10:57:15.551,-1646,-1225,-1000,-629,-1035,-1255,-862,-545,-164,-120,94,971,1289,-199,1136,3740,2326,678,-50,-628,-1005,-893,-632,-424,-358,-375,-394,-450,-473,-487,-450,-459,-435,-427,-399,-357,-354,-306,-264,-267,-314,-280,-157,29,272,588,842,708,452,372,342,337,378,1583,4416,4916,1980,-919,-1891,-1716,-1078,-232,442,1105,2016,2314,774,-110,-207,-2527,-4654,-2290,-382,-555,-360,444,-174,-1725,-2843,-2643,-1807,-1509,-1256,-854,-1029,-1455,-815,-1301,-1274,-614,-518,-363,152,1683,4292,5920,4944,2473,365,-612,-834,-703,-422,-163,5,114,128,78,-3,-126,-193,-367,-514,-481,-326,-136,131,532,653,517,584,614,573,584,389,-342,-1538,462
2018-05-16,10:57:16.588,2912,2403,1682,1271,1022,1043,2340,3853,3398,1628,-32,-335,113,439,501,1190,1367,1340,1476,1607,1474,75,-1173,-1100,-904,-877,-813,-561,224,231,-273,-1136,-2200,-1579,-797,-572,-472,-158,-210,-483,-474,-183,81,302,348,385,590,1300,2455,3256,2794,1663,574,-917,-3129,-2444,1335,1918,1119,574,49,-328,-383,-398,-424,-492,-522,-555,-528,-490,-364,-332,-356,-346,-450,-490,-497,-543,-588,-619,-457,-266,-371,-428,-213,-173,-314,247,2541,2376,164,-853,-1593,-1482,-861,-570,-411,-61,297,598,1614,1608,-385,-849,-529,-561,-635,-655,-529,-400,-982,-2605,-1334,-678,-720,-359,-455,-265,-338,-1002,-1267,-1047,-671,-410,-465,-381,-220,181
2018-05-16,10:57:17.625,2373,6808,9181,7282,3412,-72,-1919,-2497,-2524,-2303,-1896,-1464,-1184,-1140,-1259,-1363,-1477,-1547,-1572,-1602,-1563,-1410,-1116,-914,-912,-970,-894,-756,-693,-596,-457,-414,-386,-462,-537,-604,-452,-466,-1459,-2795,-324,3536,3666,2077,563,-727,-1267,-1101,-899,-459,281,949,1746,1363,1401,383,-797,-810,-775,-942,-1119,-1222,-1159,-549,-209,-767,-1445,-2051,-2054,-2031,-1523,-1064,-787,-597,-442,-238,66,86,-83,-8,276,1268,2312,2132,1052,119,-406,-553,-552,-772,-919,-803,-621,-641,-1473,-2869,-1016,2050,2017,1427,1171,637,224,174,67,18,-26,21,19,18,68,35,1,128,100,-66,-360,-544,-645,-754,-727,-307,929,1506,471,-973,-1815,-1092
2018-05-16,10:57:18.663,-463,-180,173,753,1254,1839,1867,1649,1459,405,-99,63,12,-126,-96,238,642,419,-253,-68,-597,-647,-408,-2008,-2124,-7,853,500,400,217,-301,-236,57,333,1528,4115,5334,3615,1154,-545,-1278,-1468,-1459,-1278,-904,-491,-309,-467,-698,-858,-997,-1008,-891,-712,-456,-267,-34,147,295,252,83,32,77,121,70,-13,-9,-86,-91,226,437,261,220,322,361,748,1833,1637,614,-2932,-2892,1035,1611,1119,1001,906,999,891,1182,1377,-470,-1129,-713,-719,-809,-772,-454,-147,-916,-508,-1033,-2231,-1828,-1833,-1842,-1232,-797,-1059,-1075,-606,-314,-148,81,277,382,758,1317,1372,977,245,-233,-291,-316,-246,-183,-55,146,231
2018-05-16,10:57:19.700,250,283,399,443,432,520,160,-1139,-972,1946,2753,2220,1795,1398,884,535,465,407,352,373,296,281,223,-260,-378,-190,-132,-74,1381,3976,5177,3716,1738,909,606,753,599,717,1437,2214,2917,1956,250,-965,-1333,-1358,-1324,-1715,-1628,-972,-1781,-2644,-2577,-3000,-2846,-2034,-825,-743,-1663,-2297,-2493,-1759,-1676,-3011,-1800,302,457,484,708,2099,4514,5542,3788,1260,-385,-1239,-1525,-1546,-1387,-1175,-978,-974,-1166,-1231,-1251,-1423,-1538,-1386,-1243,-1049,-836,-582,-276,57,344,439,439,406,347,365,324,343,412,397,293,391,498,389,446,2780,3548,1679,432,279,364,88,477,925,738,170,1914,3614,4614,3868,781,-1036,-895,-903
2018-05-16,10:57:20.737,-1161,-1364,-1500,-1545,-1348,-1176,-1276,-866,-1471,-1826,-2546,-2381,-1622,-1373,-1308,-1162,-955,-858,-784,-584,54,681,881,714,284,-95,-293,-403,-467,-457,-390,-269,-227,-242,-137,-57,-45,-3,58,85,78,103,171,275,475,425,-746,-2430,108,2499,2013,1353,942,494,185,179,-108,-268,-195,-203,-153,313,2095,4188,3833,1445,-245,-945,-957,-899,-1224,-438,676,1188,918,887,930,-271,-963,-1247,-1196,-1012,-999,-1037,-588,-346,-768,-1078,-2052,-2538,-1658,-1234,-1356,-1108,-703,-573,-566,-337,-146,-119,225,-306,-2466,-620,3951,3841,2303,1079,142,-550,-718,-635,-569,-456,-322,-259,-246,-251,-306,-367,-414,-452,-593,-687,-571,-520,-375,-202
2018-05-16,10:57:21.774,-81,47,-31,-32,220,376,385,529,471,587,913,501,296,700,2369,3415,2256,849,-511,-1298,-912,-416,1,650,1984,2538,1126,305,147,-2074,-3760,-844,715,668,643,1127,457,-467,-1101,-1435,-496,-629,-1111,-658,-389,-570,-916,-991,-563,-303,-367,-478,-402,167,1065,1308,643,-247,-715,-679,-437,-248,-147,-65,-49,12,72,75,138,225,122,59,114,181,237,380,443,403,404,454,452,471,532,410,-522,-1081,1174,2547,1810,846,438,50,-260,-275,196,2051,3102,2096,643,-744,-1025,-710,-783,-394,103,857,1805,1853,1285,1115,-87,-1724,-1852,-1588,-1495,-1455,-1388,-858,-351,-193,-980,-2781,-2946,-2711,-1784,-936,-1003,-1169
2018-05-16,10:57:22.811,-1093,-1356,-1460,-959,-697,-564,-415,275,1651,2550,1441,-1872,-2645,644,1192,471,-10,-390,-737,-592,-341,-247,-300,-327,-384,-489,-549,-491,-444,-389,-399,-396,-397,-486,-523,-445,-281,-163,-30,80,452,737,655,602,587,631,781,795,2248,4575,4501,1478,-998,-1822,-1122,-2,766,1347,1649,1912,2198,2697,2382,411,-734,-544,-1584,-3590,-1959,510,1211,987,455,-1082,-2074,-1230,-1334,-1280,-523,-267,-359,-370,-78,82,43,113,523,2098,4484,5395,3828,1365,-465,-1255,-1401,-1267,-991,-620,-130,280,392,251,53,-158,-367,-521,-580,-641,-618,-463,-347,-158,81,197,213,93,150,178,233,237,-170,-1687,-1814,1650,2320,1198,741,982
2018-05-16,10:57:23.849,2141,2140,600,-508,-899,-922,-730,-279,-542,-608,70,495,359,116,-53,-285,-926,-953,-748,-939,-860,-359,-281,-856,-1347,-926,-637,-927,-735,-385,-192,-188,-116,-116,-14,156,127,34,114,580,1654,2803,2900,1860,646,-170,-514,-540,-578,-556,-464,-418,-315,-211,-181,-205,-260,-312,-336,-362,-367,-299,-216,-155,-62,46,88,99,74,94,49,-112,-239,-107,-90,-320,-422,-333,-141,549,3033,3462,2358,600,-746,-910,-676,-824,-1563,-1142,1822,2743,2218,1588,420,-302,-511,-1167,-1641,-1541,-1151,-669,-794,-1573,-2073,-1946,-1875,-2118,-1684,-1202,-1311,-1094,-919,-1010,-691,-1033,-1644,-1153,-564,-333,28,1686,4561,5804,4599,2378,505,-558
2018-05-16,10:57:24.886,-1069,-1306,-1290,-1123,-944,-783,-649,-688,-707,-693,-761,-753,-714,-572,-448,-348,-626,-1754,-2998,-455,1867,1439,994,650,9,-429,-416,-29,-95,-803,-1063,-857,1429,3767,2251,-446,-1688,-1915,-1803,-1521,-910,-87,359,183,-179,6,324,258,-87,-361,-160,-91,-795,-643,398,-469,-2052,-2259,-1669,-1436,-1229,-1049,-959,-797,-576,-340,-131,-199,-115,35,431,746,224,300,4498,6809,5015,2639,1107,119,-389,-567,-541,-428,-208,-48,-15,-31,-140,-354,-545,-715,-831,-875,-853,-748,-679,-493,-247,-43,97,197,432,646,772,815,604,474,638,669,821,873,1114,2330,3140,2729,1366,457,325,456,738,1193,1700,2129,2120,1904,771,-1293
2018-05-16,10:57:25.923,-1443,797,899,202,11,407,-93,-593,-1090,-2090,-2000,-1513,-1214,-853,-748,-872,-875,-773,-1024,-1499,-1309,-938,-765,-637,-395,460,2338,4189,4494,3355,1647,376,-237,-503,-667,-664,-599,-408,-181,-165,-386,-533,-664,-814,-821,-767,-725,-630,-520,-418,-325,-262,-321,-1016,-2346,-336,2250,1784,833,157,-128,-378,-535,-704,-751,-543,501,2350,2709,1584,49,-878,-1087,-898,-279,-611,-815,-368,67,205,364,-143,-639,-573,-1092,-1155,-849,-698,-717,-462,-198,-826,-1222,-769,-1355,-1906,-1498,-1088,-861,-600,-442,-325,-290,-202,194,1314,2776,3442,2334,1245,2618,2199,935,129,-356,-645,-642,-526,-390,-345,-402,-634,-906,-1026,-1217,-1310,-1369,-1348
2018-05-16,10:57:26.960,-1292,-1147,-1122,-1042,-967,-978,-802,-850,-738,-451,-289,-176,-7,31,47,-92,-156,1702,3216,312,-2646,-2559,-1908,-1590,-1024,-943,-999,-779,-582,-562,-342,-12,339,669,-950,-2913,-1137,1200,1121,1016,1958,1380,-1,-761,-747,-831,-721,-407,-397,-16,-208,-671,-284,-508,-603,-334,-50,694,2340,4360,5046,3405,1180,64,-290,-274,-141,-12,116,284,415,393,236,81,-128,-427,-520,-410,-332,-265,-89,-16,89,161,212,282,304,226,-253,-1357,46,2888,2619,1508,861,459,-305,-455,-273,-86,806,3117,3866,1788,-737,-1620,-1509,-1253,-1073,-509,436,1476,1785,1721,790,-441,-812,-709,-670,-625,-608,-672,-715,-592,58,-27,-1311,-1625
2018-05-16,10:57:27.997,-1139,-923,-927,-801,-695,-576,-350,-60,-24,3,767,2425,4367,5304,3831,283,-1999,381,1812,1147,556,307,99,89,101,-26,-288,-543,-766,-1026,-1151,-1245,-1374,-1388,-1346,-1326,-1354,-1309,-1268,-1181,-1026,-891,-818,-713,-484,-218,-54,-30,16,172,694,3143,5296,4447,2087,438,-314,-595,-581,-318,81,388,497,397,421,249,-92,203,289,-991,-2585,-3805,-2149,-356,-14,414,-302,-853,-1890,-1820,-1340,-843,-1610,-1495,-1235,-1455,-1272,-977,-885,-797,-360,433,1052,1192,695,-260,-743,-913,-995,-838,-517,-288,-113,14,148,227,118,95,86,53,-3,-25,-102,0,166,243,413,496,466,444,502,309,122,151,-98,-1085,-1438,1401
2018-05-16,10:57:29.035,2408,1668,1148,683,378,1688,3671,3204,1128,-572,-1293,-1552,-1025,-772,-617,-56,354,414,416,69,-879,-1101,-1204,-1797,-1762,-1470,-1046,-699,-926,-323,-423,-1629,-1844,-1584,-1120,-489,-253,-714,-869,-820,-1247,-908,-328,-75,27,201,1356,3502,4789,4084,2115,-365,-2969,-2224,807,935,331,54,-116,-277,-336,-396,-434,-594,-729,-821,-819,-814,-739,-664,-552,-496,-377,-424,-470,-453,-450,-456,-399,-334,-332,-270,178,476,481,565,1167,2410,2482,1488,429,-452,-385,-36,156,625,1658,1967,1887,2157,1914,572,117,233,15,-24,-309,-1294,-1884,-734,612,602,-479,-676,-627,-515,-315,-137,-114,-406,-434,-229,-138,-154,-154,-38,524,1307
2018-05-16,10:57:30.072,1754,1472,563,-247,-654,-807,-799,-694,-479,-211,67,239,331,332,275,207,183,118,79,102,-18,-8,103,155,235,360,431,443,521,570,572,620,434,-292,-1721,-708,1850,1719,1148,802,1088,3084,4765,3391,534,-1130,-1402,-1163,-641,-557,-799,72,-13,-13,207,72,-231,-407,-449,-942,-1580,-1461,-1023,-1264,-1241,-664,-892,-1479,-1087,-649,-816,-1179,-819,-642,-991,-768,-474,-140,-63,221,1052,1703,1949,1689,864,124,-315,-677,-1361,-2375,-930,1856,2020,1311,720,109,-366,-486,-519,-556,-500,-428,-352,-253,-249,-264,-358,-373,-285,-203,-254,-307,-430,-563,-591,-426,-311,-558,-460,244,1803,3288,2960,1602,-39,-477,-334,282
2018-05-16,10:57:31.109,180,-775,-781,77,653,658,460,521,716,-32,-484,-358,-453,-98,141,-1004,-2917,-4018,-1401,361,864,733,305,239,-43,-807,-1138,-688,-205,-113,-120,-123,-11,585,1264,1340,506,-377,-857,-990,-888,-700,-542,-416,-268,-107,132,349,466,503,471,468,446,459,463,405,425,347,250,256,341,332,370,415,442,442,450,570,774,449,-442,-2332,-2345,1233,2187,3502,4476,3004,928,-629,-1036,-629,-335,-851,-574,-461,-506,-64,222,261,107,-486,-669,-405,-1028,-1373,-628,-776,-1328,-881,-893,-783,-339,-613,-297,-1037,-1295,-644,-664,-564,-184,-154,-123,-142,-44,241,1626,4529,5633,3541,1182,-60,-609,-816,-956,-1819,-3314,-1349
2018-05-16,10:57:32.146,2108,1783,851,202,-431,-807,-852,-852,-855,-830,-710,-631,-635,-621,-624,-644,-608,-602,-682,-690,-488,-440,-583,-691,-894,-716,-292,732,2504,2741,1158,433,429,-198,-98,416,1010,1687,2361,3360,3774,1954,347,-332,-443,-723,-1022,-1239,-1318,-1317,-1115,-967,-1435,-2970,-3492,-1197,-930,-1038,-591,-367,-812,-930,-714,-536,-415,-143,262,611,789,653,242,-282,-610,-731,-830,-832,-733,-591,-422,-218,-53,0,-29,11,136,141,158,151,214,338,405,359,306,373,360,369,516,560,541,672,949,964,580,429,398,335,386,0,-1362,65,5905,8523,6185,2532,162,-748,-569,30,-412,-205,251,107,490,858,607,3,-420,-1216
2018-05-16,10:57:33.183,-1642,-1232,-1662,-2039,-1485,-1121,-1475,-1531,-1685,-1527,-1667,-1802,-1218,-662,-538,-796,-837,-695,-990,-894,-496,-360,-40,1100,3205,5229,5196,3469,1285,-175,-915,-1155,-1143,-1249,-1754,-2585,-933,1261,1054,315,-259,-828,-1120,-1178,-1166,-1082,-1003,-882,-705,-571,-510,-478,-633,-734,-703,-823,-837,-816,-624,-487,-567,-653,-515,-159,943,3451,4914,3453,833,-537,-628,-441,-207,275,930,1290,893,550,-214,-1380,-1294,-899,-814,-821,-830,-411,148,139,14,-2416,-4865,-3236,-221,618,910,233,-325,-548,-754,-743,-609,-595,-407,-180,110,1320,2604,2735,1285,-344,-1111,-1455,-1534,-1372,-1150,-953,-716,-511,-263,1,149,258,383,485,518,498,458,494
2018-05-16,10:57:34.221,449,478,416,262,228,216,499,561,468,405,301,-168,-306,-76,213,-47,-1733,-1464,5322,9095,6985,3456,1114,-531,-868,-730,-849,-507,-242,491,1477,1238,177,-758,-1723,-2472,-2587,-2582,-2621,-2466,-1655,-1974,-2214,-1875,-3030,-3157,-2409,-2033,-1698,-1261,-1226,-1175,-1031,-853,-685,-498,-71,1077,2288,2447,1621,315,-606,-971,-979,-839,-686,-517,-380,-653,-1594,-1109,1267,1516,861,459,142,-157,-268,-166,-34,46,128,285,317,376,389,245,170,261,351,406,367,432,388,384,508,633,1028,2274,5727,8536,6341,3077,958,10,259,336,875,1617,1942,1796,1678,1895,95,-1928,-2093,-1533,-1375,-1370,-1343,-1202,-538,-538,-2365,-2843,-1062,-922
2018-05-16,10:57:35.258,-661,93,8,-238,-236,-139,-46,55,150,147,297,1244,2150,1884,871,-416,-1028,-1054,-972,-796,-642,-492,-346,-136,105,296,481,557,581,578,576,527,496,441,375,341,269,120,61,67,97,252,426,516,461,395,254,130,110,-107,-1309,-2719,1134,5944,6041,2504,-320,-1154,-920,-517,-366,-523,-143,172,356,576,910,333,-622,-1198,-1711,-2019,-1989,-1768,-1082,-755,-1475,-1590,-2236,-2172,-1554,-1342,-1114,-929,-838,-661,-615,-762,-709,-451,-463,-352,293,592,335,316,98,-256,-441,-507,-553,-538,-637,-1098,-2163,-1612,973,1371,931,567,230,-233,-344,-315,-274,-224,-214,-189,-127,-131,-124,-147,-244,-455,-579,-596,-709,-786
2018-05-16,10:57:36.295,-749,-670,-419,-287,151,1968,5136,5602,3078,1085,123,-359,-454,-594,-335,163,929,1937,1620,595,524,-98,-909,-1243,-1268,-1008,-1051,-1196,-281,-1091,-3966,-5157,-2059,-305,64,-21,-743,-1230,-1124,-1215,-1174,-880,-666,-400,-387,-300,333,1716,2749,2065,549,-457,-1108,-1419,-1394,-1302,-1101,-792,-388,-33,136,269,298,216,146,82,68,130,145,186,129,-34,-53,-64,-43,76,118,163,184,166,382,542,250,-502,-2387,-2253,1249,3263,4850,3182,1236,-16,-968,-659,-666,-1107,-1247,-867,-145,280,323,82,7,-440,-865,-1109,-796,-661,-817,-351,77,-723,-991,-376,-416,-474,84,366,-161,-77,-198,-355,47,244,76,51,108,188
2018-05-16,10:57:37.332,607,1753,2608,1937,663,-14,-225,-261,-558,-1984,-3113,108,2266,1704,1041,658,221,26,47,34,53,12,-61,-70,-38,21,35,14,14,-31,-119,-239,-331,-222,-173,-162,-53,170,334,259,451,677,1559,3304,2892,1303,19,-408,28,-136,-600,-357,606,1749,2564,3168,3062,1417,146,-83,-564,-918,-1119,-2372,-3174,-725,768,-231,-431,-1480,-2120,-1536,-1161,-1141,-820,-642,-670,-1212,-991,-673,-467,-209,866,3140,4845,4125,2108,358,-619,-999,-1126,-1051,-816,-532,-185,50,72,-37,-233,-428,-617,-762,-835,-989,-1004,-965,-880,-652,-476,-361,-341,-241,-131,-230,-392,-595,-1230,-2224,-610,1514,1230,815,642,1471,3058,2023,593,74
2018-05-16,10:57:38.369,-145,-538,-1127,-1007,-427,50,238,169,65,729,178,-1512,-1489,-1150,-1317,-1288,-1079,-611,240,534,-712,-1813,-1399,-594,-275,-13,69,-405,-719,-666,-472,-496,-299,150,273,287,354,884,1921,2361,1865,439,-2063,-2594,1050,2086,1091,478,128,-225,-215,-60,-85,-128,-84,-70,-135,-188,-268,-242,-263,-201,-232,-245,-262,-265,-227,-132,-20,47,246,560,541,301,383,728,540,649,1414,2380,1852,979,328,52,480,999,1010,848,1380,2325,2562,1990,1378,1083,552,-912,-1885,-616,616,-376,-1466,-1489,-1214,-1271,-1275,-967,-542,-787,-1251,-1608,-1369,-956,-708,-633,-557,-304,418,2098,4277,5153,4154,2361,921,169,-161,-259,-306,-356
2018-05-16,10:57:39.407,-331,-239,-266,-461,-747,-917,-1094,-1350,-1440,-1424,-1338,-1241,-1032,-834,-649,-634,-578,-544,-511,-802,-1811,-2475,-228,1143,776,464,82,-141,-135,310,1446,1421,835,68,-475,-571,-245,-56,-300,-645,-524,13,612,482,-77,-162,-640,-1519,-1900,-1618,-1270,-1115,-650,-306,-584,-1169,-1688,-1765,-1337,-967,-913,-1314,-1370,-1187,-916,-652,-490,-326,-269,-286,-89,782,1840,737,-2495,-1286,1815,1465,744,419,40,-243,-148,-7,71,121,129,72,67,99,108,43,-17,-42,-24,-11,-64,-40,66,248,392,529,686,874,933,902,1175,1499,1423,1205,1307,1449,2223,2952,1633,380,-9,130,336,724,1012,1389,1293,1174,1888,2272,584,-1427
2018-05-16,10:57:40.444,221,2015,1253,883,802,660,574,427,862,1384,110,-313,-974,-1062,-520,-184,-46,8,40,83,45,59,97,283,1053,2235,2851,2508,1498,677,284,182,96,53,11,17,142,231,100,-44,-79,-108,-73,-50,-78,-155,-160,-98,-35,-36,-48,-677,-1903,-303,1748,1375,841,506,-57,-314,-359,-390,-466,-447,-395,-105,779,836,162,-337,-1481,-1446,-1098,-979,-682,-233,160,911,562,-246,-377,-993,-1107,-728,-616,-659,-611,-411,-269,-246,-335,-315,-1474,-2380,-1538,-935,-924,-884,-792,-755,-650,-535,-444,-482,-1263,-2650,-778,2441,2399,1366,275,-614,-1101,-1168,-1115,-1014,-924,-810,-709,-668,-749,-830,-826,-958,-1034,-1100,-1197,-1115
2018-05-16,10:57:41.481,-1040,-1004,-847,-713,-638,-442,-233,-99,-158,-51,-1,26,251,274,215,146,-254,-564,134,2928,3667,1667,391,-123,-372,-363,-329,-594,-655,-824,-1734,-606,1154,1580,1683,-214,-1415,-1083,-702,-608,-691,-504,452,275,-1131,-1547,-1063,-1041,-1267,-843,126,-81,-611,-580,-1521,-1319,-588,-100,-60,168,855,962,552,303,108,85,58,53,221,189,-20,-52,-27,68,209,418,548,578,610,689,696,837,625,-839,-1939,892,2639,2069,1535,1169,641,272,229,320,382,300,-110,-764,-697,-332,175,2513,2506,125,-1357,-2847,-2158,-1231,-893,-345,219,750,1560,1573,1387,1256,-261,-665,-37,123,-74,-128,23,1004,986,-673,-1619,-1455
2018-05-16,10:57:42.518,-896,-522,-343,-79,-21,-98,-9,-51,-1597,-3743,-1251,1214,1785,1894,1406,159,-501,-427,-257,-149,-80,-29,29,105,127,111,80,37,-51,-174,-264,-321,-335,-346,-236,-103,65,254,425,518,587,670,760,710,561,266,270,528,226,91,129,140,207,506,2045,3074,1926,589,-257,-311,-222,-1572,-2471,747,2615,2666,2240,1540,1034,211,-558,-1150,-1231,-1179,-1398,-992,-523,-702,-1453,-2515,-2278,-1755,-1632,-1410,-1323,-1315,-1225,-1011,-869,-793,-590,-306,107,1178,2846,3663,3024,1669,358,-361,-628,-751,-793,-647,-423,-174,-15,-66,-209,-376,-514,-558,-606,-726,-1291,-2493,-1238,1305,1266,784,458,73,-289,-376,-338,-408,-464,-314
2018-05-16,10:57:43.555,-230,-390,-414,-389,-385,-211,211,962,654,67,-892,-1061,-1035,-1268,-761,42,464,888,1477,979,376,597,633,198,-186,45,107,194,338,425,482,9,-491,-753,-469,-95,10,-98,39,-392,-2235,-1885,725,1250,1029,853,732,686,785,565,447,-191,-547,-601,-494,-461,-466,-478,-469,-489,-496,-499,-534,-498,-416,-345,-288,-134,80,381,603,738,823,868,843,661,393,396,383,378,433,445,360,365,502,580,591,508,519,898,2696,5008,4248,-123,-2602,-168,754,539,307,209,252,791,1221,683,94,-91,-725,-1209,-1294,-1301,-1129,-628,-826,-1128,-846,-1703,-2188,-1770,-1814,-1648,-1329,-1310,-1344,-990,-631,-384,-80,106
2018-05-16,10:57:44.593,232,470,1621,2828,2960,2049,633,-329,-761,-868,-791,-691,-546,-349,-275,-251,-311,-631,-1750,-2762,15,1928,1288,796,490,-151,-396,-357,-259,-284,-495,-563,-504,-265,-402,-660,-681,-706,-733,-349,-5,1500,1379,-554,-1340,-1346,-1140,-442,125,-815,-821,68,681,847,973,1247,566,31,-447,-1118,-1060,-638,-468,-427,-156,102,-287,-92,122,-816,-1080,-1868,-3006,-806,1133,910,778,642,335,471,1398,2410,2516,1253,17,-567,-740,-750,-664,-616,-532,-405,-355,-315,-322,-208,-185,-223,-181,-89,145,403,610,729,760,772,841,927,942,972,987,966,1005,988,1038,1062,1119,1125,1167,1280,1683,4017,7944,7213,2048,-1108,515,1156
2018-05-16,10:57:45.630,991,918,1128,1520,1567,1373,1140,67,-931,-1255,-1709,-2001,-1964,-1728,-1726,-1714,-1667,-2239,-2046,-1663,-1851,-1961,-2021,-1364,-1011,-1484,-1858,-1439,-703,-436,-271,-168,-45,525,1971,3093,3051,2010,735,-234,-630,-719,-735,-605,-507,-388,-244,-219,-583,-1750,-3209,-456,1762,1225,714,413,-101,-436,-460,-353,-279,-251,-144,-106,-161,-346,-490,-669,-911,-715,-738,-876,-566,-297,807,1216,-300,-825,-524,-460,-198,266,-15,-57,488,1409,1690,1473,1586,710,-849,-1100,-768,-583,-496,-444,-92,492,6,-489,-1699,-1112,-1417,-3363,-1871,290,319,326,303,158,-84,-109,22,322,1201,2776,3997,3189,1481,-27,-793,-1046,-1110,-1119,-999,-785,-532,-311
2018-05-16,10:57:46.667,-291,-448,-513,-451,-306,-271,-160,-102,-80,-38,94,220,255,231,154,64,-32,-45,40,152,199,187,172,111,219,368,358,151,183,2167,2844,1451,983,469,-458,-689,-350,86,549,1122,767,-104,202,-15,-1162,-1257,-841,-1186,-1555,-1337,-959,-636,-722,-1754,-1315,-1242,-1704,-1154,-362,-347,-420,-295,-446,-336,-144,-68,-116,-103,387,1131,1613,1354,765,232,-167,-276,-254,-232,-178,-503,-1667,-2537,398,2171,1570,889,480,-5,-217,-153,-116,-91,-123,-246,-335,-367,-412,-483,-467,-540,-622,-563,-621,-556,-510,-513,-318,-152,-12,248,624,2225,3724,2859,1386,-21,-481,-593,-684,-678,-314,227,538,891,393,567,268,-505
2018-05-16,10:57:47.704,-459,-386,-413,-205,373,-450,-2287,-1737,-668,-281,366,510,108,-140,-261,-646,-822,-507,-254,-199,-155,-79,276,1175,1892,1739,855,-255,-905,-1091,-1123,-1014,-751,-367,-89,233,422,426,354,238,130,46,-12,-65,-115,-177,-134,-62,-34,106,230,249,206,97,94,25,-77,-230,-1158,-2032,51,1562,1225,1746,3374,2488,740,91,-345,-899,-1042,-1054,-861,-731,-119,115,-34,-181,-723,-1328,-1283,-1081,-1038,-988,-796,-389,-421,-298,138,175,-623,-988,-647,-257,-414,73,-103,-501,-635,-535,-349,-162,-39,77,189,1066,2199,2123,1243,250,-750,-2335,-2919,236,1676,1090,595,211,-251,-404,-393,-429,-429,-394,-342,-416,-429,-370
2018-05-16,10:57:48.741,-334,-344,-356,-392,-418,-419,-464,-520,-448,-436,-316,-101,367,534,441,407,252,314,986,2729,2324,484,-422,-1018,-1181,-802,-1225,-872,-27,519,901,530,365,1173,642,-653,-2154,-3168,-846,768,803,853,580,546,-300,-840,-1373,-1519,-1109,-713,-607,-630,-582,-549,-492,-461,-504,-419,350,1797,2874,2409,1060,37,-459,-578,-494,-384,-272,-140,56,148,31,-14,-64,-295,-385,-342,-322,-185,-44,85,157,283,519,536,453,230,-499,-1550,-86,1745,1300,892,734,477,184,154,608,1637,1064,230,82,-102,-274,-453,-130,-307,-236,554,1647,947,83,305,-337,-1073,-895,-478,-308,-220,136,750,288,60,-20,-711,-748,-596
2018-05-16,10:57:49.779,-351,-300,-299,-343,-180,-10,123,212,238,223,275,787,1376,-241,-2606,102,2010,1338,797,506,17,-172,-72,2,35,51,68,41,30,-24,-122,-161,-175,-262,-374,-451,-473,-486,-464,-341,-226,10,325,543,678,709,759,724,704,593,562,491,312,1356,2227,1227,154,-553,-415,430,109,-698,-99,915,1209,-182,-2311,-770,1314,859,700,337,-81,100,-410,-915,-241,-625,-1443,-1084,-927,-804,-704,-735,-749,-743,-658,-559,-457,-411,-308,-4,861,2718,4490,3930,2280,702,-243,-626,-782,-775,-647,-420,-238,-138,-182,-291,-395,-420,-437,-490,-567,-559,-493,-419,-387,-730,-1851,-1679,998,1577,861,325,-67,-531,-898,-827
2018-05-16,10:57:50.816,-587,-582,-556,-478,-92,1475,2078,528,-516,-1035,-1185,-1245,-1174,-971,-1625,-1314,-434,-62,230,450,386,692,326,-576,-635,-574,-554,-617,-582,-414,-297,-133,-141,-178,-987,-1174,-526,-601,-681,-442,-94,-7,-1454,-3951,-1945,1194,2110,1998,1394,277,-416,-558,-556,-523,-480,-381,-296,-260,-198,-191,-260,-344,-451,-524,-582,-587,-577,-550,-514,-380,-135,145,472,704,754,756,688,548,549,750,532,200,62,192,378,2020,3372,1169,-498,-605,-845,-679,-117,150,-500,-1691,132,2616,2906,2492,519,-486,-374,-122,-127,-209,-204,37,-76,249,244,-572,-603,-381,-971,-1081,-746,-416,-248,-179,-71,64,192,406,867,2068,3256,3338
2018-05-16,10:57:51.853,2307,1014,219,-45,-89,-169,-183,-66,80,234,369,311,143,12,-107,-151,-129,-130,-562,-1865,-1445,1579,2182,1506,1005,536,79,-243,-470,-478,-337,-357,-300,-185,-137,-231,-200,-76,868,2335,2310,1184,-484,-1065,-795,-609,-916,-821,-75,746,1053,544,272,116,-239,-144,-158,-671,-672,-125,-83,-677,-501,-229,-1129,-1394,-713,-611,-425,-38,-541,-2358,-2944,21,1159,945,665,503,791,1540,1637,914,74,-566,-829,-799,-753,-776,-789,-731,-687,-750,-838,-786,-761,-740,-659,-558,-376,-184,87,319,459,465,480,536,514,362,280,311,252,366,258,67,77,-52,112,303,306,1455,2620,1254,-701,-2500,-4226,-1581,1701,1392
2018-05-16,10:57:52.890,138,6,-96,278,764,516,461,358,17,-437,-807,-704,-422,-233,-61,-79,-422,-183,505,-686,-1286,-1085,-777,-673,-575,-434,43,103,115,243,240,206,845,1355,990,399,-238,-536,-492,-302,-202,-159,-62,19,26,26,-156,-1044,-2368,-93,2518,1943,1235,848,197,-210,-245,-250,-176,-190,-306,-323,-317,-362,-313,-229,-429,-798,-1045,-1224,-1256,-759,-52,1756,2529,1063,-103,-451,-342,-260,363,353,-550,-192,564,804,764,880,181,-766,-718,-289,-361,-591,-516,-39,-23,22,-500,-1574,-3015,-3110,-228,614,630,494,142,-191,-594,-466,-246,-151,-52,186,1071,2161,2332,1406,394,-340,-814,-1031,-1039,-952,-717,-453,-188,75
2018-05-16,10:57:53.927,192,219,278,302,267,258,253,248,272,262,273,307,287,381,417,478,517,506,474,353,304,361,407,98,-1265,-1348,1791,4673,4049,1554,227,-100,-155,-329,-463,-575,-378,143,782,925,348,336,-372,-1313,-1498,-1121,-903,-881,-889,-547,197,-107,-499,-33,-1234,-1077,-486,-272,-47,63,385,224,-378,-386,-59,75,101,234,811,1554,1682,964,240,-43,-100,-305,-1666,-3166,106,2374,1833,1102,663,112,-153,-164,-119,-117,-175,-248,-311,-346,-382,-451,-472,-418,-410,-474,-589,-458,-352,-491,-440,-93,82,172,484,719,804,997,2329,3750,3639,1943,333,-224,-163,349,28,-393,339,802,1263,1371,1135,737,-6,-213
2018-05-16,10:57:54.965,-1103,-3462,-3764,-854,-28,29,273,-531,-1041,-1498,-1661,-1309,-1327,-1280,-789,-725,-611,-852,-1095,-781,-440,9,1422,3689,4610,3079,1206,-53,-701,-803,-672,-532,-344,-255,-274,-387,-546,-714,-798,-952,-1149,-1137,-1024,-957,-871,-680,-576,-495,-437,-386,-354,-376,-671,-1891,-2128,903,1837,1350,916,265,-543,-902,-663,1259,2430,1196,-67,-1226,-1548,-1262,-1508,-1645,-1070,-516,-459,-838,-442,163,-439,-1008,-1158,-811,-355,-155,195,900,792,-183,-781,-416,-479,-556,-271,-78,-210,-336,-283,-189,-4,160,245,177,52,638,1721,171,-3706,-2392,1494,1668,1096,767,346,-31,-50,38,70,88,72,24,-57,-102,-160,-219,-385,-592,-700,-707
2018-05-16,10:57:56.002,-615,-558,-571,-616,-423,-115,209,437,423,513,597,415,284,344,326,244,339,1908,3605,2218,713,-383,-757,-914,-845,-663,-318,439,907,107,-1889,-329,1648,1046,222,-6,-177,-236,-344,-267,-523,-865,-1099,-1492,-1331,-1184,-975,-807,-531,-829,-1210,-898,-813,-705,-507,-338,-79,706,2158,3130,2788,1647,567,-62,-288,-371,-394,-341,-335,-269,-105,-42,-81,21,103,80,124,155,209,247,211,-445,-2050,-768,2296,2448,1868,1394,817,215,121,243,124,82,39,-146,-142,51,206,1185,2525,1579,141,-535,-1210,-1415,-1252,-960,-607,94,902,1228,1225,607,530,661,233,76,254,561,140,255,761,288,-1187,-1209,-378,-135
2018-05-16,10:57:57.039,-26,181,104,-96,123,-447,-2566,-2106,942,1520,1282,1540,2316,2519,1974,1042,63,-518,-650,-647,-571,-502,-460,-447,-437,-458,-515,-643,-684,-676,-607,-554,-367,-236,52,344,541,618,670,746,628,471,246,259,187,21,0,73,235,413,442,438,974,2535,3570,2743,625,-1587,-2909,-301,1289,695,720,918,868,1088,1003,669,628,-486,-1382,-1411,-1667,-1588,-1529,-1440,-934,-1147,-1840,-2412,-2395,-1988,-1628,-1243,-1131,-1107,-1007,-774,-454,-281,-292,-148,572,1320,1516,1034,276,-349,-579,-613,-569,-401,-264,-169,-64,-17,-37,-24,-106,-1056,-2998,-1169,1742,1682,1188,927,530,130,2,-12,-129,-82,-119,-166,-142,-273,-416,-430
2018-05-16,10:57:58.076,-370,-341,-312,-297,-2,1758,2251,678,-453,-250,-723,-738,-120,274,284,418,1004,778,473,601,112,-339,-20,167,62,-102,42,597,77,-537,-699,-1032,-744,-1251,-2589,-903,954,833,742,587,227,-20,-90,163,873,1388,1298,969,198,-503,-746,-856,-919,-958,-905,-861,-805,-729,-632,-501,-430,-332,-148,124,178,126,169,244,277,324,419,289,257,205,123,-21,29,84,20,23,-2,35,151,196,-218,-205,2037,5063,4256,1748,633,-205,-1077,-1095,-697,-263,117,601,511,-265,-791,-1917,-2103,-1619,-1420,-1462,-1375,-946,-346,-911,-1508,-1394,-1156,-640,-406,-57,-554,-655,-509,-420,-127,91,138,60,27,116,832,2315
2018-05-16,10:57:59.113,2554,1239,214,-339,-502,-406,-158,-263,-1461,-2865,-179,2397,1929,1123,737,212,-68,-187,-232,-254,-310,-308,-258,-204,-146,-167,-310,-352,-364,-391,-425,-237,-288,-434,-312,-60,126,263,398,647,1803,3684,3616,2092,-381,-1581,-1503,-1183,-565,85,376,831,1576,1209,117,85,56,-526,-445,-409,-1717,-2437,102,1086,623,266,-602,-463,-239,-248,-167,-869,-848,-376,-139,-251,-212,-105,-17,530,2394,4239,4148,2318,130,-1086,-1422,-1354,-1120,-806,-449,-141,30,24,-154,-334,-463,-521,-600,-672,-673,-591,-549,-383,-193,-54,-14,-2,-106,-109,-308,-963,-2126,-882,1651,1561,985,633,479,1230,2358,1389,365,-513,-683,-108,-1262,-1377
2018-05-16,10:58:00.151,-1052,-546,43,-94,9,441,-767,-1951,-1436,-998,-1249,-940,-440,364,995,206,-701,-1166,-1044,-425,-306,-258,207,-531,-827,-455,-297,-101,62,44,138,833,1542,1424,480,-1950,-4059,-709,2129,1705,1060,685,154,-89,-52,-27,-34,-58,-111,-132,-132,-121,-149,-273,-248,-235,-337,-376,-344,-244,-161,-1,82,303,570,587,480,423,528,654,579,771,2297,3637,2679,1529,412,-167,-103,144,197,990,999,729,1415,1789,659,-1713,-1649,1059,1266,-105,-681,-1071,-1788,-1635,-1324,-1225,-1207,-1297,-1235,-1161,-1055,-1075,-1008,-949,-918,-872,-824,-712,-474,919,4468,8404,9242,6405,2761,585,-340,-661,-647,-388,-44,148,-48,-657,-1098,-1421
2018-05-16,10:58:01.188,-1860,-1831,-1648,-1509,-1361,-1174,-1000,-868,-763,-1080,-2336,-2692,257,1331,520,44,-342,-978,-1395,-1501,-1632,-1623,-1537,-964,2633,4321,1755,-584,-1981,-2603,-2668,-2437,-2158,-1847,-1275,-666,-990,-1319,-1084,-699,-586,-807,-920,-838,-705,-446,-308,-719,-1851,-2141,-1663,-1336,-1120,-793,-420,-461,-357,-616,-785,-365,133,-833,-3493,-2437,1200,2701,3352,2900,1588,572,175,36,-21,18,80,148,258,278,288,259,99,-88,-196,-174,-120,-78,67,219,451,749,1070,1296,1388,1550,1603,1457,1351,1347,1255,1034,855,894,972,1106,2214,5374,5547,3938,2468,1181,155,-23,-415,-1558,222,3056,3233,2417,1435,331,-480,-570,-657,-839,-860,-829,-712,-831
2018-05-16,10:58:02.225,-781,-738,-430,-1033,-2018,-1716,-1221,-942,-784,-652,-439,-212,-128,-26,207,642,2043,4465,6376,5997,3359,872,-348,-827,-973,-936,-842,-612,-369,-250,-337,-598,-826,-1023,-1174,-1532,-2743,-3498,-551,1038,556,280,106,-324,-669,-719,-716,-714,-712,-567,-449,-775,-1194,-1238,-1057,-961,-698,713,2418,1662,207,-882,-1366,-1223,-837,-403,112,714,972,970,340,-119,43,215,-20,-255,-52,-176,-735,-235,221,-613,-1061,-813,-792,-721,-367,-1519,-4135,-2684,198,520,418,427,235,7,-38,52,697,1753,2287,2001,1125,91,-572,-874,-1088,-1210,-1288,-1276,-1140,-993,-870,-803,-764,-581,-372,-260,-203,-164,-80,-43,-61,-18,68,-34,-46,49
2018-05-16,10:58:03.262,-22,-66,59,111,-89,-260,-142,74,352,631,858,-451,940,2420,1465,721,555,608,167,320,386,72,250,139,-57,-346,-341,-523,-909,-854,-631,-895,-1102,-1050,-894,-1181,-862,-407,-320,-88,-335,-565,-463,-249,-54,-12,187,276,229,419,1400,2640,3204,2599,1287,298,-148,-196,-170,-118,-322,-1152,-1665,857,2387,1628,930,447,-42,-280,-253,-190,-189,-102,-75,14,-12,-19,-5,-85,-159,-196,-300,-427,-294,-367,-365,-335,-241,262,718,1689,3416,3716,2210,868,-538,-996,-628,-355,-245,125,1010,1453,211,-91,-152,-631,-661,-487,-390,-81,-363,-2668,-4333,-1131,592,482,137,235,166,-131,-568,-620,-478,-510,-434,-350
2018-05-16,10:58:04.300,-294,-251,-357,-286,572,1654,1539,465,-604,-1222,-1342,-1193,-872,-534,-290,-69,91,88,34,-66,-161,-197,-240,-405,-375,-285,-237,-137,36,158,196,217,201,206,142,-255,-1217,-658,1931,1911,901,497,119,-126,-180,293,1304,1696,1032,-42,-730,-856,-776,-629,-498,-152,501,520,-84,-238,-475,-673,-557,-433,-410,-331,-110,410,570,-202,-1038,-1224,-1231,-841,-393,52,-111,-429,-282,-915,-1010,-741,-536,-289,-83,106,-41,-1163,-390,4648,7150,5830,3057,412,-1116,-1501,-1507,-1478,-1375,-1269,-1131,-1111,-1218,-1403,-1491,-1547,-1577,-1572,-1542,-1429,-1268,-1114,-942,-753,-516,-200,68,184,168,207,288,420,603,308,121,37,-12,-5
2018-05-16,10:58:05.337,115,279,795,2081,3527,3348,1342,-519,-1071,-1137,-2330,-3477,-174,2297,1613,1094,744,88,-275,-361,-259,245,8,-1024,-1433,-1416,-1202,-1064,-714,-618,-1005,-1149,-1360,-1608,-1660,-1482,-1169,-964,-686,-323,-144,-77,75,265,878,2311,3773,3867,2513,887,-222,-698,-778,-679,-543,-476,-477,-370,-237,-145,-442,-1422,-2508,-431,1705,1239,725,403,39,-278,-235,-131,-111,-44,61,82,50,-46,-80,-173,-287,-488,-567,-456,-379,-222,-49,466,2390,4913,5452,3809,1958,949,588,482,561,836,1417,1932,1654,728,-410,-680,-433,-468,-713,-916,-918,-726,-646,-741,-2022,-3609,-2258,-676,-714,-439,-296,-190,-345,-492,-551,-664,-536,-448,-311,-103
2018-05-16,10:58:06.374,-74,-75,73,915,2380,2841,1493,62,-784,-1174,-1201,-1016,-774,-471,-170,50,87,78,91,35,9,57,15,-44,33,107,201,269,190,179,259,299,289,357,269,-537,-2022,-253,2654,2374,1484,914,315,-290,-462,-355,-144,25,-162,-1547,-1811,-1175,-875,-533,-155,-494,-571,-832,-1531,-1316,-824,-596,-451,-233,-4,471,469,214,122,96,189,245,228,89,-169,-224,-122,-81,-5,186,257,288,365,461,444,335,-282,-1706,-858,1481,1307,658,-31,-614,-759,-565,-353,-216,-159,-223,-314,-445,-537,-594,-640,-676,-737,-770,-862,-886,-786,-633,-446,-218,166,548,688,551,356,221,120,71,53,135,221,138,-2,-69
2018-05-16,10:58:07.411,-37,137,52,-255,-406,-487,-484,-263,-201,-480,-1415,-899,1523,1927,1512,897,199,-242,-296,-149,21,61,22,-37,-87,-153,-182,-188,-195,-235,-262,-226,-184,-209,-198,-144,-64,57,140,218,473,1260,2226,2998,2966,2241,1742,1422,975,532,154,-216,-492,-590,-693,-732,-753,-759,-754,-590,-718,-1980,-3149,-624,1120,815,432,142,-217,-372,-352,-317,-309,-304,-287,-271,-291,-306,-341,-364,-382,-395,-411,-388,-366,-349,-293,-231,-48,293,486,533,638,611,604,672,704,734,727,596,519,520,368,163,74,0,-29,-58,-62,-36,-28,-243,-850,-1307,773,2064,1052,407,223,3,-156,-142,-118,-133,-192,-248,-271,-294
2018-05-16,10:58:08.448,-362,-403,-399,-390,-388,-383,-354,-326,-279,-210,-106,0,161,274,355,473,556,789,1218,1726,1968,1728,1236,869,650,535,533,513,360,82,-224,-491,-677,-776,-1018,-2033,-3265,-1269,614,322,-57,-328,-694,-888,-865,-813,-784,-754,-732,-703,-669,-638,-606,-605,-618,-634,-619,-582,-568,-561,-547,-471,-315,-97,124,293,362,356,329,255,137,97,117,104,100,135,69,7,31,80,85,55,37,23,66,-18,-930,-2598,-1020,1970,1852,999,534,92,-145,-135,-124,-156,-213,-262,-306,-355,-430,-521,-574,-651,-725,-810,-882,-831,-762,-682,-586,-419,-224,-14,106,204,253,253,227,195,166,192,129,18,46,112
2018-05-16,10:58:09.485,259,490,659,687,565,418,299,284,351,-401,-2235,-1293,1380,1582,1100,606,40,-415,-588,-606,-633,-628,-593,-587,-608,-623,-603,-597,-620,-635,-623,-601,-547,-477,-425,-305,-135,69,283,426,521,586,588,592,613,629,616,548,441,448,454,436,506,562,568,540,518,508,511,492,-10,-1276,-563,1775,1796,1231,853,407,-30,-124,-122,-166,-248,-350,-437,-476,-506,-539,-574,-582,-575,-543,-501,-473,-429,-346,-250,-84,127,334,482,532,503,470,419,372,314,270,243,169,149,210,241,332,421,423,404,396,440,504,711,647,-945,-2908,-461,1655,1591,1377,1154,751,472,400,360,291,221,184,156,108
2018-05-16,10:58:10.523,60,57,41,-2,-47,-87,-164,-264,-342,-362,-332,-226,-7,218,401,519,588,625,601,562,525,492,398,254,270,307,331,429,469,504,490,469,441,451,525,-242,-2055,-1150,1794,1955,1411,1010,537,123,35,-6,-62,-115,-179,-238,-296,-328,-366,-427,-480,-533,-575,-600,-595,-581,-550,-462,-316,-154,2,136,197,180,133,92,64,44,67,96,14,-70,-19,2,14,57,81,112,128,139,120,125,-63,-1010,-2043,-169,1400,1005,615,273,-125,-437,-547,-539,-435,-370,-359,-364,-368,-385,-397,-411,-422,-439,-464,-507,-567,-599,-612,-595,-524,-418,-341,-282,-247,-234,-226,-243,-245,-265,-269,-285,-390,-410
2018-05-16,10:58:11.560,-328,-260,-129,-14,52,21,-30,-93,-149,-118,-435,-1755,-1931,441,1158,641,163,-246,-473,-463,-440,-430,-428,-442,-440,-437,-440,-454,-450,-456,-473,-507,-557,-610,-617,-598,-577,-514,-391,-252,-152,-66,-5,31,73,63,62,34,35,-2,-130,-137,-87,-56,66,161,225,219,221,228,271,493,16,-2071,-2291,1042,1910,1428,1046,577,224,173,141,89,57,41,5,-24,-31,-33,-67,-100,-137,-166,-201,-207,-172,-137,-22,143,316,471,570,600,584,558,521,481,459,452,425,293,142,151,190,233,294,355,365,338,323,304,322,401,-154,-1809,-1253,1222,1408,1019,708,360,51,-29,-43,-78,-104,-121
2018-05-16,10:58:12.597,-154,-188,-210,-232,-275,-320,-360,-419,-485,-544,-559,-520,-418,-270,-84,71,197,269,261,251,233,213,174,123,99,2,-116,-91,-79,-45,29,63,57,53,37,-13,58,93,-807,-2308,-780,1180,958,559,239,-174,-394,-425,-442,-469,-488,-505,-533,-551,-573,-593,-618,-652,-702,-750,-782,-797,-779,-712,-592,-420,-221,-53,42,85,99,92,112,108,84,58,71,-23,-105,-57,-27,36,145,212,177,164,144,132,266,196,-981,-2245,165,2019,1595,1060,638,185,82,136,144,102,23,-47,-110,-183,-230,-211,-234,-293,-348,-409,-449,-469,-465,-407,-271,-65,158,318,412,452,463,479,462,435,374,320
2018-05-16,10:58:13.634,282,153,89,164,214,299,411,440,415,393,388,392,552,440,-1019,-2228,326,1739,1335,926,538,211,154,122,72,46,8,-21,-68,-101,-121,-159,-186,-211,-260,-310,-343,-340,-307,-235,-118,37,169,255,295,285,242,212,171,118,45,22,1,-156,-219,-204,-203,-102,-30,-32,-75,-74,-91,13,494,-29,-2838,-3754,-104,1230,1088,849,405,139,77,18,-44,-108,-224,-309,-350,-356,-381,-423,-476,-558,-647,-740,-780,-759,-671,-533,-348,-129,41,156,204,216,220,225,225,206,183,188,117,0,2,24,37,149,283,230,166,185,180,216,395,31,-1429,-1164,1316,1518,1089,800,399,25,-135,-158
2018-05-16,10:58:14.671,-54,-153,-246,-251,-96,-117,-285,-322,-463,-569,-559,-636,-521,-328,-490,-521,-225,-125,58,222,353,393,383,431,467,443,254,305,96,23,16,64,189,277,359,376,335,248,207,311,162,-324,-1395,-430,1427,1290,876,556,93,-224,-238,-265,-230,-260,-276,-240,-244,-224,-269,-322,-369,-418,-492,-566,-594,-563,-489,-372,-202,-5,150,249,322,311,265,246,240,223,172,187,152,48,43,69,126,219,255,263,205,166,132,204,375,-129,-1644,-1045,1201,1292,904,582,191,16,-2,-8,-28,-81,-114,-169,-209,-242,-282,-322,-370,-432,-503,-542,-566,-560,-510,-400,-223,-18,128,226,275,284,275,252
2018-05-16,10:58:15.709,206,151,66,58,18,-129,-170,-131,-86,-3,38,56,24,-11,-15,74,220,-322,-1929,-1284,995,1039,623,306,-109,-260,-275,-297,-327,-360,-387,-418,-453,-483,-490,-516,-538,-559,-590,-585,-588,-683,-622,-324,-201,-179,-45,113,177,194,191,147,112,82,33,22,-55,-199,-217,-196,-139,3,91,-1,-104,-110,-111,79,476,-553,-3469,-2593,883,1354,792,371,70,-56,-130,-176,-129,-128,-273,-323,-362,-371,-303,-367,-477,-493,-537,-582,-723,-765,-578,-318,-148,38,207,286,307,315,277,261,246,189,126,117,16,-47,-16,118,157,121,151,200,129,99,169,404,359,-696,-1720,428,1588,1235,818,378
2018-05-16,10:58:16.746,104,41,57,97,72,-59,-61,-23,-63,2,-11,-33,-76,-217,-341,-387,-331,-232,-66,97,243,397,587,686,693,865,738,560,618,578,589,477,308,354,454,453,452,560,673,666,437,416,600,565,79,-976,99,1675,1429,1054,774,664,186,-48,35,61,-19,71,51,-89,-73,-90,-130,-148,-194,-320,-359,-347,-348,-217,-27,148,274,377,552,596,519,500,535,486,396,475,423,236,136,199,251,273,310,352,320,257,280,274,288,136,-764,-1050,910,1365,903,621,261,-130,-243,-290,-345,-299,-326,-385,-440,-438,-424,-459,-514,-609,-701,-754,-794,-810,-745,-613,-408,-177,-17,121,160,189
2018-05-16,10:58:40.933,880,870,803,896,1015,1065,1146,1159,1181,1208,1176,1141,1096,1242,1076,-767,-2688,-105,1666,1375,960,552,123,13,-67,-208,-313,-407,-493,-549,-577,-586,-589,-606,-618,-703,-624,-358,-332,-363,-286,-92,260,553,591,582,575,591,511,456,480,456,437,359,479,605,545,647,738,742,853,889,729,583,406,265,169,118,70,-949,-2246,-758,809,531,144,-104,-522,-825,-886,-995,-1187,-1307,-1418,-1553,-1654,-1691,-1765,-1826,-1904,-1909,-1880,-1875,-1843,-1766,-1604,-1377,-1074,-787,-567,-376,-267,-222,-163,-97,-70,-55,-42,-26,4,16,-69,-55,5,61,172,315,464,469,480,550,584,633,576,-212,-1172,777,2215,1537
2018-05-16,10:58:41.970,1052,698,305,27,-97,-192,-305,-401,-469,-500,-526,-526,-524,-546,-585,-606,-662,-793,-860,-847,-825,-686,-417,-37,284,560,728,726,777,862,707,522,387,195,135,43,-99,-88,-21,27,248,502,809,884,908,933,893,1079,1038,-816,-2730,-355,1304,1074,477,39,-532,-794,-763,-903,-890,-865,-1024,-1056,-1128,-1231,-1340,-1486,-1729,-1774,-1768,-1776,-1650,-1542,-1373,-1157,-869,-533,-304,-143,-28,62,176,259,298,363,409,448,516,581,580,650,675,678,745,800,829,872,917,964,1012,1102,1085,146,-587,1759,3023,2368,1728,1239,750,549,528,507,486,483,457,409,312,208,124,-3,-113,-237,-326,-359,-363,-380
2018-05-16,10:58:42.757,-340,-243,-49,278,516,531,486,442,404,543,662,604,555,549,680,722,622,517,403,356,392,417,376,313,326,268,503,733,648,-743,-1367,1106,2139,1991,1702,932,199,-146,-167,-272,-371,-465,-633,-734,-865,-822,-937,-1090,-1199,-1367,-1585,-1648,-1738,-1739,-1756,-1788,-1686,-1516,-1362,-1212,-1084,-993,-924,-860,-796,-725,-668,-621,-531,-524,-599,-576,-495,-437,-278,-121,-52,-36,0,33,105,314,236,-1145,-1808,903,2110,1715,1250,813,383,228,176,89,-2,-103,-176,-227,-308,-424,-439,-445,-551,-622,-685,-722,-707,-692,-641,-518,-367,-176,40,145,116,40,188,436,507,635,821,853,808,711,453,345,406,302
2018-05-16,10:58:43.795,380,458,543,708,835,1012,1403,2077,1963,203,-102,2549,3566,3134,2397,1647,946,540,250,47,-225,-523,-610,-854,-1152,-1378,-1617,-1863,-2168,-2275,-2429,-2503,-2499,-2476,-2437,-2286,-2073,-1817,-1592,-1460,-1346,-1261,-1166,-1058,-957,-847,-751,-686,-589,-563,-606,-532,-432,-338,-166,-20,53,132,186,221,313,437,337,-597,-974,1121,2044,1536,1136,848,491,312,256,189,92,2,-122,-267,-392,-564,-739,-933,-1037,-917,-839,-741,-667,-605,-460,-185,143,501,860,1145,1355,1437,1501,1334,1075,749,539,438,452,519,309,258,240,295,487,637,777,793,787,970,1100,1360,1283,-166,-1298,802,2068,1632,1001,466,-232,-653,-984,-1100
2018-05-16,10:58:44.832,-1269,-1454,-1653,-1722,-1863,-1947,-1989,-2090,-2129,-2139,-2160,-2133,-2020,-1865,-1686,-1426,-1138,-814,-499,-229,-36,50,102,216,303,370,457,518,595,702,672,686,823,958,1098,1325,1495,1576,1635,1696,1735,1848,2035,1140,-1318,-720,2269,2414,1872,1482,998,757,746,667,601,551,389,318,385,375,339,312,292,257,320,516,688,745,746,719,851,1103,1284,1355,1457,1506,1556,1624,1823,1967,2100,2299,2402,2520,2579,2422,2332,2348,2183,2056,1818,1559,1267,843,499,160,-8,-366,-1473,-2313,-887,6,-393,-857,-1457,-1920,-2181,-2270,-2328,-2410,-2480,-2510,-2482,-2438,-2460,-2434,-2378,-2334,-2286,-2210,-2095,-1974,-1828,-1629,-1384,-1119,-865,-631
2018-05-16,10:58:45.869,-437,-305,-235,-205,-196,-166,-122,-88,-78,-69,-13,9,-41,26,134,218,341,429,449,445,431,357,292,329,7,-1402,-1747,968,1476,912,566,208,-175,-347,-331,-369,-466,-478,-427,-457,-472,-365,-191,-112,-32,121,283,348,369,524,555,545,654,747,717,662,671,624,605,614,636,606,635,844,1028,1118,1202,1200,1137,994,971,814,631,457,135,-168,-358,-540,-356,-763,-2736,-2901,-84,700,145,-421,-1072,-1490,-1624,-1760,-1846,-1920,-1942,-1972,-2009,-2011,-2005,-2013,-2021,-2050,-2063,-2031,-1951,-1828,-1694,-1483,-1141,-795,-553,-427,-339,-287,-241,-205,-183,-133,-80,-28,19,84,187,253,212,211,243,300,412,510
2018-05-16,10:58:46.906,519,471,397,342,314,442,395,-663,-1607,696,2106,1601,1146,742,305,87,72,162,295,366,362,414,520,552,22,-1977,-5728,-9876,-12389,-12495,-12496,-12496,-12471,-10845,-8274,-5844,-3399,-1160,754,2304,3416,4346,5173,5743,6253,6786,7305,7799,7999,8225,8364,8480,8441,8432,8535,8414,8288,7957,7629,7276,6873,6442,5778,3984,3435,4948,4869,3928,2950,1901,962,132,-623,-1360,-2077,-2722,-3295,-3707,-3955,-4184,-4314,-4338,-4358,-4307,-4185,-4033,-3876,-3625,-3273,-2880,-2475,-2068,-1741,-1500,-1249,-1019,-850,-696,-595,-510,-372,-182,-65,101,277,221,148,174,207,351,566,668,675,679,707,736,818,968,260,-1879,-1364,1543,1746,1321,935,534,188,82
