2018-05-14,14:38:36.367,9,21,19,46,60,66,60,48,37,38,34,27,36,45,51,51,55,58,41,34,23,23,78,112,136,165,85,29,45,39,23,19,31,-68,-692,-779,1436,3407,2021,804,77,-532,-760,-665,-626,-598,-546,-511,-484,-460,-431,-403,-385,-368,-382,-423,-446,-465,-481,-450,-389,-313,-190,-73,0,35,86,103,89,91,92,99,96,87,83,74,78,82,94,109,104,95,99,90,82,75,58,83,154,174,208,207,141,125,140,145,136,120,117,-95,-851,-532,2415,3760,1926,720,-14,-600,-685,-572,-506,-450,-408,-375,-341,-308,-270,-245,-246,-237,-257,-294,-322,-346,-308,-273,-206,-126
2018-05-14,14:38:37.405,-20,79,186,242,289,320,315,307,300,306,302,286,254,230,231,224,235,223,211,215,192,170,159,126,88,127,173,183,191,149,61,38,53,37,8,-19,-70,-431,-991,-39,2596,2730,1128,175,-411,-829,-853,-789,-774,-751,-719,-692,-650,-620,-625,-609,-605,-623,-615,-645,-677,-701,-695,-647,-589,-506,-407,-313,-247,-200,-163,-144,-133,-125,-124,-143,-153,-146,-148,-172,-181,-170,-166,-161,-171,-169,-176,-177,-193,-214,-200,-123,-69,-36,-31,-101,-143,-127,-119,-116,-119,-123,-223,-898,-1131,983,3473,2359,800,-169,-796,-925,-812,-752,-709,-669,-622,-596,-554,-524,-507,-490,-469,-479,-502,-535,-566,-579
2018-05-14,14:38:38.442,-537,-474,-401,-298,-182,-80,11,76,133,148,162,176,183,169,151,144,151,143,135,129,108,111,117,132,134,91,76,75,114,193,220,240,215,126,97,105,98,69,68,61,-206,-997,-581,2380,4190,2496,716,-333,-852,-818,-737,-709,-645,-615,-582,-551,-529,-506,-475,-467,-475,-509,-552,-584,-603,-591,-545,-478,-378,-261,-122,20,153,250,312,342,353,346,324,310,304,301,294,293,296,299,302,307,317,321,327,309,278,263,298,377,403,452,451,367,341,349,362,356,347,341,147,-680,-493,2377,4450,3042,1321,200,-470,-561,-477,-450,-418,-368,-340,-314,-282,-253,-256,-252,-245,-286
2018-05-14,14:38:39.479,-325,-362,-391,-382,-353,-297,-214,-116,-8,90,163,220,255,270,256,242,229,211,185,151,131,102,73,45,18,-2,-5,-19,-30,-56,-97,-135,-171,-196,-146,-120,-102,-92,-161,-239,-262,-275,-291,-323,-336,-437,-1067,-1598,287,3645,3256,1259,-271,-1168,-1456,-1369,-1310,-1285,-1235,-1187,-1128,-1096,-1058,-1016,-1040,-1042,-1029,-1040,-1068,-1087,-1086,-1037,-936,-824,-701,-544,-402,-252,-140,-48,9,22,36,23,0,-4,0,-3,-18,-21,-44,-15,19,11,11,24,13,-8,-21,-52,-46,0,51,77,136,99,11,21,28,9,-15,-18,-25,-296,-1009,-395,2374,3698,2404,873,-121,-741,-856,-746,-673,-626,-564,-512
2018-05-14,14:38:40.516,-445,-395,-344,-294,-291,-291,-263,-263,-269,-274,-239,-169,-94,-11,107,223,321,366,401,436,456,456,441,448,447,461,448,431,432,449,435,429,428,405,389,398,379,352,317,295,344,399,400,431,410,318,306,310,290,259,266,253,18,-574,-52,2298,2859,1519,705,134,-353,-495,-432,-400,-370,-329,-283,-248,-212,-183,-185,-164,-165,-174,-184,-209,-219,-204,-165,-99,-44,16,91,140,175,180,175,177,182,186,183,167,148,127,117,94,87,77,89,88,90,80,81,93,90,87,88,162,190,212,214,152,111,122,102,81,78,68,-40,-649,-957,715,3432,3133,1415,134,-625,-794
2018-05-14,14:38:41.553,-688,-671,-647,-611,-566,-518,-475,-447,-442,-440,-415,-431,-460,-489,-519,-539,-512,-460,-375,-258,-144,-33,65,122,162,207,224,222,205,170,138,115,92,67,63,66,56,42,26,21,31,16,-22,-36,-45,-49,15,45,58,65,-7,-52,-29,-29,-37,-35,-59,-131,-644,-1104,208,2842,2838,1377,297,-412,-809,-774,-718,-681,-630,-588,-567,-529,-509,-470,-448,-434,-418,-423,-450,-476,-484,-472,-417,-345,-244,-147,-65,4,59,101,154,185,175,152,135,119,113,84,81,82,76,69,73,61,62,57,52,45,38,23,4,76,122,131,147,91,41,46,34,27,16,13,-18,-465,-1174,-171
2018-05-14,14:38:42.591,3018,3418,1882,557,-301,-817,-832,-772,-757,-722,-678,-641,-598,-563,-523,-511,-487,-485,-503,-534,-542,-541,-520,-478,-405,-310,-195,-102,-38,15,75,107,123,139,136,128,103,84,75,70,67,57,62,72,68,76,87,76,52,36,7,4,78,120,143,170,125,58,69,82,73,56,32,-2,-372,-1024,-174,2617,3211,1755,624,-101,-620,-792,-715,-655,-609,-557,-518,-495,-460,-434,-410,-405,-402,-393,-405,-426,-423,-405,-372,-314,-232,-156,-81,-37,-6,33,56,64,68,66,55,41,33,40,41,35,24,21,15,29,28,15,20,21,6,-11,-24,24,86,83,103,70,0,0,11,5
2018-05-14,14:38:43.628,-13,-23,-31,-275,-998,-589,1978,3268,1923,722,-46,-615,-793,-719,-669,-632,-590,-550,-504,-470,-437,-402,-391,-401,-398,-418,-426,-426,-411,-386,-332,-278,-195,-90,-6,42,74,91,101,114,111,97,94,87,67,52,33,12,18,24,8,18,19,14,2,-1,-26,-27,40,83,104,131,93,31,32,38,22,6,-4,-15,-371,-1161,-496,2455,4239,2567,684,-423,-909,-877,-813,-778,-733,-689,-638,-611,-594,-572,-543,-529,-526,-532,-555,-592,-593,-576,-538,-459,-374,-254,-116,20,139,229,280,314,327,339,338,309,272,247,223,217,208,196,195,197,199,187,186,193,177,158,140,138,209,242
2018-05-14,14:38:44.665,261,275,223,156,155,151,131,124,107,73,-389,-1100,-58,3107,4157,2447,696,-328,-832,-837,-765,-746,-720,-665,-614,-581,-549,-519,-497,-480,-485,-511,-539,-574,-570,-544,-517,-450,-363,-255,-131,-24,46,99,132,163,174,156,124,100,82,43,18,7,-11,-19,-38,-37,-46,-63,-68,-64,-67,-88,-123,-137,-81,-31,-20,-4,-41,-119,-122,-122,-147,-159,-172,-189,-486,-1313,-833,2085,3842,2490,732,-400,-1052,-1164,-1082,-1033,-981,-938,-888,-840,-809,-773,-736,-719,-714,-719,-744,-754,-762,-748,-694,-618,-501,-399,-279,-157,-75,13,73,88,115,124,110,104,95,80,73,78,83,80,80,109,105,96
2018-05-14,14:38:45.702,121,125,106,99,93,89,116,168,188,215,196,111,97,111,116,111,99,86,-98,-798,-663,1705,3710,2524,1111,135,-519,-752,-707,-675,-637,-582,-546,-525,-505,-466,-441,-421,-418,-426,-432,-454,-475,-482,-434,-373,-293,-211,-117,-49,8,41,60,76,86,97,85,76,65,61,61,46,24,18,15,16,12,6,12,-1,-10,-1,-18,-26,-11,66,76,111,88,7,-14,-2,-26,-31,-22,-45,-197,-826,-762,1348,3232,2204,967,93,-524,-841,-798,-729,-685,-647,-614,-566,-531,-496,-467,-455,-443,-428,-432,-443,-439,-432,-389,-332,-271,-168,-52,21,50,84,105,124,141,151,157,152,133,136
2018-05-14,14:38:46.740,142,122,110,109,106,113,106,100,118,136,143,147,135,116,160,233,249,257,238,169,160,170,165,157,142,131,-27,-822,-830,1570,4100,3202,1405,124,-614,-769,-718,-683,-643,-584,-555,-518,-481,-444,-420,-408,-407,-407,-422,-438,-456,-466,-427,-354,-286,-179,-47,73,156,237,281,311,338,342,329,310,289,289,279,257,250,247,234,243,256,260,239,241,236,224,206,193,201,256,289,309,339,300,232,225,243,237,218,199,184,-69,-897,-598,2142,4486,3223,1287,36,-687,-816,-736,-703,-661,-619,-570,-524,-502,-469,-422,-405,-407,-417,-432,-455,-474,-463,-438,-381,-280,-167,-54,47,113
2018-05-14,14:38:47.777,178,228,263,244,241,245,234,209,185,175,148,128,118,119,101,80,67,68,61,56,52,18,-7,-11,33,80,95,105,39,-22,5,0,-10,-29,-43,-55,-341,-1091,-604,2125,3635,2285,792,-184,-814,-978,-900,-850,-819,-786,-736,-674,-625,-604,-594,-573,-558,-566,-601,-616,-620,-598,-553,-480,-381,-279,-201,-115,-52,18,74,90,114,104,98,98,90,86,71,61,58,56,73,88,89,95,96,102,94,90,94,77,75,141,171,182,208,154,76,79,88,82,66,64,44,-186,-841,-401,2064,3154,1853,736,-12,-564,-778,-713,-661,-637,-602,-575,-543,-512,-489,-468,-446,-429,-432,-449
2018-05-14,14:38:48.814,-486,-494,-470,-427,-388,-325,-233,-145,-87,-58,-24,0,0,-4,-6,3,10,0,-14,-34,-57,-63,-57,-54,-53,-34,-46,-61,-47,-60,-66,-70,-90,-49,31,51,47,55,0,-28,-3,-4,-19,-20,-14,-107,-690,-1093,512,3479,3286,1607,287,-526,-852,-801,-747,-706,-654,-604,-555,-527,-507,-471,-447,-418,-424,-459,-486,-495,-484,-460,-410,-330,-222,-105,-14,71,138,181,214,238,239,231,222,202,184,172,171,156,139,134,133,132,147,134,128,134,130,115,99,74,72,177,194,205,212,145,92,107,108,89,73,75,26,-509,-1150,141,3305,3965,2247,576,-437,-924,-887,-815,-785,-732
2018-05-14,14:38:49.851,-667,-601,-565,-534,-499,-455,-430,-434,-436,-450,-448,-429,-397,-349,-253,-142,-28,90,198,284,358,398,422,432,439,446,431,395,375,361,346,339,330,313,312,308,294,296,291,274,242,215,184,158,191,234,235,259,226,135,105,116,90,76,62,21,-114,-802,-989,1052,3597,2866,1266,97,-639,-979,-958,-925,-900,-847,-812,-789,-761,-726,-702,-702,-692,-693,-712,-710,-711,-721,-694,-632,-562,-474,-374,-290,-239,-215,-163,-116,-80,-75,-90,-120,-120,-131,-161,-175,-154,-138,-149,-158,-164,-164,-162,-155,-155,-144,-141,-158,-170,-168,-101,-70,-57,-39,-62,-128,-118,-100,-106,-129,-122,-126,-349,-1000
2018-05-14,14:38:50.889,-534,2001,3037,1710,618,-95,-617,-765,-683,-631,-611,-560,-505,-456,-426,-409,-369,-337,-328,-324,-321,-349,-370,-337,-297,-241,-154,-51,35,103,137,168,195,212,245,256,239,234,228,213,210,215,216,200,198,185,187,202,220,210,224,207,193,176,155,181,257,257,282,275,238,216,215,204,203,202,173,107,-339,-769,567,3167,2993,1553,492,-192,-634,-614,-562,-545,-483,-436,-415,-365,-339,-320,-292,-281,-289,-290,-298,-323,-330,-321,-271,-208,-119,-22,69,133,157,177,203,222,219,226,226,215,195,174,152,124,127,138,141,136,141,164,169,155,152,141,118,89,91,123,185,187
2018-05-14,14:38:51.926,206,197,125,81,95,97,82,75,68,-6,-572,-946,627,3419,3297,1591,305,-487,-862,-817,-759,-723,-673,-626,-574,-535,-515,-479,-467,-465,-473,-472,-467,-485,-500,-484,-443,-359,-286,-205,-85,0,50,95,134,153,174,175,176,149,146,126,94,88,80,67,53,43,55,56,61,79,78,68,62,33,13,21,89,111,129,130,70,28,36,35,15,0,-12,-41,-484,-1209,-201,2961,4065,2317,567,-474,-972,-968,-903,-868,-817,-762,-712,-674,-640,-609,-582,-577,-578,-597,-598,-605,-607,-595,-545,-486,-377,-259,-145,-33,44,121,182,208,217,219,231,209,160,146,135,115,105,100,92,98
2018-05-14,14:38:52.963,99,88,99,107,102,80,80,67,46,22,64,127,138,159,146,77,64,97,98,91,75,67,-19,-634,-1152,559,3961,3919,1955,346,-592,-965,-907,-844,-812,-767,-697,-638,-583,-544,-525,-507,-498,-491,-495,-531,-566,-550,-520,-467,-392,-314,-194,-73,23,113,179,203,217,216,218,213,188,164,135,106,106,113,113,93,65,69,60,55,54,44,43,35,7,-6,-16,41,74,70,79,31,-29,-27,-31,-43,-46,-54,-61,-297,-1001,-662,1937,3622,2266,796,-154,-828,-983,-896,-838,-804,-758,-712,-663,-619,-598,-557,-516,-505,-491,-500,-521,-510,-490,-440,-368,-289,-173,-66,20,80,118,156
2018-05-14,14:38:54.000,185,180,190,193,198,188,163,149,139,125,118,116,110,105,107,123,104,101,105,102,74,48,35,24,68,72,80,65,0,-27,-7,-20,-43,-53,-68,-133,-550,-967,165,2536,2424,1141,247,-373,-824,-887,-800,-783,-770,-731,-673,-647,-640,-625,-612,-601,-608,-625,-620,-629,-642,-624,-587,-528,-458,-367,-302,-267,-244,-197,-162,-158,-160,-155,-166,-168,-171,-180,-194,-191,-171,-172,-177,-182,-172,-170,-179,-190,-187,-174,-174,-187,-197,-180,-104,-81,-62,-47,-82,-133,-101,-111,-125,-120,-116,-148,-509,-978,37,2465,2568,1274,319,-310,-728,-756,-678,-643,-614,-572,-532,-489,-453,-431,-416,-403,-375,-371
2018-05-14,14:38:55.037,-377,-390,-376,-350,-312,-261,-165,-69,7,53,75,137,165,183,184,194,190,197,196,202,169,159,171,174,168,157,180,190,179,184,180,180,173,149,123,135,213,249,258,260,207,148,152,156,150,140,127,105,-255,-917,-117,2741,3574,1989,649,-188,-706,-719,-648,-615,-573,-536,-487,-436,-407,-379,-356,-350,-347,-354,-370,-388,-405,-384,-332,-268,-197,-80,16,88,149,191,217,229,244,245,252,246,231,209,185,177,173,156,165,161,164,156,173,176,174,174,150,116,90,99,177,203,209,219,173,138,164,160,142,128,121,103,-221,-953,-316,2550,4085,2486,771,-265,-816,-826
2018-05-14,14:38:56.075,-743,-707,-651,-613,-579,-532,-492,-479,-447,-424,-446,-466,-472,-491,-496,-480,-437,-363,-273,-161,-35,70,144,209,257,288,300,322,321,299,287,277,267,258,246,223,214,222,234,241,249,233,235,235,211,194,186,183,252,297,303,306,233,186,193,185,183,161,162,152,-219,-967,-174,2821,4162,2566,823,-259,-808,-831,-769,-743,-689,-635,-595,-562,-536,-497,-479,-470,-473,-497,-525,-548,-554,-540,-499,-442,-370,-258,-131,-47,27,96,142,147,147,150,140,130,112,76,38,24,1,-1,-3,-8,-29,-32,-26,-26,-42,-59,-63,-76,-113,-136,-103,-24,-21,-10,-31,-103,-123,-120,-135,-135
2018-05-14,14:38:57.112,-150,-151,-232,-871,-1260,608,3608,3317,1530,78,-809,-1136,-1070,-1012,-987,-928,-866,-801,-748,-725,-705,-671,-659,-656,-665,-680,-676,-669,-646,-591,-506,-401,-297,-179,-79,-2,65,96,102,116,121,111,85,64,50,44,48,39,22,32,22,19,28,23,16,37,31,18,10,4,-5,59,112,131,137,75,27,34,26,6,0,0,-11,-276,-930,-392,2293,3322,1918,722,-88,-673,-795,-717,-662,-628,-584,-544,-506,-479,-424,-409,-400,-379,-374,-364,-373,-369,-341,-303,-257,-160,-62,24,87,136,170,203,229,238,257,252,242,233,225,217,212,201,195,204,210,199,190,214,204,207,202,185
2018-05-14,14:38:58.149,161,163,154,219,241,247,282,224,168,171,183,167,149,138,106,-200,-754,-33,2429,3001,1664,654,-51,-587,-688,-615,-585,-555,-520,-486,-463,-457,-432,-412,-407,-403,-408,-417,-432,-444,-428,-387,-333,-266,-179,-107,-75,-55,-18,-4,0,15,17,1,-6,-10,0,-14,-29,-51,-57,-62,-64,-62,-50,-49,-61,-66,-69,-82,-93,-104,-139,-72,-1,1,8,-31,-99,-79,-66,-71,-72,-70,-83,-380,-1046,-436,2168,3311,1948,629,-248,-821,-880,-787,-770,-742,-674,-613,-589,-563,-527,-481,-461,-479,-480,-497,-502,-493,-468,-435,-378,-284,-181,-91,-28,31,85,115,130,135,148,148,120,111,99,74
2018-05-14,14:38:59.186,71,77,59,54,61,64,78,79,71,77,87,77,45,33,34,73,138,156,171,133,73,74,74,52,39,38,28,-149,-896,-709,1793,3832,2648,1010,-59,-722,-845,-769,-708,-657,-615,-578,-528,-483,-471,-453,-424,-425,-421,-435,-450,-447,-424,-390,-339,-271,-165,-47,37,106,170,213,230,244,253,259,254,241,222,202,187,172,167,161,156,143,146,133,120,140,157,151,137,103,104,96,149,196,210,214,155,122,141,139,142,134,108,87,-193,-980,-513,2332,4084,2635,907,-178,-797,-844,-759,-722,-686,-612,-561,-515,-472,-451,-433,-403,-378,-378,-394,-401,-394,-361,-291,-212,-121,-8
2018-05-14,14:39:00.224,110,221,320,372,420,456,476,472,475,482,461,449,428,401,388,381,365,367,376,365,355,355,348,353,343,316,275,239,263,320,311,334,303,204,167,162,148,100,59,38,-75,-719,-1046,838,3673,3310,1537,94,-797,-1115,-1050,-1026,-1017,-973,-947,-912,-867,-903,-1373,-1723,-1786,-1769,-1748,-1732,-1690,-1634,-1559,-1450,-1328,-1185,-1016,-870,-743,-648,-560,-484,-442,-400,-373,-362,-346,-337,-318,-321,-334,-329,-319,-315,-320,-295,-274,-272,-256,-233,-217,-219,-243,-249,-228,-131,-95,-79,-66,-122,-162,-147,-138,-133,-123,-112,-126,-533,-1043,107,2763,2880,1472,406,-317,-779,-788,-711,-660,-601,-557,-508,-457,-406
2018-05-14,14:39:01.261,-356,-329,-285,-263,-275,-272,-261,-238,-203,-158,-69,22,129,221,269,332,379,401,410,414,432,426,415,425,418,403,401,388,399,416,427,416,402,385,390,383,368,363,362,340,353,429,430,452,469,407,356,363,357,342,338,324,271,-123,-548,673,3061,2709,1495,666,52,-369,-402,-343,-307,-246,-208,-193,-175,-136,-119,-129,-104,-110,-114,-135,-155,-129,-116,-87,-19,57,141,218,265,268,286,301,299,288,301,310,322,310,280,269,247,235,223,196,194,205,223,213,223,238,226,202,156,148,186,248,263,272,263,184,142,155,150,135,137,117,0,-558,-744,1080,3407,2497
2018-05-14,14:39:02.298,1134,218,-434,-703,-638,-583,-553,-537,-492,-440,-421,-411,-395,-388,-375,-366,-383,-399,-412,-394,-360,-327,-260,-178,-76,-5,31,60,98,106,107,120,117,107,103,105,75,46,50,41,24,20,12,8,24,40,31,13,-7,-34,-54,-39,42,56,80,77,28,0,9,11,-10,-37,-55,-127,-638,-1177,196,3131,3377,1646,228,-644,-992,-912,-878,-846,-787,-738,-708,-680,-640,-619,-595,-588,-584,-579,-601,-619,-610,-582,-530,-454,-352,-239,-134,-33,28,87,127,142,150,160,149,140,124,98,85,73,49,41,28,18,15,16,9,6,17,-14,-54,-70,-64,12,54,73,55,-8,-38,-4
2018-05-14,14:39:03.335,-6,-13,-17,-27,-89,-647,-1223,299,3451,3694,1885,316,-610,-978,-934,-894,-858,-814,-774,-722,-687,-646,-609,-586,-573,-580,-587,-580,-585,-598,-573,-503,-413,-329,-219,-104,-16,61,121,160,165,161,164,166,159,134,102,69,59,53,41,28,42,45,44,37,52,55,34,9,-25,-27,35,91,107,121,71,8,9,0,-7,-4,-13,-37,-405,-1197,-432,2716,4013,2405,665,-399,-963,-966,-887,-841,-800,-751,-716,-681,-643,-589,-566,-553,-532,-537,-568,-583,-584,-559,-515,-448,-351,-241,-131,-22,50,108,143,162,187,196,187,169,164,145,107,104,100,79,74,74,71,61,60,56,55,41
2018-05-14,14:39:04.373,19,2,-8,5,87,107,131,137,53,31,39,40,22,11,3,-84,-618,-892,793,3226,2555,1192,241,-410,-805,-762,-673,-627,-581,-532,-477,-441,-407,-364,-350,-338,-303,-295,-295,-292,-267,-234,-173,-98,-23,63,126,176,220,263,303,312,326,331,323,306,303,316,301,303,295,284,269,278,292,282,274,272,260,237,210,199,178,223,255,247,263,200,123,118,119,90,51,19,-11,-285,-897,-277,2161,2948,1620,510,-256,-793,-915,-857,-827,-813,-789,-763,-740,-717,-711,-705,-698,-707,-717,-726,-752,-788,-785,-753,-687,-617,-550,-474,-433,-405,-383,-364,-350,-346,-340,-328,-335,-374,-388,-395
2018-05-14,14:39:05.410,-398,-409,-407,-421,-414,-401,-401,-391,-387,-384,-387,-394,-399,-393,-357,-296,-289,-258,-269,-339,-335,-295,-292,-308,-311,-293,-402,-1052,-1131,964,3163,2231,825,-134,-766,-981,-894,-836,-799,-761,-698,-659,-615,-569,-535,-490,-467,-460,-471,-464,-467,-450,-406,-331,-240,-149,-50,17,78,137,182,212,235,256,258,242,234,243,245,251,236,224,204,208,219,216,216,230,236,246,240,222,200,179,251,323,344,363,325,268,258,279,264,241,240,231,-14,-780,-434,2188,4117,2738,1058,27,-585,-650,-582,-544,-498,-444,-409,-372,-336,-322,-306,-290,-286,-297,-310,-337,-332,-301,-265,-215,-134,-19,92,207
2018-05-14,14:39:06.447,296,354,387,405,414,435,462,460,449,434,434,421,412,401,394,396,407,409,417,409,404,395,392,373,355,382,434,456,477,450,369,348,360,344,326,307,294,144,-593,-768,1398,4155,3501,1586,170,-623,-840,-790,-772,-765,-742,-720,-697,-661,-646,-640,-635,-628,-640,-676,-706,-733,-740,-707,-638,-566,-497,-398,-304,-240,-196,-172,-155,-134,-137,-156,-184,-201,-227,-257,-281,-310,-340,-360,-364,-364,-374,-376,-369,-367,-381,-415,-428,-439,-445,-401,-337,-331,-307,-339,-415,-402,-369,-357,-373,-375,-377,-565,-1295,-1087,1489,3662,2547,800,-359,-1034,-1157,-1057,-992,-926,-832,-756,-701,-649,-606,-566,-530,-483
2018-05-14,14:39:07.484,-468,-466,-466,-445,-395,-340,-272,-170,-40,74,200,284,358,410,431,462,490,511,518,505,492,491,489,484,467,476,484,482,478,477,502,532,532,515,484,481,468,496,542,565,585,537,476,480,501,501,487,477,453,240,-400,-51,2373,3505,2170,1121,394,-171,-355,-275,-237,-205,-176,-141,-108,-80,-74,-69,-59,-54,-71,-88,-84,-105,-97,-45,-5,50,128,199,229,236,275,296,317,326,327,319,306,296,276,258,242,227,210,224,243,225,209,192,199,210,188,165,147,138,132,193,217,243,249,179,138,157,162,146,126,117,81,-319,-889,170,2898,3184,1709,504,-287,-738
2018-05-14,14:39:08.521,-704,-646,-638,-607,-594,-550,-504,-470,-430,-438,-441,-414,-423,-449,-446,-455,-444,-393,-340,-267,-157,-62,9,69,111,133,139,156,165,150,133,108,73,69,74,68,56,38,33,51,72,32,35,30,6,-7,-25,-47,-17,70,87,92,54,-42,-45,-39,-53,-66,-47,-39,-156,-860,-1067,1017,3699,3135,1372,16,-785,-998,-931,-899,-871,-839,-788,-743,-719,-684,-642,-628,-628,-615,-613,-627,-634,-641,-628,-582,-483,-353,-251,-136,-41,43,89,123,146,156,157,147,128,113,87,63,46,32,31,33,43,29,20,5,0,-2,-1,-21,-47,-34,19,53,55,63,10,-32,-11,-16,-32,-44
2018-05-14,14:39:09.559,-41,-56,-450,-1201,-273,2766,3723,2190,582,-443,-944,-964,-901,-867,-822,-778,-724,-685,-651,-606,-590,-599,-584,-566,-572,-591,-610,-591,-545,-475,-371,-246,-127,-29,53,100,137,148,158,163,162,150,137,123,104,82,74,57,36,31,24,9,11,28,13,-3,-23,-38,-43,15,69,75,74,22,-34,-18,-25,-34,-53,-70,-85,-353,-981,-349,2295,3028,1601,550,-192,-741,-823,-752,-717,-669,-633,-589,-552,-521,-500,-482,-468,-449,-443,-460,-467,-462,-439,-410,-358,-267,-167,-104,-44,4,42,57,62,77,83,87,94,81,58,58,47,34,17,3,-3,0,8,14,10,-7,-9,-18,-28,-4
2018-05-14,14:39:10.596,71,69,85,84,22,-8,-1,7,0,-21,-27,-113,-666,-942,762,3109,2471,1123,165,-531,-859,-793,-725,-694,-655,-617,-570,-527,-498,-477,-471,-476,-461,-461,-467,-469,-463,-432,-383,-318,-225,-119,-37,25,52,78,101,121,131,124,117,97,91,82,68,51,56,39,51,53,26,22,23,18,9,-6,-24,-3,72,99,119,110,30,3,17,12,-2,-10,-9,-110,-767,-1042,898,3471,2836,1282,110,-660,-894,-811,-783,-760,-712,-648,-608,-579,-565,-550,-530,-510,-504,-500,-521,-536,-546,-514,-449,-383,-276,-150,-47,17,65,117,156,163,177,185,173,154,129,115,90,69,62,62,61,39
2018-05-14,14:39:11.633,36,49,43,25,16,-1,-18,46,99,110,114,65,11,15,30,20,13,1,-16,-305,-1076,-593,2277,3980,2564,860,-252,-866,-906,-852,-808,-755,-712,-675,-640,-605,-576,-565,-560,-551,-539,-532,-544,-557,-535,-471,-401,-324,-203,-73,18,108,170,204,218,230,253,264,261,244,223,211,200,184,174,186,196,201,198,196,210,219,191,181,184,269,317,330,352,302,251,262,257,270,271,270,215,-295,-882,457,3477,3908,2264,715,-262,-678,-643,-601,-562,-526,-484,-446,-423,-398,-383,-376,-366,-367,-393,-434,-448,-448,-438,-404,-360,-280,-178,-79,-11,30,59,71,75,56,25,13,-32,-81
2018-05-14,14:39:12.670,-114,-142,-174,-203,-223,-245,-270,-290,-304,-335,-367,-387,-418,-462,-436,-375,-382,-384,-400,-485,-513,-521,-555,-589,-595,-606,-756,-1450,-1353,990,2742,1558,289,-581,-1210,-1429,-1354,-1291,-1250,-1207,-1167,-1136,-1092,-1034,-996,-971,-931,-909,-910,-908,-908,-860,-811,-761,-663,-560,-454,-374,-332,-286,-225,-172,-133,-115,-102,-88,-77,-79,-71,-58,-48,-30,-19,-12,6,25,25,44,59,64,68,60,115,179,210,249,222,164,204,227,225,220,221,190,-144,-695,223,2867,3181,1803,775,62,-444,-473,-391,-367,-338,-302,-240,-198,-185,-167,-149,-129,-114,-105,-120,-127,-127,-99,-56,0,68,166,249,297,330,380
2018-05-14,14:39:13.708,397,401,402,412,421,392,377,361,337,332,317,306,303,291,291,293,287,266,251,234,227,255,335,336,362,340,276,247,264,257,244,235,224,61,-611,-581,1666,3679,2660,1222,249,-417,-620,-543,-504,-481,-426,-350,-326,-302,-272,-261,-246,-257,-253,-250,-256,-277,-266,-217,-153,-83,5,102,178,233,276,307,347,364,360,341,329,328,315,304,279,267,262,234,211,200,207,211,218,201,182,164,145,161,226,243,271,264,175,138,169,155,134,124,114,-35,-796,-759,1677,3914,2787,1139,25,-669,-822,-751,-705,-680,-629,-564,-532,-511,-473,-439,-420,-431,-443,-454,-472,-490,-465,-437
2018-05-14,14:39:14.745,-383,-290,-191,-74,45,116,154,184,197,209,224,230,221,196,170,165,159,132,114,94,105,103,99,100,69,65,56,36,23,50,129,162,160,164,111,67,87,92,80,68,55,-9,-565,-1038,601,3596,3523,1802,368,-498,-855,-795,-737,-704,-655,-618,-573,-530,-476,-432,-429,-425,-427,-438,-456,-471,-450,-412,-375,-319,-221,-90,1,89,163,208,231,231,234,222,221,214,190,158,125,106,106,88,72,61,63,66,76,67,52,31,14,-7,-29,51,75,85,117,36,-8,-4,-3,-16,-32,-38,-104,-611,-1000,528,3095,2752,1307,226,-492,-883,-858,-783,-760,-725,-680,-644,-618,-585
2018-05-14,14:39:15.782,-554,-547,-527,-515,-524,-528,-532,-545,-505,-467,-403,-310,-214,-138,-63,-35,-6,4,11,34,48,27,12,10,15,6,6,-11,-11,-8,-24,-22,-18,-25,-26,-18,-13,-34,-61,-49,4,43,61,99,50,-15,4,27,13,13,10,-16,-436,-946,262,2895,2756,1410,445,-229,-654,-664,-595,-545,-510,-473,-423,-379,-345,-317,-299,-271,-262,-280,-298,-303,-317,-298,-266,-201,-123,-31,51,107,150,181,197,205,202,193,186,169,165,155,120,110,84,57,42,30,29,26,6,5,-8,-28,-61,-80,-78,-39,-8,18,25,-35,-95,-93,-100,-109,-131,-153,-216,-661,-1266,-89,2826,3036,1453,169
2018-05-14,14:39:16.819,-667,-1096,-1076,-1014,-976,-940,-905,-870,-846,-825,-803,-769,-742,-746,-752,-764,-782,-794,-772,-726,-663,-561,-441,-335,-243,-180,-112,-78,-68,-57,-40,-43,-44,-57,-92,-92,-84,-85,-95,-91,-84,-73,-77,-85,-75,-65,-70,-74,-92,-89,-51,16,33,64,51,-27,-34,-10,-5,-16,-19,-25,-225,-935,-693,1863,3808,2632,1054,-61,-766,-914,-827,-771,-725,-673,-608,-570,-533,-489,-462,-449,-429,-405,-402,-417,-436,-439,-397,-327,-244,-120,-3,100,202,269,318,338,334,344,364,353,348,320,300,286,278,281,265,261,277,272,264,270,289,281,264,235,225,222,293,346,353,358,276,208,226,217
2018-05-14,14:39:17.856,219,201,184,153,-354,-949,446,3537,3591,1939,624,-255,-762,-746,-662,-626,-605,-554,-497,-453,-423,-409,-388,-356,-340,-354,-376,-393,-392,-373,-322,-248,-148,-22,81,155,204,232,246,268,279,286,278,284,264,227,219,211,194,185,182,177,169,185,207,188,174,173,149,123,113,170,208,213,232,175,99,113,131,129,104,79,74,-128,-769,-323,2314,3184,1536,634,42,-483,-703,-653,-577,-550,-528,-487,-441,-402,-377,-353,-344,-330,-319,-312,-328,-334,-320,-293,-246,-156,-89,-10,28,25,29,54,79,75,57,59,57,56,60,57,51,33,10,8,19,22,24,20,10,19,25,8
2018-05-14,14:39:18.894,-19,-21,60,99,107,123,63,4,18,19,-12,-6,8,-24,-357,-888,60,2665,2704,1170,388,-199,-707,-754,-662,-617,-579,-527,-491,-458,-427,-388,-381,-366,-360,-357,-359,-367,-370,-353,-311,-273,-195,-108,-24,45,59,71,80,81,89,88,100,103,91,69,55,44,38,30,17,9,15,16,25,33,25,14,0,-14,34,111,122,133,113,44,32,52,52,33,11,-5,-137,-798,-811,1511,3711,2478,955,3,-672,-859,-782,-748,-709,-651,-617,-577,-526,-500,-471,-463,-444,-446,-470,-480,-491,-503,-476,-410,-336,-253,-141,-28,36,78,113,127,143,167,159,135,128,116,101,83,71,68
2018-05-14,14:39:19.931,62,41,31,31,49,39,30,28,21,5,10,80,109,120,123,75,28,43,55,49,38,38,11,-425,-1137,70,3452,3732,1835,443,-457,-911,-877,-813,-781,-725,-672,-619,-588,-552,-510,-486,-480,-489,-484,-505,-522,-529,-516,-466,-403,-335,-222,-93,7,78,120,154,175,188,197,199,186,174,136,120,112,97,80,63,62,58,62,71,77,62,35,3,-4,40,110,131,143,108,41,28,40,39,28,7,-4,-184,-906,-840,1731,4136,2819,1053,-89,-837,-1001,-903,-860,-812,-749,-691,-650,-623,-577,-547,-514,-489,-501,-530,-542,-546,-537,-519,-451,-359,-245,-138,-16,76,114,149,176,214
2018-05-14,14:39:20.968,215,211,202,185,165,146,130,121,104,94,103,112,112,99,93,80,73,56,35,58,144,177,183,165,96,75,98,91,83,74,65,-19,-581,-854,1009,3550,2695,1156,198,-454,-785,-726,-661,-617,-567,-519,-465,-439,-405,-367,-340,-325,-312,-340,-345,-358,-364,-332,-279,-219,-146,-60,40,106,150,178,196,207,219,228,215,187,168,151,137,129,124,112,109,119,120,115,115,106,87,72,61,71,147,163,154,151,83,45,64,62,40,9,4,-75,-568,-909,737,3206,2253,927,123,-472,-795,-737,-666,-645,-619,-579,-533,-504,-490,-479,-461,-449,-461,-467,-470,-488,-505,-488,-474,-425
2018-05-14,14:39:22.005,-350,-261,-170,-109,-91,-96,-83,-57,-54,-54,-60,-67,-71,-91,-96,-105,-119,-130,-120,-120,-113,-107,-110,-111,-119,-141,-142,-88,-21,-13,4,-16,-86,-93,-69,-80,-99,-102,-110,-307,-966,-732,1734,3398,1943,621,-208,-825,-935,-818,-772,-742,-686,-640,-601,-552,-526,-503,-484,-472,-457,-477,-500,-507,-496,-469,-412,-319,-225,-113,-25,10,43,77,94,116,119,124,134,116,76,74,55,26,13,25,29,43,46,38,41,34,13,-8,-1,91,119,132,129,61,30,55,46,37,28,17,-69,-639,-1096,607,3566,3193,1470,225,-580,-911,-867,-787,-731,-672,-595,-548,-523,-505,-479,-451,-435,-424
2018-05-14,14:39:23.043,-440,-478,-491,-474,-439,-383,-326,-239,-120,-12,56,105,143,172,195,203,213,211,191,177,154,129,121,115,106,79,95,115,100,100,93,72,50,33,74,124,162,195,156,91,69,86,104,93,81,69,-234,-1030,-371,2765,4047,2268,721,-228,-805,-818,-749,-725,-688,-616,-542,-503,-465,-443,-425,-404,-394,-395,-406,-421,-439,-416,-364,-294,-222,-115,-9,71,128,160,200,227,257,264,244,237,225,211,185,151,130,152,147,138,140,139,151,143,120,91,46,103,213,211,233,218,131,128,130,123,115,108,90,-92,-793,-604,1990,3927,2462,914,-41,-671,-781,-685,-641,-597,-575,-541
2018-05-14,14:39:23.880,-478,-428,-418,-363,-320,-334,-332,-322,-343,-358,-355,-309,-242,-146,-62,24,95,190,265,269,263,276,279,298,280,262,239,244,216,185,161,147,164,153,136,143,132,124,95,56,29,88,141,150,172,129,38,19,33,18,6,0,-37,-434,-1016,145,2913,2739,1188,229,-399,-825,-825,-761,-721,-677,-650,-636,-583,-552,-534,-532,-525,-530,-535,-550,-559,-564,-536,-499,-451,-386,-306,-210,-154,-131,-111,-100,-84,-90,-83,-68,-69,-87,-104,-115,-123,-121,-143,-155,-151,-157,-149,-146,-142,-151,-141,-176,-196,-116,-68,-57,-29,-63,-91,-71,-82,-87,-95,-108,-166,-663,-1105,504,3402,2878,1189,82
2018-05-14,14:39:24.917,-646,-916,-812,-745,-710,-671,-626,-573,-537,-507,-481,-456,-461,-469,-463,-468,-490,-479,-432,-385,-332,-242,-136,-30,46,96,145,151,171,184,189,198,178,154,143,136,137,128,117,121,127,117,112,110,113,111,77,74,69,75,150,169,194,182,94,85,111,121,108,97,92,-86,-813,-641,1919,3960,2593,937,-83,-710,-814,-727,-690,-657,-607,-571,-532,-502,-473,-445,-426,-402,-379,-399,-443,-450,-427,-395,-339,-256,-156,-49,42,116,182,212,233,251,268,272,266,233,204,184,179,165,139,127,126,124,127,128,120,127,120,110,100,83,113,181,201,218,184,100,105,106,95,85
2018-05-14,14:39:25.954,54,36,-211,-974,-383,2572,3848,2226,705,-247,-799,-825,-747,-714,-676,-627,-583,-542,-503,-467,-441,-418,-416,-431,-454,-468,-473,-463,-422,-374,-281,-167,-53,28,95,150,184,209,208,212,209,189,174,152,122,118,139,125,101,95,96,93,88,114,120,87,75,62,48,21,66,145,147,149,87,36,61,69,62,64,48,24,-300,-1002,-152,2902,3699,1935,537,-356,-856,-844,-786,-756,-694,-642,-603,-558,-522,-499,-477,-453,-457,-455,-459,-490,-509,-493,-465,-405,-323,-206,-80,27,95,140,188,201,208,204,182,176,160,121,126,123,100,85,86,84,80,87,88,92,90,85,67,54
2018-05-14,14:39:26.991,35,13,50,104,111,151,124,33,37,56,43,41,47,36,-177,-808,-413,2046,3184,1662,600,-86,-642,-775,-684,-635,-595,-562,-516,-456,-428,-402,-383,-364,-360,-373,-376,-379,-383,-385,-363,-316,-250,-151,-40,15,57,76,92,110,117,131,122,105,93,80,73,66,74,51,46,47,40,41,57,66,63,69,59,33,-9,2,98,139,150,172,111,67,100,88,84,83,72,55,-343,-846,349,3002,2866,1355,423,-225,-648,-616,-530,-483,-440,-396,-353,-304,-285,-254,-208,-187,-185,-192,-193,-215,-224,-197,-158,-101,-31,33,137,225,257,289,300,299,294,294,294,273,271,245,224,193
2018-05-14,14:39:28.029,174,162,143,147,128,109,105,95,81,70,62,41,12,14,83,99,105,98,13,-48,-51,-50,-77,-89,-103,-176,-748,-1180,635,3463,2778,1105,-60,-836,-1102,-1017,-961,-932,-892,-847,-818,-791,-764,-776,-744,-704,-694,-720,-748,-783,-790,-758,-708,-674,-594,-439,-302,-227,-182,-111,-70,-68,-74,-66,-59,-80,-94,-101,-125,-138,-156,-151,-148,-153,-160,-166,-154,-150,-146,-150,-154,-177,-196,-168,-98,-83,-50,-75,-146,-157,-128,-121,-105,-106,-107,-289,-1048,-884,1831,3975,2507,831,-261,-947,-1001,-897,-843,-800,-757,-694,-627,-597,-555,-532,-511,-502,-490,-472,-471,-492,-484,-447,-399,-322,-234,-85,71,165
2018-05-14,14:39:29.066,241,291,316,338,327,316,300,272,259,261,228,205,206,199,186,199,209,217,202,184,190,140,157,147,127,193,239,264,238,129,102,134,160,172,151,128,48,-473,-770,980,3412,2577,1126,232,-397,-712,-629,-562,-550,-501,-451,-424,-399,-376,-360,-308,-297,-312,-323,-342,-355,-354,-332,-299,-263,-188,-71,21,91,132,155,150,160,157,169,184,170,152,152,124,122,127,117,121,117,122,108,100,110,98,78,63,56,51,121,162,178,172,94,57,88,79,72,65,31,-36,-547,-824,888,3181,2276,958,159,-445,-728,-663,-606,-569,-535,-492,-455,-432,-421,-404,-351,-343,-338,-340
2018-05-14,14:39:30.103,-370,-373,-370,-352,-314,-256,-174,-85,-4,82,112,127,143,158,160,164,158,146,118,113,114,109,97,91,94,89,67,86,100,74,64,41,17,11,43,107,118,147,128,70,54,65,75,55,41,30,-196,-936,-466,2330,3554,1854,570,-251,-778,-773,-701,-678,-635,-593,-556,-510,-479,-456,-431,-419,-416,-419,-437,-460,-482,-475,-434,-384,-311,-207,-83,24,89,151,191,184,197,221,208,183,162,157,152,133,111,101,108,96,92,88,78,71,79,78,45,22,82,162,179,206,157,96,101,97,83,86,94,68,-186,-914,-464,2301,3817,2273,725,-245,-790,-792,-713,-702,-659,-591
2018-05-14,14:39:31.140,-546,-504,-473,-461,-447,-447,-420,-408,-434,-456,-462,-469,-432,-370,-286,-183,-75,28,104,166,214,226,240,245,219,219,192,170,151,123,114,98,106,104,85,77,84,77,65,32,29,36,75,128,133,149,122,32,36,42,17,20,0,-11,-291,-1047,-359,2582,3633,2047,606,-328,-843,-844,-784,-742,-686,-639,-610,-574,-542,-530,-502,-468,-462,-476,-496,-506,-503,-508,-485,-431,-355,-238,-129,-36,46,103,135,163,172,171,168,143,123,115,91,84,86,61,52,61,49,39,39,32,12,-2,-12,-13,29,93,98,107,56,-9,-12,0,-3,0,7,-19,-278,-948,-401,2319,3218,1613
2018-05-14,14:39:32.178,455,-225,-743,-788,-700,-656,-628,-590,-532,-494,-473,-423,-384,-359,-358,-348,-356,-375,-368,-333,-311,-251,-147,-56,40,116,163,212,234,261,296,313,298,301,320,324,300,292,281,256,262,274,249,233,245,244,191,277,313,253,306,343,350,346,277,226,227,230,216,177,172,145,-214,-751,206,2761,2766,1260,383,-234,-683,-690,-613,-609,-592,-552,-525,-503,-514,-506,-482,-481,-475,-487,-521,-520,-533,-535,-497,-445,-397,-330,-254,-195,-180,-165,-145,-160,-174,-177,-175,-187,-209,-222,-242,-253,-251,-267,-272,-285,-293,-289,-285,-288,-297,-305,-313,-319,-241,-203,-183,-192,-275,-297,-262,-262,-285,-301
2018-05-14,14:39:52.246,10,17,31,71,22,-19,-67,-136,-168,-177,-206,-251,-296,-329,-411,-886,-1243,21,2315,1693,367,-203,-535,-813,-813,-631,-503,-403,-337,-286,-241,-196,-161,-122,-87,-34,6,43,101,148,212,285,338,361,361,356,328,285,274,264,249,250,233,207,196,197,194,182,173,109,9,-70,-137,-167,-157,-138,-125,-77,-31,-18,2,0,-86,-115,-55,32,106,165,192,81,-495,-494,1599,3545,2180,771,37,-506,-838,-783,-682,-614,-552,-471,-422,-416,-434,-472,-489,-517,-553,-557,-498,-445,-392,-315,-268,-228,-156,-84,-46,-20,-48,-102,-191,-255,-273,-299,-352,-449,-516,-515,-493,-478,-463,-449,-442,-450
2018-05-14,14:39:53.358,-513,-537,-465,-285,-61,97,253,399,467,513,557,577,564,547,511,353,-258,-353,1740,4291,3163,1545,578,-14,-423,-435,-380,-377,-374,-342,-322,-308,-288,-271,-262,-257,-251,-246,-272,-287,-300,-293,-259,-217,-160,-63,17,19,-15,-29,-45,-74,-75,-24,-17,-20,-18,-8,6,30,56,59,62,43,5,-35,-32,40,71,53,64,43,-12,-30,-16,12,47,58,23,-243,-843,-338,2096,2905,1438,537,14,-413,-666,-592,-523,-524,-504,-474,-450,-470,-479,-487,-484,-450,-548,-730,-775,-754,-755,-723,-644,-553,-468,-395,-361,-372,-411,-457,-480,-443,-327,-160,30,198,306,366,400,395,384,366,335,318
2018-05-14,14:39:54.395,281,256,260,351,439,471,481,451,363,327,309,281,267,258,209,-120,-742,-45,2698,3410,1732,669,11,-481,-652,-617,-640,-655,-620,-598,-581,-550,-531,-514,-506,-492,-462,-432,-413,-369,-305,-229,-136,-44,65,157,191,162,118,89,42,7,-3,-6,-22,-41,-55,-58,-40,-27,-42,-57,-32,-10,-20,-34,-57,-42,8,25,51,93,96,105,129,125,98,56,20,-212,-1030,-879,1737,3807,2256,675,-311,-919,-1231,-1170,-1066,-1031,-977,-937,-923,-926,-936,-904,-839,-745,-574,-437,-317,-185,-68,47,148,213,222,265,310,325,328,347,365,363,367,383,383,367,342,293,252,231,209,209,207,194
2018-05-14,14:39:55.432,170,146,117,112,156,176,182,172,103,36,8,-28,-49,-34,-35,-116,-588,-715,1030,3181,1922,601,25,-386,-734,-722,-606,-499,-434,-370,-328,-284,-266,-279,-288,-294,-307,-314,-309,-307,-301,-285,-241,-160,-79,-3,66,70,56,34,14,-6,-20,-15,0,19,39,29,13,-13,-43,-53,-74,-96,-66,-87,-293,-413,-374,-340,-299,-280,-312,-349,-322,-291,-312,-341,-395,-499,-1077,-1404,112,2559,1918,639,82,-206,-423,-365,-213,-150,-141,-125,-90,-62,-37,1,51,84,112,117,111,96,50,59,84,113,158,221,248,268,250,223,203,188,153,145,146,136,113,50,-12,-67,-108,-122,-117,-136
2018-05-14,14:39:56.470,-143,-139,-153,-141,-51,44,83,125,129,96,105,161,170,160,150,109,-155,-759,-217,2466,3646,1803,525,-145,-688,-902,-801,-737,-679,-613,-561,-511,-481,-467,-480,-497,-452,-416,-418,-403,-393,-396,-375,-320,-251,-190,-117,-85,-67,-23,-82,-221,-264,-264,-260,-210,-183,-205,-230,-267,-297,-353,-415,-429,-364,-253,-132,-18,107,305,414,462,503,442,330,290,233,189,179,191,162,-346,-749,977,4103,3594,1685,541,-136,-592,-652,-606,-597,-608,-613,-586,-555,-519,-475,-433,-400,-413,-448,-483,-499,-525,-518,-460,-414,-350,-252,-109,-26,15,64,107,129,152,165,175,177,175,192,189,168,140,118,84
2018-05-14,14:39:57.507,93,116,103,69,31,19,77,101,115,113,51,31,44,33,29,35,17,-149,-841,-912,1487,4445,3285,1323,117,-559,-954,-956,-865,-796,-704,-643,-783,-983,-1137,-1129,-1074,-1049,-978,-893,-840,-796,-751,-713,-727,-734,-573,-328,-62,135,232,336,391,430,461,458,432,367,304,251,217,212,252,282,296,305,306,288,239,209,239,309,308,333,331,245,229,238,228,190,154,107,-127,-724,-207,2324,3186,1546,589,-9,-489,-775,-749,-699,-660,-616,-572,-538,-493,-442,-385,-324,-274,-213,-178,-171,-156,-163,-169,-177,-162,-120,-63,10,40,25,14,13,-14,-40,-47,-28,-46,-64,-45,-17,-7,17
2018-05-14,14:39:58.544,24,21,27,7,-11,-10,17,79,130,168,177,57,-107,-214,-345,-435,-439,-444,-461,-731,-1283,-527,2138,2760,1162,179,-388,-840,-999,-882,-751,-648,-546,-462,-402,-323,-250,-189,-175,-186,-198,-202,-174,-113,-45,21,98,175,234,297,351,351,318,296,292,281,268,269,262,248,218,190,162,133,93,49,1,-29,-33,-53,-91,-126,-96,-37,-13,19,-26,-124,-166,-161,-172,-178,-147,-141,-337,-897,-272,2554,3700,1837,608,-30,-542,-775,-705,-658,-618,-574,-513,-480,-486,-478,-439,-414,-399,-377,-338,-307,-295,-289,-266,-219,-136,-50,60,142,190,204,216,227,210,205,176,109,23,-96,-264,-390
2018-05-14,14:39:59.581,-431,-434,-418,-408,-389,-372,-370,-367,-387,-362,-303,-278,-207,-157,-151,-46,61,125,200,260,290,148,-523,-458,1917,4145,2587,1160,381,-118,-435,-410,-337,-320,-295,-282,-271,-227,-179,-157,-142,-132,-116,-116,-126,-147,-158,-132,-99,-49,9,70,89,64,36,-14,-38,-40,-37,-35,-63,-71,-104,-115,-113,-110,-84,-19,33,54,41,35,22,1,50,68,72,91,28,-49,-79,-86,-103,-105,-93,-72,-322,-881,-181,2387,3217,1690,642,12,-480,-695,-654,-616,-578,-529,-483,-460,-437,-403,-410,-427,-470,-534,-589,-621,-581,-628,-713,-679,-568,-445,-360,-325,-274,-259,-248,-227,-170,-72,8,97,165,190
2018-05-14,14:40:00.619,196,204,200,191,151,122,113,122,138,159,202,296,359,376,396,339,251,235,234,229,232,210,174,-149,-745,66,2853,3183,1586,597,-35,-525,-716,-621,-583,-568,-539,-481,-402,-360,-358,-369,-364,-372,-377,-390,-391,-350,-256,-128,-3,68,109,142,141,97,40,-24,-53,-81,-108,-126,-141,-144,-143,-147,-120,-91,-75,-97,-98,-69,-52,-54,-60,-50,14,98,137,177,147,57,35,26,0,-37,-80,-107,-299,-1008,-977,997,2699,1568,305,-409,-917,-1103,-998,-959,-964,-893,-714,-540,-404,-279,-179,-102,-66,-66,-95,-147,-201,-233,-219,-170,-91,3,120,231,303,326,335,344,338,325,298,285
2018-05-14,14:40:01.656,267,241,220,219,219,201,185,171,163,124,88,42,31,97,161,120,52,44,50,64,7,-89,-158,-178,-161,-255,-761,-623,1344,3042,1847,697,113,-352,-509,-425,-422,-428,-410,-393,-374,-360,-347,-307,-291,-295,-296,-298,-300,-288,-272,-278,-268,-238,-205,-131,-62,-11,22,64,101,97,113,90,49,15,-15,-55,-67,-45,-119,-222,-314,-367,-398,-415,-447,-450,-429,-420,-428,-357,-243,-178,-64,76,158,203,242,271,118,-542,-489,1887,4092,2710,1240,376,-205,-536,-481,-420,-394,-355,-315,-282,-253,-242,-252,-263,-267,-296,-326,-338,-333,-324,-290,-229,-177,-117,-62,-22,-4,-3,-11,4,16,4
2018-05-14,14:40:02.693,-28,-34,-15,7,34,45,30,49,97,135,165,199,157,98,78,127,145,130,101,46,-21,1,36,41,29,29,24,-272,-781,59,2610,2765,1265,435,-99,-549,-744,-676,-606,-566,-516,-486,-439,-413,-388,-389,-371,-458,-725,-880,-903,-908,-873,-806,-733,-618,-517,-445,-393,-408,-474,-505,-465,-353,-206,-79,25,128,217,253,289,306,298,289,287,319,342,346,375,456,532,536,552,499,395,355,354,323,296,278,225,76,-502,-549,1403,3418,2263,1080,345,-201,-606,-620,-541,-527,-468,-425,-410,-381,-366,-382,-394,-384,-358,-314,-278,-238,-166,-83,-29,2,35,45,47,22,-28,-68,-103,-103
2018-05-14,14:40:03.730,-93,-87,-84,-79,-61,-48,-39,-52,-97,-111,-83,-84,-75,-80,-113,-98,14,114,165,195,150,83,64,38,-13,-55,-59,-198,-766,-1526,-701,2062,2585,1058,16,-605,-1059,-1195,-1137,-1138,-1113,-1033,-877,-694,-510,-354,-234,-165,-101,-62,-62,-74,-79,-62,-32,20,97,207,312,387,409,387,364,339,317,319,294,272,252,241,234,209,187,179,182,176,165,173,157,128,160,231,221,228,218,164,127,120,95,64,42,35,-97,-647,-471,1663,3221,1603,550,78,-314,-619,-602,-570,-566,-558,-520,-466,-398,-344,-316,-286,-271,-246,-211,-215,-268,-337,-362,-306,-234,-148,-65,3,70,101,73,62
2018-05-14,14:40:04.767,53,50,27,-12,-82,-160,-291,-384,-431,-454,-442,-379,-316,-284,-281,-292,-274,-302,-387,-399,-398,-377,-244,-102,-8,69,139,150,-97,-657,-86,2248,2853,1412,546,53,-366,-517,-399,-326,-289,-247,-208,-199,-180,-167,-151,-130,-130,-127,-147,-167,-183,-165,-116,-86,-36,36,106,157,169,144,117,92,57,27,20,-12,-40,-61,-108,-129,-108,-71,-8,62,135,151,148,146,209,241,199,161,102,4,-11,0,5,19,24,20,-258,-880,-231,2469,3558,1858,543,-198,-755,-916,-806,-719,-670,-617,-542,-499,-472,-448,-398,-370,-451,-598,-743,-855,-884,-855,-793,-680,-587,-499,-408,-371,-369,-399,-462,-488
2018-05-14,14:40:05.805,-472,-381,-240,-84,22,125,196,246,277,282,278,269,265,261,266,311,410,484,528,562,509,436,422,402,365,351,349,326,-131,-733,438,3406,3409,1749,646,-63,-580,-713,-611,-569,-585,-582,-531,-487,-466,-463,-440,-408,-402,-397,-356,-337,-324,-256,-162,-72,12,98,164,194,168,103,54,33,20,-13,-40,-43,-54,-80,-80,-45,-39,-50,-52,-37,-21,-29,-35,-4,44,59,80,45,-26,-17,3,-1,-21,-31,-48,-235,-754,-537,1314,2551,1276,349,-230,-627,-916,-872,-797,-771,-772,-768,-802,-829,-824,-755,-628,-458,-310,-201,-126,-70,-23,0,7,36,75,143,209,267,317,348,378,406
2018-05-14,14:40:06.842,397,366,339,293,256,221,203,188,183,143,130,98,63,65,62,120,187,220,266,267,173,114,104,66,17,-37,-60,-321,-970,-288,2577,3430,1657,524,-104,-562,-603,-458,-386,-353,-326,-326,-340,-339,-335,-349,-364,-352,-328,-323,-295,-254,-223,-195,-150,-89,-29,20,57,54,5,-40,-49,-31,30,60,23,-18,-42,-36,-17,16,56,-61,-214,-344,-449,-457,-372,-296,-246,-200,-275,-378,-449,-523,-601,-627,-573,-508,-755,-932,175,2155,1898,833,326,-65,-437,-484,-354,-282,-226,-134,-73,-22,26,51,63,68,48,3,-16,-11,-8,-19,-29,-21,-2,27,95,142,160,156,145,160,147,137
2018-05-14,14:40:07.879,98,62,39,8,-14,-30,0,5,-10,13,37,38,39,121,232,268,305,264,161,103,86,56,10,-8,-41,-235,-918,-616,1717,3196,1759,507,-184,-683,-762,-673,-667,-649,-597,-562,-537,-469,-366,-323,-292,-271,-274,-324,-377,-416,-441,-435,-420,-418,-397,-384,-380,-365,-349,-319,-310,-331,-324,-330,-362,-364,-343,-310,-225,-128,-72,-44,-13,7,-1,-4,47,170,225,299,357,354,370,424,442,435,423,399,256,-326,-403,1415,3613,2777,1224,285,-346,-592,-518,-475,-438,-387,-351,-314,-274,-265,-242,-215,-228,-257,-269,-308,-363,-381,-370,-337,-264,-150,-29,110,211,264,309,340,330,299,270,231
2018-05-14,14:40:08.916,168,127,101,68,51,34,19,18,65,54,108,142,188,177,134,109,20,-89,-90,-41,-4,9,13,-12,-545,-1260,63,3541,3952,2054,492,-410,-1061,-1330,-1358,-1291,-1221,-1167,-1138,-1099,-1044,-1050,-1087,-1097,-1062,-987,-855,-697,-519,-378,-271,-124,28,138,233,318,386,409,455,493,522,551,566,506,438,424,396,419,437,428,444,455,443,423,432,453,426,394,318,218,172,209,228,228,262,297,50,-587,178,2980,3571,1840,993,475,-34,-268,-177,-124,-152,-118,-118,-94,-88,-61,-44,-52,-86,-159,-185,-190,-214,-211,-167,-125,-34,32,89,129,153,123,44,6,-40,-53,-88,-89,-69,-78
2018-05-14,14:40:09.954,-71,-72,-68,-62,-66,-3,6,0,-64,-98,-176,-188,-136,-167,-187,-109,-42,-70,-141,-190,-284,-863,-1245,660,3815,3016,1465,496,-185,-700,-889,-833,-782,-758,-724,-654,-598,-554,-505,-508,-524,-492,-444,-454,-432,-370,-313,-243,-173,-132,-140,-153,-179,-246,-296,-298,-272,-253,-237,-217,-208,-193,-167,-133,-73,-33,-11,4,24,-23,-87,-80,-72,-85,-30,-46,-114,-114,-105,-117,-110,-108,-152,-450,-968,-434,1657,2163,881,72,-410,-746,-816,-697,-648,-654,-673,-675,-626,-543,-470,-433,-440,-452,-481,-498,-519,-527,-519,-491,-443,-379,-291,-214,-281,-426,-577,-621,-596,-521,-457,-400,-354,-326,-380,-442,-501,-515
2018-05-14,14:40:10.991,-457,-350,-226,-92,34,189,351,404,415,380,284,215,200,190,194,206,214,2,-546,-106,2018,3136,1801,667,20,-464,-464,-396,-385,-365,-335,-322,-309,-274,-264,-262,-253,-259,-256,-264,-294,-342,-377,-382,-354,-319,-274,-232,-178,-121,-62,-11,26,65,84,101,109,126,150,148,105,54,17,-12,-46,-85,-105,-64,-19,1,34,22,-33,-33,-9,-31,-48,-58,-72,-361,-969,-415,1975,2877,1572,533,-91,-593,-764,-719,-717,-715,-700,-661,-587,-575,-718,-812,-791,-743,-722,-675,-667,-648,-662,-648,-582,-443,-253,-120,2,104,205,271,335,389,410,399,355,313,291,285,251,280,268,248,207,179
2018-05-14,14:40:12.028,179,242,275,319,346,318,308,317,298,282,235,176,-33,-893,-1103,1246,4259,3395,1543,294,-389,-732,-715,-627,-615,-605,-579,-536,-504,-470,-421,-369,-322,-251,-200,-180,-177,-176,-184,-202,-207,-198,-183,-141,-96,-83,-57,-10,27,47,80,65,14,-22,-32,-33,-13,-6,51,103,106,157,233,267,311,308,199,82,32,10,-24,-47,-102,-300,-1064,-863,2031,3805,2311,1076,201,-436,-849,-945,-873,-759,-620,-523,-463,-412,-359,-323,-324,-322,-319,-330,-316,-278,-236,-169,-82,3,58,103,133,150,115,88,84,73,25,-15,-33,-54,-102,-131,-138,-143,-164,-169,-150,-80,22,124,193,297,327,294
2018-05-14,14:40:13.065,311,343,317,270,224,156,-304,-771,851,3769,2864,1213,592,122,-380,-604,-597,-600,-627,-643,-623,-607,-597,-567,-526,-474,-431,-386,-336,-302,-266,-246,-197,-150,-110,-90,-70,-53,-52,-41,-10,0,-13,-27,-5,-45,-45,-18,-30,-39,-47,-60,-89,-155,-130,-69,-13,46,46,-23,-68,-101,-139,-144,-97,-78,-578,-1052,820,4214,3645,1600,510,-203,-726,-862,-800,-732,-644,-570,-545,-524,-510,-510,-477,-434,-429,-435,-430,-455,-450,-399,-311,-229,-152,-41,47,88,87,37,-18,-14,133,158,113,88,105,136,134,118,98,52,12,3,47,124,193,253,291,279,292,308,279,226,175,92,-348,-861
2018-05-14,14:40:14.103,600,3750,3090,1144,229,-255,-660,-757,-664,-612,-589,-562,-535,-518,-502,-471,-430,-414,-414,-413,-408,-393,-365,-318,-257,-205,-119,-40,45,17,-111,-264,-324,-342,-337,-282,-186,-123,-88,-101,-166,-294,-372,-360,-305,-193,0,163,201,228,241,211,202,219,173,106,59,-20,-548,-863,806,3656,3103,1317,341,-226,-623,-648,-556,-511,-480,-458,-445,-431,-397,-370,-369,-366,-355,-371,-357,-334,-314,-283,-235,-152,-35,63,147,167,110,39,20,34,48,52,36,4,6,22,47,90,110,118,92,65,98,119,108,118,96,36,10,47,74,89,97,20,-406,-941,233,3417,3939,1827,413,-342,-875,-922
2018-05-14,14:40:15.140,-835,-816,-779,-712,-656,-601,-554,-520,-499,-510,-538,-595,-697,-834,-863,-779,-664,-550,-473,-395,-317,-254,-173,-107,-5,125,228,265,254,254,264,236,217,179,130,121,120,132,170,269,348,368,397,365,300,279,257,256,250,208,103,-553,-773,1216,3679,2538,1122,215,-378,-821,-876,-775,-682,-583,-506,-459,-428,-358,-294,-289,-336,-378,-393,-364,-371,-347,-259,-160,-84,32,113,166,190,167,81,3,-44,-53,-84,-97,-95,-104,-124,-139,-102,-101,-111,-121,-127,-104,-54,-18,27,50,31,9,32,58,71,65,34,-171,-797,-531,1628,2908,1493,330,-417,-932,-1248,-1206,-1096,-1034,-982,-942,-933,-928
2018-05-14,14:40:16.177,-912,-915,-928,-892,-796,-618,-419,-240,-90,60,180,257,305,312,294,273,258,261,315,354,399,462,488,488,467,425,380,372,371,361,346,319,295,323,358,371,367,341,289,290,312,268,217,176,39,-445,-296,1561,2900,1359,377,-82,-454,-678,-570,-477,-421,-379,-317,-236,-187,-146,-110,-111,-125,-155,-191,-234,-248,-247,-199,-147,-116,-57,7,17,4,-41,-68,-49,-12,-71,-101,-113,-146,-179,-184,-170,-158,-144,-120,-96,-97,-92,-71,-12,29,46,60,-55,-186,-224,-232,-265,-302,-283,-484,-1172,-776,1752,3093,1453,162,-457,-823,-878,-668,-504,-390,-309,-234,-195,-203,-216,-224,-234,-233,-201
2018-05-14,14:40:17.214,-140,-98,-75,-22,58,118,149,189,241,272,256,210,181,162,152,152,148,117,99,92,96,102,108,131,128,84,47,11,7,20,41,61,52,-14,-30,-17,-17,-26,-47,-41,-237,-689,-92,2153,2813,1171,297,-121,-493,-665,-563,-516,-494,-481,-443,-405,-360,-306,-302,-299,-306,-347,-360,-404,-429,-432,-358,-236,-152,-65,3,48,65,11,-47,-80,-120,-160,-233,-306,-335,-376,-426,-471,-494,-505,-496,-472,-450,-448,-448,-401,-341,-330,-269,-175,-129,-36,65,129,183,254,258,-160,-722,409,3397,3613,1774,624,-3,-390,-351,-238,-176,-137,-115,-110,-114,-106,-76,-62,-73,-84,-99,-116,-134,-157
2018-05-14,14:40:18.251,-155,-105,-65,-20,41,94,123,78,50,53,58,31,-16,-23,-59,-77,-66,-77,-79,-65,-20,52,92,123,124,132,145,201,219,220,188,111,48,28,-9,-75,-123,-148,-292,-897,-756,1445,3566,2363,830,5,-522,-821,-749,-636,-572,-500,-433,-376,-339,-358,-389,-410,-419,-451,-469,-497,-556,-582,-539,-539,-604,-612,-623,-633,-639,-655,-702,-745,-796,-835,-749,-549,-337,-142,26,125,184,236,265,253,210,182,179,197,304,475,575,670,726,706,698,673,639,605,576,539,217,-546,79,3039,4124,2435,973,78,-482,-672,-623,-593,-623,-653,-663,-587,-465,-358,-246,-220,-284,-358,-428,-497,-515,-497
2018-05-14,14:40:19.289,-440,-335,-227,-97,16,107,151,123,86,50,6,-37,-65,-91,-113,-117,-124,-133,-130,-106,-64,-39,-5,-5,-8,8,79,140,120,121,99,57,44,40,21,32,41,0,-271,-846,-301,2026,2802,1369,363,-297,-804,-1132,-1112,-1054,-1036,-978,-976,-1015,-983,-897,-745,-597,-453,-344,-256,-190,-152,-128,-110,-109,-105,-67,24,110,208,287,352,395,399,386,370,299,246,227,197,185,188,184,180,195,210,227,226,230,249,292,297,308,282,182,120,80,10,-22,-32,-56,-248,-888,-466,2017,3131,1513,439,-123,-596,-784,-656,-541,-487,-424,-362,-325,-307,-305,-305,-310,-310,-343,-382,-408,-392,-369
2018-05-14,14:40:20.326,-316,-243,-141,-59,3,50,66,83,95,86,43,21,12,-3,2,-2,-1,-17,-29,-32,-12,31,56,-130,-316,-341,-362,-333,-298,-225,-179,-241,-254,-238,-262,-325,-383,-380,-495,-1116,-1068,1193,3750,2649,942,84,-452,-731,-680,-626,-593,-535,-477,-388,-304,-208,-112,-43,0,12,11,7,4,13,24,50,90,124,172,206,249,269,254,278,289,265,228,157,47,-64,-68,48,116,141,121,108,109,68,-6,-42,-21,93,148,151,175,148,135,160,172,161,150,134,89,-371,-774,602,3129,2495,1062,258,-292,-707,-753,-596,-498,-469,-468,-393,-320,-309,-307,-312,-297,-285,-270,-261,-239,-253
2018-05-14,14:40:21.363,-208,-159,-85,-27,15,14,-31,-113,-177,-272,-335,-316,-295,-262,-241,-264,-309,-353,-360,-302,-220,-109,-16,30,56,58,65,150,204,177,153,100,55,112,165,197,244,298,294,-71,-678,347,3440,4073,2118,756,-57,-612,-711,-641,-631,-623,-592,-544,-511,-468,-461,-446,-455,-518,-525,-441,-443,-473,-450,-376,-314,-292,-256,-179,-122,-139,-141,-110,-38,11,67,130,200,232,236,207,160,98,72,65,68,68,80,88,73,96,151,183,212,219,184,173,183,148,141,111,64,-198,-911,-457,2148,3176,1767,719,27,-505,-820,-790,-725,-753,-804,-869,-892,-821,-721,-660,-628,-619,-624,-642,-646,-602
2018-05-14,14:40:22.400,-499,-352,-198,-79,6,50,88,109,88,43,-16,-46,-37,-24,-9,9,28,41,34,43,41,32,26,19,17,29,31,67,69,52,42,-18,-73,-80,-77,-65,-52,-68,-191,-628,-863,369,2330,1698,509,-28,-416,-715,-699,-564,-511,-471,-418,-347,-261,-187,-115,-68,-62,-81,-108,-140,-171,-194,-217,-219,-182,-117,-44,21,72,55,5,-8,-30,-35,-87,-141,-166,-179,-185,-192,-135,-64,-48,-48,-73,-70,-59,-21,37,92,61,-24,-172,-351,-412,-377,-337,-323,-304,-295,-547,-1136,-611,1561,2132,766,-85,-500,-798,-674,-433,-297,-191,-113,-83,-83,-91,-124,-141,-115,-65,-21,33,91,114,127
2018-05-14,14:40:23.438,162,186,174,192,236,312,360,328,297,262,233,178,119,76,38,26,61,110,134,141,151,167,185,162,141,101,146,149,146,174,115,65,104,149,181,206,220,129,-387,-423,1254,3078,2096,782,65,-486,-717,-607,-545,-512,-469,-433,-408,-381,-339,-328,-336,-380,-426,-490,-553,-568,-507,-410,-327,-288,-218,-140,-80,-9,39,61,60,85,70,-83,-243,-299,-291,-273,-281,-270,-273,-277,-249,-192,-145,-109,37,168,224,303,289,189,116,85,67,82,98,139,-61,-807,-204,2979,4309,2494,953,-4,-622,-798,-751,-703,-623,-540,-493,-460,-449,-467,-494,-510,-517,-527,-538,-532,-509,-472,-398,-313
2018-05-14,14:40:24.475,-248,-146,6,141,237,288,317,343,356,356,386,413,376,362,352,341,343,303,263,227,162,130,162,260,302,334,332,282,262,279,302,328,323,295,96,-746,-705,1960,4410,3211,1508,442,-163,-568,-604,-508,-453,-403,-393,-355,-300,-252,-222,-267,-331,-377,-416,-403,-334,-244,-205,-188,-160,-68,53,193,294,342,366,349,320,263,177,95,5,-85,-121,-107,-114,-84,-50,-39,-25,-13,31,97,79,60,-9,-103,-140,-148,-155,-173,-218,-270,-543,-1243,-714,2211,3238,1569,473,-278,-827,-1123,-1079,-1035,-1036,-1016,-941,-857,-774,-698,-609,-543,-598,-677,-670,-628,-598,-564,-503,-466,-454,-429,-381,-359
2018-05-14,14:40:25.512,-385,-403,-434,-446,-432,-409,-384,-362,-342,-320,-253,-191,-185,-230,-272,-284,-307,-327,-294,-241,-183,-115,-107,-170,-171,-138,-114,-105,-87,-98,-489,-1081,202,3285,3138,1402,392,-235,-713,-880,-816,-784,-748,-713,-720,-687,-627,-531,-397,-266,-168,-127,-115,-117,-123,-129,-117,-82,-50,-15,48,94,104,123,165,171,161,154,114,67,47,23,0,-8,2,-3,-32,-41,-9,57,118,154,212,218,162,144,163,170,166,170,172,-24,-650,-142,2699,3737,1759,711,113,-415,-721,-645,-552,-494,-418,-396,-393,-392,-399,-423,-460,-496,-507,-498,-467,-436,-374,-302,-240,-157,-62,1,31,6,-37,-52,-65,-82
2018-05-14,14:40:26.549,-92,-76,-87,-113,-111,-112,-127,-99,-105,-114,-138,-139,-99,-42,-53,-64,-90,-170,-168,-127,-137,-154,-172,-193,-507,-1241,-600,2231,3209,1533,523,27,-354,-524,-431,-407,-427,-434,-436,-429,-406,-349,-305,-278,-235,-191,-159,-127,-105,-84,-67,-29,11,61,91,108,87,52,26,34,40,19,4,-16,-22,-26,-20,-11,19,44,71,64,54,124,188,228,247,179,105,100,112,143,153,151,116,-263,-709,253,2612,2586,1081,265,-221,-643,-790,-722,-685,-644,-588,-539,-514,-491,-485,-451,-437,-414,-402,-393,-392,-361,-315,-247,-154,-91,-59,-23,27,72,94,71,77,62,37,24,-1,-51,-89,-159
2018-05-14,14:40:27.587,-207,-231,-229,-255,-266,-256,-161,-20,103,250,280,234,219,216,211,195,131,49,-499,-1106,601,4199,4138,1949,546,-237,-723,-854,-829,-786,-738,-685,-641,-599,-560,-545,-542,-551,-564,-563,-537,-512,-493,-459,-381,-179,20,146,239,237,228,232,154,133,156,159,112,93,74,40,55,84,116,156,178,196,235,307,308,302,245,158,101,131,70,32,-32,-29,-104,-836,-1115,1341,4262,3319,1492,338,-295,-708,-814,-781,-769,-754,-701,-661,-623,-578,-550,-510,-482,-456,-438,-410,-366,-378,-323,-221,-151,-109,-68,-30,-32,-43,-57,-68,-89,-155,-129,-79,-13,24,54,104,168,226,232,212,183,205
2018-05-14,14:40:28.624,259,257,283,249,192,180,191,189,188,180,137,-243,-931,-8,2717,2981,1960,889,45,-569,-888,-896,-819,-738,-685,-660,-605,-561,-504,-450,-408,-396,-347,-304,-275,-225,-176,-68,55,150,223,297,300,243,185,133,102,66,13,-35,-59,-76,-89,-91,-99,-108,-98,-66,-19,48,147,209,213,213,135,32,-5,0,23,86,131,69,-490,-1118,560,3710,3275,1799,693,-79,-718,-1024,-983,-902,-854,-772,-693,-680,-732,-759,-760,-748,-711,-674,-622,-524,-403,-237,-9,177,316,401,449,440,317,187,102,45,15,0,4,9,26,66,101,135,174,205,222,215,269,321,320,319,278,192,107,101
2018-05-14,14:40:29.661,85,63,68,54,-255,-630,418,2741,2545,1142,463,53,-319,-415,-325,-319,-324,-279,-253,-216,-175,-108,-42,6,62,115,150,158,129,105,102,103,94,91,88,75,31,-17,-57,-73,-97,-107,-83,-79,-92,-131,-161,-203,-206,-189,-178,-163,-130,-47,-14,19,51,33,-26,-27,-102,-239,-301,-309,-390,-911,-1056,684,3101,2314,798,-50,-599,-1011,-1018,-917,-788,-629,-517,-439,-374,-328,-291,-273,-294,-322,-321,-293,-268,-210,-120,-35,32,88,97,89,69,33,-3,-9,-29,-85,-116,-125,-161,-189,-165,-166,-189,-211,-224,-219,-217,-177,-84,11,37,113,187,180,149,110,37,-30,-39,-103,-490,-803
2018-05-14,14:40:30.698,593,2941,2130,779,214,-125,-473,-522,-491,-513,-511,-509,-483,-460,-456,-443,-411,-393,-364,-341,-300,-270,-222,-190,-174,-173,-185,-201,-187,-137,-132,-156,-181,-206,-201,-194,-208,-208,-208,-204,-223,-296,-322,-324,-334,-317,-269,-163,-107,-81,-78,-143,-286,-383,-354,-326,-328,-254,-193,-586,-580,1215,3308,2290,961,333,-111,-487,-561,-539,-547,-516,-490,-437,-357,-283,-223,-197,-191,-175,-169,-186,-210,-201,-175,-139,-83,-28,2,27,54,30,31,47,57,45,20,7,13,32,24,11,32,29,0,-5,-9,15,105,172,196,238,252,210,204,219,207,152,109,47,-319,-802,270,2915,2763,1040,201,-237
2018-05-14,14:40:31.735,-633,-757,-677,-599,-542,-528,-531,-541,-521,-484,-445,-417,-387,-367,-342,-317,-284,-215,-187,-165,-137,-74,-95,-135,-169,-191,-199,-180,-171,-130,-115,-87,-79,-116,-183,-209,-217,-153,-22,76,168,273,382,414,438,421,314,225,168,128,92,95,112,-34,-544,-200,1922,2855,1564,635,141,-241,-500,-484,-442,-416,-405,-404,-418,-426,-425,-408,-389,-365,-331,-296,-234,-207,-167,-125,-89,-53,0,18,49,28,-17,-64,-82,-90,-92,-50,-38,-12,18,52,71,69,46,13,-23,-65,-75,-2,62,103,106,78,47,35,30,38,63,53,-30,-507,-862,404,2761,2660,1254,243,-411,-632,-553,-517,-486,-452
2018-05-14,14:40:32.773,-475,-494,-513,-569,-633,-660,-693,-708,-698,-688,-674,-629,-549,-443,-351,-267,-207,-128,-8,88,176,241,298,320,310,289,240,203,183,156,176,234,304,362,417,462,488,543,577,573,561,510,425,396,397,388,382,389,357,-119,-598,586,3254,3162,1637,644,46,-376,-394,-342,-329,-307,-290,-268,-222,-200,-196,-187,-159,-143,-132,-93,-46,-5,20,38,42,21,21,52,83,76,74,56,9,-14,-30,-62,-93,-110,-117,-149,-166,-164,-176,-142,-122,-129,-136,-106,-26,23,65,71,25,-37,-77,-152,-285,-374,-422,-648,-1341,-1122,1029,2715,1663,507,-221,-705,-872,-747,-634,-551,-464,-377,-314,-274
2018-05-14,14:40:33.810,-244,-218,-228,-262,-279,-299,-320,-313,-247,-158,-97,-21,49,93,129,134,114,75,43,1,-30,-61,-65,-80,-112,-97,-55,-43,-42,-42,-27,-31,-48,-43,-35,0,24,66,74,23,8,13,-25,-43,-38,-86,-360,-857,-174,2205,2615,1156,376,-101,-563,-673,-605,-593,-557,-509,-471,-455,-429,-414,-413,-429,-458,-491,-542,-563,-576,-568,-499,-404,-297,-217,-152,-178,-213,-91,-136,-130,-30,-73,-151,-179,-163,-154,-148,-142,-115,-96,-86,-88,-140,-220,-285,-280,-221,-193,-180,-250,-306,-263,-183,-83,27,128,100,-473,-465,1521,3695,2637,1274,555,0,-341,-335,-275,-224,-150,-59,24,74,109,109,102
2018-05-14,14:40:34.847,83,39,9,-50,-88,-114,-112,-84,-23,60,166,272,342,373,376,353,384,425,406,348,285,223,175,153,144,163,171,199,208,180,215,271,318,336,379,389,316,274,236,179,126,93,33,-364,-988,-17,2925,3312,1423,275,-340,-770,-820,-769,-790,-818,-866,-807,-733,-635,-559,-539,-511,-502,-519,-527,-529,-545,-548,-538,-504,-455,-394,-281,-204,-191,-226,-229,-233,-290,-360,-447,-511,-511,-388,-281,-164,-79,-52,-2,23,38,57,115,125,134,180,125,29,36,33,0,14,88,79,-432,-1063,329,3516,3379,1603,362,-439,-983,-1114,-1024,-935,-864,-792,-721,-658,-596,-545,-489,-415,-339,-312,-251
2018-05-14,14:40:35.884,-215,-226,-205,-148,-100,-76,-43,1,64,72,101,135,161,180,193,193,199,198,140,99,83,57,-8,25,-4,-151,-182,-49,67,151,118,29,-57,2,46,56,32,21,-54,-622,-628,1761,3974,2308,887,201,-342,-754,-796,-707,-679,-658,-604,-542,-526,-530,-521,-504,-513,-511,-521,-537,-551,-488,-348,-216,-80,21,87,112,84,-7,-117,-208,-276,-300,-308,-264,-250,-218,-185,-145,-108,-90,-53,-40,-57,-45,9,35,53,80,38,-35,-74,-98,-91,-105,-129,-144,-470,-979,460,3740,3202,1444,640,67,-462,-671,-649,-643,-610,-565,-508,-451,-404,-357,-326,-301,-260,-201,-152,-197,-250,-231,-213,-202
2018-05-14,14:40:36.922,-163,-143,-125,-98,-120,-136,-136,-130,-120,-128,-134,-115,-91,-79,-81,-120,-168,-148,-77,-26,19,100,158,200,216,175,99,86,105,92,94,86,8,-612,-929,1211,4126,3112,1330,362,-280,-778,-940,-899,-840,-721,-565,-426,-338,-281,-232,-198,-183,-182,-147,-124,-104,-60,-7,78,160,217,264,308,324,327,309,316,314,286,274,241,201,152,145,147,151,168,212,225,264,360,448,526,692,836,780,649,567,527,471,415,363,112,-564,-77,2925,4164,2087,982,361,-196,-542,-580,-561,-572,-560,-548,-546,-532,-511,-511,-511,-475,-414,-391,-373,-350,-332,-314,-276,-211,-146,-174,-150,-191,-125,-7
2018-05-14,14:40:37.959,-13,-60,-63,-88,-138,-141,-148,-165,-150,-171,-198,-196,-172,-109,-29,7,43,8,-133,-278,-288,-202,-112,-54,-51,-388,-1282,-559,3000,4068,1684,348,-367,-994,-1318,-1274,-1197,-1133,-1046,-960,-883,-803,-755,-727,-704,-700,-694,-707,-701,-683,-606,-508,-432,-348,-248,-170,-125,-127,-117,-120,-58,68,161,172,157,130,126,138,132,107,87,66,74,130,224,286,321,299,248,181,156,125,108,93,73,-111,-772,-398,2567,4050,2067,809,131,-467,-811,-829,-779,-753,-757,-708,-531,-429,-362,-329,-290,-296,-328,-340,-337,-301,-250,-194,-113,-63,-37,43,113,107,58,11,10,-40,-131,-193,-239,-206,-112,1
2018-05-14,14:40:38.996,96,151,157,133,77,129,176,167,162,130,59,21,30,37,39,56,65,-134,-830,-392,2429,3939,2043,729,-34,-552,-870,-837,-775,-726,-667,-584,-473,-420,-356,-295,-262,-193,-91,-48,-53,-85,-120,-100,-77,-67,-68,-25,-1,-15,-20,-39,-35,-1,-2,-25,-93,-128,-143,-142,-143,-151,-160,-166,-159,-89,1,18,27,65,49,13,17,22,0,-42,-36,-222,-807,-219,2311,3113,1613,577,-18,-491,-679,-595,-541,-529,-536,-551,-568,-564,-540,-520,-485,-448,-438,-432,-461,-460,-462,-422,-296,-109,79,228,332,391,393,382,352,301,234,183,155,154,198,221,247,276,301,288,245,228,292,331
2018-05-14,14:40:40.033,366,378,307,213,176,157,126,121,125,-89,-805,-352,2551,4210,2391,884,28,-538,-728,-613,-605,-610,-582,-526,-470,-436,-402,-348,-314,-276,-251,-217,-234,-225,-196,-155,-109,-80,-42,6,10,12,5,-8,-37,-100,-117,-137,-234,-137,-36,-83,-69,-45,-70,-62,-58,-75,-62,-11,36,75,101,44,-6,-9,-15,-60,-116,-157,-464,-1054,-445,1953,2551,1080,102,-481,-957,-1149,-1146,-1060,-909,-807,-706,-607,-547,-503,-432,-353,-330,-326,-307,-287,-260,-249,-206,-114,-42,25,87,100,68,24,-3,14,13,17,-17,-63,-87,-100,-95,-75,-70,-56,-17,13,20,67,161,209,249,302,312,298,275,270
2018-05-14,14:40:41.071,235,209,196,54,-624,-467,2222,4275,2513,1006,265,-231,-470,-445,-440,-472,-431,-374,-340,-322,-298,-263,-235,-208,-192,-177,-170,-172,-212,-204,-216,-113,15,23,-25,-42,-28,27,53,71,92,82,86,76,99,125,127,134,144,160,169,114,57,83,71,25,-7,-137,-329,-420,-402,-295,-122,56,145,-215,-588,1053,4040,3307,1422,462,-174,-749,-898,-840,-813,-748,-706,-688,-656,-619,-615,-593,-572,-554,-527,-517,-538,-517,-447,-386,-315,-252,-200,-166,-167,-159,-158,-173,-185,-206,-270,-286,-227,-155,-193,-243,-221,-162,-113,-69,-29,4,26,119,197,209,215,170,54,-12,-30,-43,-90,-152,-186,-580
2018-05-14,14:40:42.108,-1140,116,3083,2999,1158,215,-297,-778,-919,-845,-788,-703,-629,-572,-538,-509,-476,-475,-456,-478,-512,-540,-565,-561,-632,-690,-678,-597,-495,-422,-358,-298,-300,-333,-417,-476,-536,-602,-658,-663,-593,-421,-201,35,258,432,536,591,575,574,594,514,437,380,307,293,345,394,434,442,422,151,-355,148,2097,2597,1441,640,130,-275,-483,-420,-382,-374,-338,-298,-266,-231,-221,-196,-164,-152,-144,-115,-113,-119,-113,-81,-50,-9,28,89,142,123,79,78,99,108,102,75,51,25,-35,-81,-102,-119,-121,-105,-118,-139,-156,-165,-107,-38,8,29,8,-26,-27,-32,-66,-87,-104,-152,-576,-901,363,2750
2018-05-14,14:40:43.145,2331,924,-29,-639,-1037,-1020,-946,-922,-899,-841,-785,-735,-658,-560,-523,-525,-490,-489,-495,-494,-458,-348,-174,-19,118,220,286,323,349,352,333,333,330,332,360,402,439,474,475,440,399,364,353,331,337,335,336,384,406,416,397,318,232,170,140,109,85,65,-150,-784,-496,1656,2893,1627,567,-81,-623,-754,-629,-587,-553,-518,-473,-409,-377,-316,-242,-208,-195,-167,-187,-257,-290,-319,-310,-276,-250,-213,-167,-134,-117,-123,-121,-93,-108,-155,-177,-227,-276,-259,-153,-209,-153,-65,-44,-85,-113,-131,-214,-209,-152,-169,-191,-227,-368,-342,-220,-268,-360,-432,-503,-644,-1267,-1733,-284,2497,2303,836
2018-05-14,14:40:44.182,38,-317,-347,-85,89,165,232,312,355,373,439,500,522,548,541,473,393,295,206,160,145,179,243,295,349,395,411,409,400,381,330,282,257,249,268,297,325,268,203,198,177,124,91,90,64,84,165,191,212,209,116,145,212,213,196,207,166,-131,-832,-368,2457,3564,1849,569,-239,-821,-1069,-1012,-949,-940,-941,-977,-903,-837,-862,-764,-657,-679,-728,-700,-654,-615,-599,-564,-520,-460,-395,-295,-182,-175,-229,-321,-349,-294,-293,-344,-355,-334,-287,-249,-272,-278,-341,-418,-413,-285,-112,117,335,452,476,481,402,284,226,197,114,36,8,-87,-560,-485,1092,2336,1432,693,192,-247
2018-05-14,14:40:45.219,-606,-608,-549,-510,-490,-486,-456,-424,-426,-419,-375,-364,-345,-323,-337,-349,-291,-174,-106,-68,-32,-15,15,13,-20,-35,-40,-46,-72,-39,10,45,71,93,59,36,40,17,-20,-59,-106,-136,-132,-63,-2,24,45,13,0,25,21,-5,-60,-111,-170,-704,-1269,225,3609,3931,2088,623,-216,-751,-909,-822,-767,-779,-811,-876,-976,-1046,-1116,-1214,-1115,-933,-810,-709,-655,-647,-613,-577,-425,-146,168,451,608,636,608,588,593,543,452,368,296,244,225,221,249,283,313,305,255,242,208,211,220,226,232,172,71,37,45,55,76,68,-3,-259,-1025,-627,2531,4166,2018,678,-30,-572,-908,-881
2018-05-14,14:40:46.257,-804,-711,-640,-610,-576,-540,-502,-460,-425,-353,-328,-351,-407,-439,-442,-400,-320,-236,-172,-104,-77,-87,-98,-91,-82,-96,-86,-87,-125,-147,-218,-272,-256,-213,-189,-146,-89,-68,-21,58,108,157,164,95,45,39,42,22,-80,-177,-311,-1046,-1116,1519,4085,2519,941,-6,-703,-1171,-1143,-906,-723,-617,-544,-491,-433,-366,-342,-371,-424,-449,-465,-454,-384,-301,-191,-45,79,180,244,277,235,184,169,131,65,34,-12,-60,-99,-124,-109,-82,-76,-87,-79,-48,-7,45,137,209,279,344,298,226,191,147,117,115,151,141,-258,-351,1301,3173,1980,769,301,-62,-425,-522,-466,-473,-478,-487,-470,-454
2018-05-14,14:40:47.294,-446,-416,-388,-372,-302,-258,-255,-253,-239,-210,-189,-156,-144,-150,-130,-111,-150,-172,-157,-160,-204,-261,-287,-306,-346,-401,-451,-437,-406,-382,-369,-323,-212,-127,-105,-84,-125,-219,-251,-203,-151,-84,2,50,-245,-642,441,3166,3308,1528,534,10,-357,-336,-243,-242,-205,-157,-160,-172,-169,-145,-155,-189,-231,-274,-343,-376,-364,-329,-262,-190,-114,-46,31,89,89,83,106,116,116,90,63,54,77,91,111,115,93,78,47,17,60,169,233,293,318,293,263,249,216,177,129,82,-185,-918,-379,2471,3721,1800,356,-330,-792,-919,-805,-748,-721,-691,-652,-644,-624,-592,-583,-556,-498,-451,-401,-375
2018-05-14,14:40:48.331,-350,-329,-295,-256,-234,-235,-255,-275,-326,-346,-332,-298,-267,-253,-269,-312,-343,-320,-226,-93,59,187,250,261,334,383,363,343,302,206,173,161,180,231,266,246,-77,-489,505,2801,2706,1246,535,84,-324,-485,-418,-375,-395,-411,-374,-332,-319,-290,-242,-178,-177,-215,-245,-247,-239,-187,-137,-64,-15,3,57,63,33,3,11,1,21,46,50,73,59,29,-5,-34,-64,-91,-134,-154,-99,-33,-17,26,49,-18,-90,-82,-49,-6,-69,-78,-399,-1255,-674,2690,4447,2469,884,-38,-657,-1006,-1010,-941,-896,-824,-790,-774,-718,-738,-778,-839,-866,-857,-854,-839,-818,-791,-762,-656,-436,-177,28,159
2018-05-14,14:40:49.368,209,201,178,152,110,85,79,97,117,145,173,218,276,293,275,272,292,316,322,328,324,256,195,183,169,165,158,115,-126,-901,-337,2776,3820,1860,665,-4,-512,-742,-701,-657,-599,-556,-531,-501,-451,-416,-365,-271,-191,-157,-90,0,84,155,231,289,287,267,253,185,74,-54,-132,-337,-395,-373,268,679,518,204,233,214,184,170,163,169,208,248,286,319,320,277,225,249,261,260,326,413,132,-737,-154,3256,4822,2712,1085,238,-320,-579,-523,-485,-507,-516,-485,-441,-386,-289,-258,-278,-304,-320,-340,-374,-413,-417,-374,-312,-230,-150,-97,-119,-158,-179,-199,-226,-241,-290,-371,-426
2018-05-14,14:40:50.406,-424,-441,-443,-423,-417,-402,-380,-375,-337,-257,-230,-212,-191,-193,-232,-242,-227,-239,-264,-285,-480,-1230,-925,2124,3768,1517,205,-466,-1022,-1382,-1345,-1205,-1088,-996,-926,-914,-905,-893,-898,-900,-929,-945,-917,-858,-801,-687,-572,-549,-503,-438,-394,-408,-431,-482,-533,-545,-505,-408,-355,-346,-317,-255,-193,-231,-284,-333,-342,-335,-301,-242,-200,-116,-74,-106,-123,-104,-86,-111,-105,-151,-452,-885,-19,2217,2370,1236,638,276,-33,-149,-107,-116,-150,-191,-189,-160,-134,-101,-77,-40,13,45,65,61,64,115,154,212,274,331,330,279,221,176,151,123,103,94,101,125,129,108,96,108,157,159,140,133
2018-05-14,14:40:51.443,141,262,369,402,413,369,354,378,425,470,474,457,356,-144,-314,1280,3389,2433,905,159,-326,-628,-535,-466,-466,-398,-322,-308,-287,-296,-319,-325,-318,-353,-380,-387,-371,-337,-288,-209,-129,-37,78,182,222,85,-209,-447,-444,-343,-347,-394,-340,-270,-237,-236,-280,-340,-372,-410,-378,-234,22,173,223,279,286,226,198,146,41,-52,-95,-224,-844,-1098,885,3766,2636,806,-93,-617,-914,-861,-808,-808,-770,-721,-726,-732,-697,-682,-661,-639,-604,-574,-548,-500,-417,-321,-229,-132,-26,86,136,110,24,-6,-14,-28,-36,-35,-74,-89,-88,-69,-20,25,86,138,140,71,29,45,46,42,53,3
2018-05-14,14:40:52.480,-83,-81,-36,-12,-26,-31,-42,-382,-643,549,2612,2110,908,291,-142,-546,-627,-515,-432,-351,-305,-246,-190,-151,-162,-202,-290,-347,-390,-399,-355,-241,-127,1,131,219,265,262,213,138,82,91,145,210,223,218,211,216,236,236,226,206,169,160,153,144,173,284,352,377,390,354,301,327,324,282,248,205,63,-602,-718,1442,3983,2819,1154,140,-476,-794,-709,-643,-602,-531,-446,-337,-253,-176,-139,-149,-168,-194,-196,-203,-229,-218,-144,-66,28,155,239,251,245,191,163,144,92,60,4,-40,-39,-14,30,41,21,48,64,91,114,127,127,200,265,312,341,299,206,174,192,194
2018-05-14,14:40:53.555,194,170,153,-171,-831,141,3363,3894,2019,719,-137,-724,-919,-863,-785,-726,-692,-694,-664,-590,-486,-414,-356,-327,-328,-318,-267,-203,-128,-76,-17,21,58,112,154,112,75,46,11,-6,-12,-27,-47,-81,-103,-97,-75,-73,-44,34,70,44,25,62,109,123,182,192,122,70,67,50,12,22,133,-37,-544,155,2291,2300,945,360,-16,-355,-445,-344,-307,-297,-288,-280,-263,-254,-273,-273,-290,-307,-315,-311,-296,-231,-166,-125,-122,-108,-81,-54,-42,-72,-131,-159,-158,-167,-185,-200,-244,-220,-158,-189,-239,-251,-268,-287,-302,-324,-313,-290,-231,-217,-220,-259,-397,-496,-526,-471,-345,-176,-9,-72
2018-05-14,14:40:54.592,-649,-219,2208,3555,2031,790,148,-319,-487,-415,-354,-278,-205,-164,-141,-113,-118,-126,-145,-165,-190,-204,-214,-242,-243,-223,-184,-145,-97,-44,-7,-4,-2,24,33,10,-35,-34,-15,-13,-43,-50,-35,-10,1,17,44,52,53,102,199,263,297,274,168,99,67,32,-3,-45,-77,-333,-952,-475,2032,3079,1555,503,-95,-562,-839,-808,-769,-780,-780,-696,-628,-604,-575,-550,-507,-456,-428,-417,-422,-438,-421,-407,-390,-392,-368,-316,-238,-186,-222,-261,-284,-334,-409,-458,-392,-276,-115,46,138,177,171,178,189,162,131,133,178,186,204,203,164,168,183,168,150,141,132,-91,-730,-221,2454,3394
2018-05-14,14:40:55.629,1701,648,-53,-585,-838,-782,-712,-636,-566,-521,-490,-462,-409,-346,-307,-274,-312,-360,-351,-294,-250,-235,-152,-66,9,97,147,138,111,97,97,61,24,-21,-55,-75,-95,-118,-93,-85,-100,-107,-114,-87,-40,30,115,172,217,196,81,5,31,31,26,76,137,-119,-864,-115,3067,4171,2328,936,58,-577,-951,-1010,-1049,-1054,-978,-703,-309,-206,-222,-269,-353,-416,-413,-332,-145,87,258,372,453,471,470,452,382,301,204,138,101,106,128,156,174,170,156,140,121,116,119,125,74,33,42,75,56,36,-15,-117,-179,-175,-184,-205,-216,-234,-488,-960,-312,1842,2079,629,52,-310,-701,-896
2018-05-14,14:40:56.666,-813,-751,-749,-732,-688,-657,-640,-600,-557,-522,-463,-407,-364,-359,-373,-380,-398,-404,-399,-413,-416,-421,-472,-534,-562,-551,-540,-502,-499,-502,-502,-509,-505,-514,-516,-514,-560,-595,-558,-485,-368,-289,-242,-255,-350,-390,-426,-484,-512,-524,-529,-902,-1401,-226,2642,2584,979,90,-464,-930,-1100,-1019,-878,-697,-490,-296,-169,-91,-60,-38,-72,-147,-178,-215,-247,-222,-176,-110,-55,32,134,189,214,199,153,136,129,105,89,58,-2,-55,-67,-94,-124,-124,-124,-139,-136,-72,34,109,173,202,142,96,106,168,204,198,200,55,-561,-331,2166,3826,2038,560,-106,-534,-675,-498,-425,-394,-361,-334,-318,-291
2018-05-14,14:40:57.704,-281,-272,-284,-312,-332,-335,-327,-305,-249,-187,-98,4,51,102,106,77,57,49,75,101,101,78,66,91,101,113,107,81,65,73,89,137,132,62,37,49,-35,-108,-98,-54,-44,-68,-114,-377,-778,178,2637,2787,1222,529,192,-130,-220,-193,-236,-267,-249,-167,-138,-123,-70,-33,-8,23,25,23,20,37,74,93,116,161,193,206,199,151,100,76,64,54,54,58,36,31,48,83,120,174,220,197,153,220,266,266,296,308,276,280,286,291,321,346,348,-4,-313,824,2898,2306,1031,403,-11,-367,-395,-300,-263,-235,-206,-164,-122,-79,-39,-47,-76,-100,-116,-146,-231,-303
2018-05-14,14:40:58.741,-297,-164,-6,95,178,234,230,214,190,143,72,17,-23,-70,-109,-145,-172,-189,-200,-174,-147,-151,-193,-167,-144,-100,-15,54,92,140,169,148,112,68,-123,-744,-729,1274,3109,1896,497,-253,-771,-959,-847,-785,-743,-704,-677,-666,-639,-630,-629,-637,-662,-688,-709,-726,-721,-708,-658,-580,-496,-405,-315,-246,-209,-199,-182,-159,-149,-171,-173,-181,-206,-199,-207,-190,-179,-186,-169,-151,-119,-15,71,105,107,62,-28,-89,-105,-126,-153,-145,-233,-793,-1092,678,3498,2668,896,-16,-539,-880,-851,-772,-742,-713,-699,-668,-610,-535,-476,-423,-381,-346,-364,-362,-360,-355,-341,-296,-204,-111,-20,26,37,25
2018-05-14,14:40:59.778,-19,-73,-133,-206,-245,-287,-293,-212,-106,9,117,203,241,273,328,394,373,343,312,288,245,227,246,252,253,251,191,-292,-388,1169,2705,1684,792,293,-90,-429,-507,-459,-419,-383,-339,-291,-262,-217,-174,-125,-83,-74,-60,-47,3,55,73,85,109,133,134,133,114,107,89,83,96,121,171,203,195,165,125,98,78,46,1,-28,-36,-7,78,103,131,109,39,43,82,107,61,-12,-76,-382,-923,-172,2364,2960,1577,663,56,-432,-651,-597,-552,-515,-473,-420,-375,-348,-376,-430,-505,-528,-527,-502,-451,-411,-381,-301,-212,-169,-133,-104,-88,-53,52,164,227,256,276,268,235,177
2018-05-14,14:41:00.815,136,81,47,51,54,81,102,139,223,287,318,363,342,249,215,225,216,181,162,106,-353,-920,374,3534,3402,1581,500,-151,-638,-717,-598,-536,-482,-429,-370,-329,-303,-259,-219,-216,-219,-203,-188,-177,-128,-67,43,144,217,264,283,270,225,176,150,118,88,63,30,15,3,9,17,15,0,-6,4,-6,1,61,115,134,138,134,99,92,95,69,72,74,24,-306,-773,12,2134,2168,979,234,-256,-657,-810,-690,-596,-558,-516,-469,-446,-447,-453,-436,-443,-437,-354,-245,-141,-30,65,133,162,173,162,126,96,45,-31,-52,-61,-46,-52,-87,-73,-67,-57,-58,-77,-50,-39,-41
2018-05-14,14:41:01.853,-63,-84,-73,-19,16,39,57,4,-53,-34,-4,-2,17,40,-112,-522,-146,1646,2191,1048,355,-118,-467,-639,-513,-434,-403,-325,-253,-177,-130,-114,-100,-102,-131,-151,-178,-173,-167,-145,-126,-69,-29,0,8,-22,-102,-158,-181,-190,-204,-206,-200,-220,-198,-172,-196,-202,-216,-264,-275,-286,-282,-226,-136,-111,-107,-88,-142,-221,-208,-192,-190,-170,-156,-312,-823,-512,1328,2034,899,151,-335,-624,-622,-419,-257,-163,-111,-77,-57,-53,-72,-132,-198,-234,-205,-182,-169,-107,-8,68,138,191,234,278,300,293,264,225,168,112,67,31,-8,-42,-73,-76,-56,-33,-25,-14,-18,17,55,131,206,232
2018-05-14,14:41:02.890,233,196,141,135,123,96,64,49,35,-278,-658,181,2196,2168,972,203,-300,-669,-640,-533,-499,-457,-411,-409,-418,-425,-411,-428,-417,-375,-398,-426,-415,-413,-385,-323,-252,-189,-99,-17,29,42,51,30,3,-46,-91,-116,-138,-224,-328,-404,-443,-446,-430,-427,-408,-410,-426,-385,-375,-334,-229,-142,-57,2,24,13,23,33,-101,-639,-559,1183,2680,1729,804,217,-213,-285,-129,-45,-11,5,-4,-12,7,14,-2,-39,-79,-105,-124,-122,-133,-127,-125,-79,2,52,97,91,43,-16,-80,-130,-171,-164,-126,-77,17,101,162,208,246,282,306,343,381,400,433,512,567,553,535,484,414,379
2018-05-14,14:41:03.927,387,370,353,351,285,-222,-555,660,2727,2373,1189,418,-81,-337,-251,-162,-139,-150,-188,-186,-188,-192,-230,-242,-244,-278,-347,-420,-503,-545,-536,-510,-436,-333,-221,-111,-19,12,-10,-66,-107,-95,-46,5,40,54,39,1,-30,-57,-110,-164,-229,-257,-283,-253,-169,-146,-128,-163,-287,-361,-359,-377,-423,-448,-460,-674,-1252,-919,1177,2334,1083,9,-645,-1141,-1290,-1174,-1117,-1096,-1088,-1087,-1057,-1031,-1004,-978,-976,-974,-966,-957,-942,-917,-873,-799,-714,-648,-561,-473,-423,-412,-394,-400,-425,-464,-499,-529,-566,-573,-569,-550,-532,-516,-488,-450,-449,-455,-456,-435,-367,-264,-196,-148,-157,-214,-216,-187,-141,-131
2018-05-14,14:41:15.458,-523,-434,-404,-384,-364,-344,-315,-276,-258,-266,-230,-195,-185,-246,-244,-247,-252,-174,-47,-37,-158,-80,1,-91,-167,-150,-183,-202,-205,-189,-179,-178,-155,-185,-174,-146,-146,-113,-98,-67,12,126,0,-343,-532,-768,-928,-816,-676,-589,-502,-374,-197,-454,-583,1000,3478,2741,1092,356,-80,-488,-545,-474,-463,-416,-351,-274,-189,-138,-101,-53,-54,-122,-164,-178,-182,-184,-181,-121,-60,-34,-9,2,26,48,69,140,223,241,152,27,-8,-31,-46,47,82,65,76,68,68,99,164,249,267,254,227,156,97,83,51,20,-47,0,129,-191,-684,204,2699,2763,1068,283,-84,-535,-764,-665,-640,-599
2018-05-14,14:41:17.020,-508,-480,-463,-408,-369,-348,-306,-262,-252,-255,-246,-147,-66,-216,-391,-588,-910,-1068,-998,-913,-781,-496,-192,64,239,325,335,308,273,257,267,232,175,130,81,56,84,190,236,267,297,255,193,167,152,134,110,92,33,-436,-678,644,2630,1804,678,120,-199,-482,-503,-331,-153,-89,-209,-363,-315,-206,-157,-153,-156,-163,-146,-90,0,75,118,144,138,118,107,75,-13,-67,-105,-154,-154,-149,-176,-198,-196,-202,-207,-191,-191,-179,-190,-214,-214,-215,-171,-61,-12,72,103,97,90,97,111,110,110,105,12,-763,-1234,445,2846,1808,-55,-1130,-1645,-1879,-1653,-1234,-820,-412,-107,55,145,220
2018-05-14,14:41:18.058,270,261,202,153,108,43,-27,-60,-55,17,131,235,284,322,338,300,253,216,167,148,118,81,6,-44,-78,-77,-65,-42,-5,24,56,102,208,325,337,194,17,19,117,152,139,82,43,2,-158,-612,-271,1720,2783,1349,521,89,-286,-512,-454,-404,-404,-418,-398,-378,-375,-376,-365,-363,-348,-328,-345,-345,-312,-264,-230,-197,-100,-11,28,52,27,0,-23,-56,-71,-60,-56,-140,-298,-479,-645,-791,-840,-872,-867,-846,-855,-860,-745,-540,-241,47,216,343,429,448,448,450,436,364,-120,-362,981,2818,2094,958,267,-143,-407,-347,-242,-211,-165,-135,-122,-117,-137,-166,-189,-182,-194,-224
2018-05-14,14:41:19.095,-212,-196,-148,-38,41,38,-25,-108,-139,-127,-128,-165,-187,-184,-200,-198,-183,-144,-78,16,84,112,161,181,142,81,57,86,82,60,53,-28,-109,-116,-99,-87,-63,-60,-51,-319,-888,-348,1980,3149,1932,678,-103,-562,-547,-432,-388,-307,-271,-215,-152,-121,-109,-153,-430,-800,-1034,-1201,-1303,-1266,-1145,-1015,-917,-826,-577,-181,222,546,774,899,945,967,969,900,800,693,592,517,501,488,509,562,591,620,690,781,816,838,815,717,649,640,580,514,474,433,307,-367,-417,1563,3588,2411,1125,381,-131,-516,-596,-506,-441,-488,-512,-498,-462,-449,-413,-330,-225,-178,-173,-221,-247,-283,-333,-352
2018-05-14,14:41:20.132,-373,-355,-328,-377,-420,-387,-367,-447,-538,-630,-688,-714,-738,-754,-727,-645,-581,-519,-450,-410,-406,-386,-296,-227,-215,-220,-289,-415,-451,-485,-546,-645,-780,-989,-1604,-2230,-1187,1484,1912,456,-530,-953,-1035,-706,-348,-171,-75,-41,-24,-30,-54,-80,-146,-216,-242,-271,-275,-263,-242,-238,-216,-192,-181,-147,-107,-99,-112,-125,-157,-208,-263,-299,-320,-322,-302,-293,-286,-211,-88,9,0,-27,-15,5,72,154,201,149,19,-76,-106,-111,-72,3,56,-28,-572,-321,2164,3510,1641,595,-68,-634,-916,-846,-741,-681,-613,-549,-506,-475,-447,-415,-424,-436,-457,-494,-469,-446,-395,-281,-161,-78,12,103,136,140
2018-05-14,14:41:21.169,138,147,164,172,114,-55,-242,-378,-369,-324,-266,-213,-233,-242,-130,88,358,534,610,643,608,513,467,422,364,306,241,133,-291,-894,304,3409,3542,1781,619,-71,-551,-659,-594,-579,-545,-501,-493,-479,-478,-469,-422,-430,-412,-380,-321,-212,-77,5,56,63,84,187,283,309,264,224,173,146,142,196,206,202,229,242,231,194,164,166,163,63,120,266,266,264,223,116,59,37,40,29,21,26,-138,-680,-421,1661,2751,1438,656,173,-237,-531,-538,-427,-359,-329,-318,-357,-406,-572,-548,-407,-493,-605,-577,-530,-445,-269,-36,220,395,493,548,520,429,355,286,189,97,40,41,40
2018-05-14,14:41:22.206,45,68,82,117,159,173,192,183,213,284,286,273,267,184,48,-21,-14,3,10,34,6,-404,-577,901,3010,2016,834,195,-183,-402,-397,-301,-281,-299,-296,-273,-200,-111,-62,-56,-70,-76,-82,-99,-143,-150,-120,-130,-105,-38,-2,38,38,-18,-86,-138,-215,-252,-234,-245,-292,-297,-260,-232,-223,-212,-193,-160,-115,-50,22,80,94,31,-101,-252,-442,-597,-549,-464,-535,-1120,-1405,385,3040,2214,608,-64,-342,-475,-374,-282,-260,-213,-170,-159,-140,-167,-211,-237,-249,-259,-246,-233,-169,-126,-117,-91,-66,-53,-53,-40,-58,-99,-127,-136,-135,-131,-119,-114,-93,-67,-5,108,207,205,112,104
2018-05-14,14:41:23.244,231,381,406,310,199,94,23,-6,-3,26,57,87,-92,-619,-145,2197,3031,1330,375,-138,-553,-783,-698,-598,-569,-601,-608,-576,-566,-573,-553,-548,-573,-592,-583,-512,-418,-331,-241,-156,-66,13,70,59,47,22,-22,-138,-295,-345,-367,-421,-355,-215,-153,-175,-273,-392,-427,-320,-103,92,271,367,361,366,344,283,205,150,122,-145,-679,-36,2181,2406,1001,347,-64,-436,-525,-434,-404,-414,-387,-346,-324,-316,-311,-301,-294,-288,-294,-299,-274,-198,-106,0,63,96,153,89,3,83,142,80,-13,-97,-162,-190,-138,-46,21,44,63,64,47,34,80,121,129,128,125,111,103,108,88,51
2018-05-14,14:41:24.281,-2,-106,-565,-1040,216,3072,2863,1236,232,-374,-794,-818,-687,-610,-556,-510,-454,-421,-380,-366,-355,-371,-585,-788,-776,-819,-835,-780,-601,-450,-419,-363,-177,49,219,328,377,391,403,413,442,439,375,294,248,199,124,72,74,190,281,342,396,371,297,276,254,222,184,171,86,-482,-745,1111,3779,2867,1309,513,34,-292,-252,-77,-114,-284,-284,-96,24,96,123,103,80,49,23,85,193,318,416,472,508,513,490,432,341,260,189,203,206,131,102,94,41,-37,-92,-110,-101,-123,-103,-55,3,24,76,74,-3,-43,-20,-1,18,13,-6,-211,-794,-425,1727,2700,1207,199,-390,-808
2018-05-14,14:41:25.318,-997,-880,-824,-869,-907,-831,-655,-431,-258,-166,-146,-161,-190,-254,-326,-371,-379,-371,-334,-283,-245,-257,-312,-388,-436,-475,-523,-555,-581,-585,-597,-622,-622,-622,-650,-663,-659,-634,-557,-467,-440,-376,-341,-413,-502,-526,-521,-515,-392,-257,-515,-864,381,2581,1651,232,-220,-471,-697,-642,-557,-577,-586,-548,-528,-498,-452,-422,-429,-395,-318,-340,-382,-361,-326,-256,-211,-165,-106,-27,10,7,-57,-112,-68,-48,-53,-93,-84,-60,-17,4,-22,-10,25,-55,-129,-111,-67,24,168,261,251,306,376,479,557,577,264,-454,261,3154,4020,1885,533,-37,-502,-638,-577,-548,-493,-424,-341,-293,-257,-238,-232,-238
2018-05-14,14:41:26.355,-263,-271,-267,-223,-190,-137,-82,-17,26,88,160,211,209,203,298,382,348,212,124,203,258,261,252,230,173,151,265,404,408,373,323,258,195,138,107,98,100,108,-85,-585,-32,2183,2789,1212,322,-127,-515,-732,-681,-612,-583,-561,-531,-496,-431,-385,-333,-279,-262,-212,-193,-179,-180,-120,-90,-39,-56,-125,-174,-196,-165,-120,-122,-185,-258,-350,-411,-345,-212,-49,51,109,159,189,260,351,370,365,286,161,52,-5,-22,-4,3,10,-214,-714,-75,2258,2681,1282,444,-93,-557,-779,-707,-643,-578,-508,-450,-372,-285,-182,-113,-140,-200,-249,-177,-52,-4,-10,-7,-2,5,35,97,154
2018-05-14,14:41:27.393,153,111,84,70,45,2,-54,-90,-116,-152,-178,-173,-147,-115,-58,-17,-34,-38,-49,-115,-176,-171,-160,-157,-159,-151,-423,-1154,-370,2771,3570,1864,650,-107,-613,-826,-791,-860,-979,-933,-776,-736,-712,-674,-664,-668,-601,-461,-284,-132,-1,125,191,197,198,179,157,97,28,-48,-80,-97,-89,-54,-14,20,40,26,25,47,49,38,66,114,146,134,79,-22,-108,-83,1,8,19,40,-122,-621,93,2583,2943,1310,586,134,-330,-485,-461,-482,-453,-386,-311,-251,-247,-247,-239,-217,-209,-228,-218,-204,-172,-115,-48,11,70,97,80,21,-41,-103,-166,-205,-237,-250,-245,-275,-292,-273,-237,-192
2018-05-14,14:41:28.430,-157,-146,-66,52,97,206,216,45,-103,-213,-325,-414,-433,-442,-825,-1101,209,2516,2042,724,125,-158,-370,-306,-208,-199,-181,-174,-209,-257,-282,-285,-266,-225,-166,-105,-49,-54,-48,-3,24,15,30,33,47,50,34,2,-10,-60,-111,-99,-79,-82,-71,-15,41,79,113,50,138,284,308,277,197,68,-38,-70,-9,71,127,96,-312,-631,831,3537,2667,937,150,-352,-726,-733,-648,-608,-596,-560,-537,-523,-507,-492,-504,-531,-553,-564,-547,-483,-416,-354,-288,-188,-78,-21,25,69,99,84,59,-37,-222,-432,-544,-331,-61,-59,-84,-103,-161,-126,42,256,416,518,508,418,363,308,260,251
2018-05-14,14:41:29.467,213,29,-660,-377,2107,3523,1846,667,49,-385,-590,-521,-459,-417,-368,-354,-359,-381,-407,-406,-397,-417,-384,-322,-241,-225,-200,-135,-42,-4,5,53,158,191,141,96,48,0,-34,-53,4,76,103,93,54,39,39,78,121,133,182,180,98,26,21,-2,-60,-107,-167,-517,-932,8,2202,2085,841,149,-295,-645,-748,-637,-550,-508,-434,-377,-330,-294,-250,-196,-178,-300,-518,-653,-747,-804,-768,-713,-662,-583,-468,-311,-118,95,266,361,378,379,372,357,352,325,287,228,131,66,68,141,243,337,348,285,213,203,228,220,218,184,116,-395,-674,912,3212,2403,1044,336,-126,-549,-599,-490
2018-05-14,14:41:30.504,-408,-382,-387,-388,-280,-148,-95,-64,-50,-54,-67,-26,52,106,129,138,163,156,127,105,74,23,-23,-57,-126,-187,-214,-238,-262,-334,-415,-428,-426,-417,-377,-301,-249,-205,-151,-156,-154,-130,-126,-99,-113,-110,-276,-901,-686,1330,2522,1078,-90,-824,-1173,-1191,-972,-869,-865,-858,-770,-577,-358,-145,30,130,182,183,142,116,126,137,144,148,178,210,291,360,411,413,348,223,112,24,-24,-47,-38,-26,-19,-10,-16,14,96,191,262,318,290,151,64,38,-40,-137,-88,-63,-440,-634,689,2403,1517,403,-150,-508,-504,-210,-95,-112,-129,-111,-119,-132,-135,-117,-104,-105,-135,-148,-143,-146
2018-05-14,14:41:31.542,-154,-157,-109,-58,-17,35,56,48,1,-27,-5,34,104,156,186,226,266,248,232,222,171,87,84,-42,-204,-252,-211,-140,-42,35,76,81,104,90,-304,-138,1623,3377,2554,1259,542,90,-48,34,36,-18,-47,-64,-65,-84,-95,-152,-206,-225,-246,-314,-407,-455,-485,-499,-477,-445,-401,-360,-347,-339,-308,-278,-267,-244,-201,-234,-313,-361,-268,-183,-183,-200,-219,-246,-195,-185,-197,-174,-145,-204,-263,-326,-388,-451,-489,-701,-1314,-1047,1304,2768,1276,36,-630,-1103,-1232,-1158,-1102,-1029,-1010,-1005,-1022,-1019,-986,-974,-906,-855,-817,-756,-720,-658,-594,-527,-476,-454,-384,-342,-400,-432,-421,-403,-366,-322
2018-05-14,14:41:32.579,-267,-196,-141,-60,69,213,277,261,253,267,329,345,337,285,181,101,81,87,110,111,101,-263,-739,332,3000,2903,1289,334,-255,-655,-711,-599,-538,-503,-474,-427,-379,-299,-248,-147,-7,129,236,216,134,178,327,408,442,427,408,407,389,359,332,299,248,181,130,80,81,142,185,215,195,153,161,227,277,269,286,261,153,89,62,25,21,38,-8,-483,-932,525,3449,3052,1653,655,-35,-458,-544,-443,-401,-347,-280,-275,-377,-427,-384,-306,-226,-177,-228,-257,-166,16,221,376,498,521,528,501,405,282,152,62,11,-33,-73,-90,-39,5,24,63,92,88,57,88,130,144
2018-05-14,14:41:33.616,159,135,49,19,35,43,24,31,-1,-449,-350,1473,2858,1579,597,127,-157,-346,-284,-191,-195,-236,-241,-201,-144,-106,-106,-102,-108,-124,-144,-152,-180,-186,-162,-63,45,96,95,61,-70,-240,-356,-419,-449,-463,-503,-515,-503,-476,-424,-394,-381,-318,-245,-133,-25,39,45,-14,-47,-41,-50,-116,-196,-264,-498,-1022,-478,1814,2541,1038,141,-350,-609,-611,-364,-212,-154,-137,-145,-147,-164,-234,-304,-321,-317,-307,-288,-276,-224,-164,-152,-130,-74,-13,15,0,-31,-66,-118,-188,-243,-270,-277,-235,-188,-157,-100,-18,-36,-80,-39,39,120,271,286,180,110,78,17,-22,-2,29,-176,-600,280,2827
2018-05-14,14:41:34.653,2667,921,179,-249,-650,-712,-658,-612,-552,-482,-462,-469,-463,-481,-511,-526,-543,-546,-512,-476,-442,-408,-304,-188,-114,-13,56,62,36,7,19,-22,-84,-159,-243,-326,-369,-382,-388,-425,-416,-333,-220,-237,-256,-243,-212,-77,150,298,371,417,458,215,-316,402,2854,3053,1308,388,-141,-549,-657,-524,-443,-395,-360,-319,-297,-296,-300,-311,-279,-281,-247,-192,-180,-170,-94,22,147,211,211,213,195,107,55,65,37,2,-5,-13,-22,-30,-16,-10,18,81,137,226,248,207,187,117,61,2,-25,12,40,-5,-188,-748,-529,1438,2434,1131,233,-255,-621,-816,-704,-614,-559,-473,-416,-350,-325,-295
2018-05-14,14:41:35.690,-269,-254,-277,-261,-260,-287,-279,-318,-417,-414,-293,-145,-58,-15,-44,-165,-285,-366,-356,-215,-39,120,246,232,184,195,211,240,317,326,308,297,221,144,151,151,149,146,132,-47,-710,-456,2078,3682,2097,798,-52,-613,-882,-826,-776,-734,-648,-559,-448,-365,-321,-304,-338,-366,-235,-135,-101,-78,-58,-43,-32,-5,41,108,142,111,66,37,14,-22,-48,-40,-16,-1,3,-40,-43,32,54,88,69,32,27,1,-64,-96,-95,-128,-120,-105,-260,-883,-590,1794,3391,1900,821,204,-149,-434,-547,-629,-740,-788,-809,-771,-688,-590,-520,-508,-525,-558,-512,-337,-117,103,280,392,474,509,534,496
2018-05-14,14:41:36.728,374,246,133,1,-99,-171,-189,-163,-173,-179,-117,-37,5,11,38,85,102,64,-26,-107,-100,-64,-23,40,54,-94,-628,-317,1711,2526,1086,350,-65,-443,-576,-461,-420,-404,-345,-247,-142,-80,-32,-36,-80,-110,-131,-164,-216,-239,-236,-214,-125,8,77,48,14,-41,-130,-193,-243,-284,-299,-308,-311,-240,-156,-95,-78,-63,-24,75,125,157,176,82,-22,-95,-148,-206,-285,-361,-612,-1297,-1015,1422,2988,1439,197,-301,-522,-492,-282,-175,-130,-95,-79,-86,-122,-138,-182,-227,-222,-229,-239,-201,-149,-83,-20,37,76,101,117,133,121,92,57,11,-40,-82,-108,-118,-79,-14,48,112,167,129
2018-05-14,14:41:37.765,148,171,91,84,105,70,43,-3,-75,-137,-125,-217,-695,-107,2502,3625,1831,680,81,-410,-637,-577,-523,-512,-489,-404,-365,-375,-386,-392,-379,-385,-399,-384,-362,-338,-312,-236,-146,-74,5,62,59,48,11,-28,11,49,28,-57,-255,-407,-460,-466,-424,-318,-217,-234,-315,-323,-293,-201,-3,199,315,362,390,241,-280,-35,1895,2818,1250,375,-56,-365,-502,-333,-225,-118,-53,-12,21,29,39,50,59,44,37,48,60,84,133,185,250,333,408,448,412,278,111,2,64,103,44,-6,-27,-15,25,105,197,282,393,471,446,408,356,290,238,211,160,111,108,103,-240,-616,493,2955
2018-05-14,14:41:38.802,2448,970,211,-199,-559,-629,-557,-551,-549,-545,-526,-492,-473,-494,-504,-531,-544,-560,-592,-627,-740,-857,-827,-700,-690,-694,-654,-584,-562,-495,-342,-195,-127,-128,-182,-222,-226,-229,-236,-256,-270,-219,-212,-245,-273,-358,-422,-391,-355,-324,-304,-324,-542,-1308,-919,1997,3420,1754,340,-551,-1134,-1345,-1229,-1121,-1031,-956,-831,-695,-640,-677,-751,-784,-701,-593,-533,-481,-433,-405,-337,-252,-122,11,76,93,41,-26,-64,-89,-123,-159,-169,-149,-102,-64,-53,-112,-163,-60,47,69,101,108,44,11,40,64,86,111,85,-335,-716,553,2980,2590,1231,471,-11,-457,-629,-518,-466,-470,-314,-306,-350,-311,-287,-293
2018-05-14,14:41:39.839,-286,-271,-142,61,240,344,391,432,443,420,374,289,182,86,17,-14,-3,75,132,112,68,58,44,29,30,72,135,165,176,174,156,114,91,88,86,119,180,107,-364,-114,1785,2502,1039,224,-168,-478,-629,-487,-388,-347,-325,-306,-179,-29,82,159,192,167,138,110,80,91,120,154,157,188,195,164,73,6,-37,-102,-177,-224,-221,-205,-177,-144,-80,-43,-50,-6,33,102,134,176,172,90,-26,-9,180,223,137,-93,-687,-1361,-339,2611,2852,1066,75,-439,-716,-609,-327,-212,-202,-162,-88,-14,0,-55,-131,-220,-279,-320,-361,-352,-295,-222,-115,-42,27,109,143,140,96,49
2018-05-14,14:41:40.877,7,-48,-77,-116,-144,-169,-161,-140,-119,-102,-64,129,331,392,322,169,33,7,61,74,71,73,22,-446,-738,1064,3862,2706,970,154,-307,-594,-596,-583,-556,-546,-540,-517,-443,-372,-334,-310,-286,-259,-282,-347,-323,-313,-285,-241,-178,-103,-53,-43,-60,-74,-80,-84,-53,6,-14,-143,-288,-415,-523,-609,-635,-573,-442,-381,-365,-394,-448,-419,-254,-16,202,333,366,-5,-262,1032,3102,2261,911,288,-123,-467,-496,-401,-339,-271,-198,-156,-177,-154,-98,-79,-73,-75,-83,-90,-80,-66,-30,35,111,165,206,198,118,42,-11,-69,-170,-168,-89,-75,-72,-41,-23,-32,-19,31,197,287,268,264
2018-05-14,14:41:41.914,214,111,84,83,59,22,7,-136,-687,-589,1477,3256,1907,480,-271,-689,-883,-805,-699,-616,-580,-554,-485,-408,-383,-347,-298,-251,-232,-222,-233,-301,-372,-413,-425,-322,-255,-258,-261,-259,-291,-354,-419,-437,-352,-184,6,173,241,212,144,109,149,227,255,278,259,153,80,56,56,104,111,87,-159,-856,-198,2812,3845,2054,670,-199,-758,-901,-805,-737,-690,-634,-566,-502,-442,-364,-307,-331,-385,-368,-310,-273,-193,-112,-87,-74,-30,61,127,124,91,72,53,47,20,-27,-79,-102,-82,-54,-59,-63,-70,-56,-17,-44,-49,-65,-100,-140,-147,-154,-166,-139,-166,-559,-892,314,2760,2287,999,373
2018-05-14,14:41:42.951,-118,-509,-631,-555,-444,-371,-394,-393,-360,-357,-365,-410,-469,-483,-391,-248,-106,31,99,137,161,159,154,139,49,-54,-169,-273,-325,-340,-307,-277,-243,-191,-145,-125,-137,-146,-96,-23,-7,35,16,-68,-101,-116,-107,-87,-86,-128,-504,-660,821,2723,1585,438,-41,-312,-531,-443,-337,-280,-242,-178,-71,5,21,-4,-39,-58,-93,-132,-154,-168,-135,-92,-55,12,67,70,24,-63,-158,-230,-284,-343,-357,-396,-405,-398,-348,-263,-165,-82,-9,112,191,241,271,248,102,-99,-399,-499,-428,-415,-426,-857,-1072,623,3092,2235,721,48,-236,-323,-209,-153,-181,-187,-158,-140,-136,-109,-161,-246,-286,-246
2018-05-14,14:41:43.988,-186,-136,-83,-63,-45,-37,3,42,77,102,99,68,18,-37,-90,-128,-132,-91,-82,-68,64,162,164,112,48,83,206,311,347,335,321,324,363,369,350,260,-262,-470,1269,3447,2227,800,163,-305,-627,-608,-551,-519,-510,-509,-479,-455,-452,-440,-447,-488,-486,-482,-456,-398,-284,-184,-100,-19,48,93,121,102,-4,-163,-326,-448,-507,-516,-464,-359,-316,-334,-410,-471,-426,-207,36,267,393,432,427,421,409,417,427,402,126,-389,224,2157,2118,840,244,-88,-389,-422,-296,-261,-235,-212,-160,-144,-156,-173,-150,-140,-68,16,50,82,128,170,149,112,89,111,223,256,221,163,90,55
2018-05-14,14:41:45.026,79,118,198,262,302,322,334,314,310,385,450,428,401,395,388,297,211,182,137,95,33,-460,-862,539,3117,2519,1124,269,-267,-622,-639,-531,-465,-404,-368,-349,-305,-262,-268,-313,-409,-513,-561,-593,-652,-715,-665,-596,-540,-508,-490,-351,-117,76,157,162,128,62,19,-15,-35,-59,-120,-180,-236,-269,-237,-194,-124,-51,-49,-115,-182,-224,-266,-306,-356,-510,-1224,-1401,849,3446,2178,692,-182,-695,-1004,-952,-781,-695,-699,-714,-693,-643,-611,-576,-547,-549,-559,-535,-478,-413,-309,-209,-138,-97,-85,-108,-191,-292,-357,-396,-413,-381,-338,-333,-383,-436,-504,-532,-499,-441,-381,-273,-194,-158,-151,-207
2018-05-14,14:41:46.063,-236,-203,-144,-90,-53,-39,-264,-793,-128,2199,2699,1328,357,-264,-696,-847,-741,-613,-541,-482,-433,-325,-163,-37,23,53,57,43,63,95,107,103,116,128,136,178,170,142,108,105,80,29,-54,-87,-103,-95,-92,-105,-109,-106,-107,-46,41,103,182,241,237,230,259,298,299,242,170,-166,-239,1248,2978,1848,657,216,-77,-267,-184,-150,-169,-181,-151,-123,-156,-217,-211,-154,-125,-75,-68,-139,-181,-213,-210,-141,-64,-13,2,-5,-62,-106,-114,-129,-169,-148,-85,-57,-4,25,32,78,94,37,-73,-244,-333,-269,-227,-215,-137,-99,-109,-142,-110,-264,-742,149,2989,3651,1625,460,-23,-429
2018-05-14,14:41:47.100,-539,-494,-478,-463,-477,-446,-374,-335,-317,-316,-330,-346,-366,-377,-347,-318,-216,-106,-40,24,49,82,114,125,152,246,277,195,97,27,-37,-10,47,69,92,120,200,250,270,280,251,205,196,217,188,143,126,-80,-746,-530,1790,3317,1736,531,-109,-529,-776,-731,-646,-609,-590,-598,-596,-578,-571,-568,-530,-449,-404,-361,-306,-255,-173,-97,-41,6,68,70,-52,-141,-175,-203,-227,-222,-145,-126,-166,-207,-147,-51,42,146,268,284,257,231,177,108,51,34,42,35,12,-157,-635,-143,1889,2365,1127,402,-33,-407,-563,-467,-419,-389,-359,-296,-234,-192,-156,-115,-52,18,74,74,71,129
2018-05-14,14:41:48.137,202,230,339,409,446,433,365,293,239,226,249,256,228,204,188,173,176,164,123,137,202,248,328,405,400,302,260,178,60,31,42,-144,-827,-452,2120,3377,1919,742,-6,-536,-761,-666,-587,-541,-479,-428,-407,-430,-521,-619,-701,-744,-720,-653,-586,-546,-557,-508,-340,-132,70,182,155,65,-34,-110,-178,-274,-355,-385,-372,-374,-393,-394,-371,-309,-194,-122,-128,-147,-192,-258,-271,-293,-316,-340,-330,-559,-1173,-620,1964,2872,1211,232,-316,-710,-939,-876,-795,-668,-547,-494,-475,-450,-440,-426,-377,-297,-224,-185,-161,-163,-156,-130,-130,-158,-177,-194,-209,-191,-215,-256,-288,-295,-305,-311,-297,-291
2018-05-14,14:41:49.175,-252,-252,-272,-235,-127,-74,-36,8,2,20,68,115,173,213,251,-52,-706,-111,2154,2469,1060,194,-256,-555,-608,-532,-534,-514,-357,-95,105,189,204,177,136,112,140,146,132,121,71,30,48,95,153,191,183,157,115,72,34,7,-10,-5,0,-20,-19,-15,-42,-30,100,181,183,178,128,76,17,-16,76,229,267,73,-448,31,2262,2688,897,172,-114,-406,-371,-228,-235,-287,-281,-298,-312,-265,-202,-197,-170,-131,-152,-212,-225,-215,-184,-137,-72,-20,-19,33,40,-17,-7,-12,-27,-67,-33,24,59,87,118,189,184,54,-138,-340,-395,-323,-265,-206,-135,-83,-88,-106,-52,-218
2018-05-14,14:41:50.212,-643,553,3528,3605,1717,740,326,25,-17,37,-10,-47,-73,-81,-78,-80,-42,1,8,33,45,69,85,111,146,217,291,315,324,328,301,264,253,297,244,156,25,-8,103,183,199,200,154,179,250,270,315,349,309,255,219,177,101,20,-36,-461,-762,487,2394,1642,502,-74,-477,-800,-847,-833,-793,-806,-752,-654,-635,-633,-605,-603,-595,-567,-561,-578,-513,-449,-394,-337,-302,-271,-338,-445,-508,-498,-532,-593,-608,-605,-585,-471,-290,-139,-50,-33,-33,63,127,79,56,21,-88,-146,-185,-280,-363,-379,-469,-1002,-791,1440,3051,1687,491,-238,-725,-950,-883,-870,-909,-899,-845,-751,-633,-512
2018-05-14,14:41:51.249,-440,-383,-340,-265,-281,-303,-166,-43,20,66,98,112,122,80,27,9,5,-9,-36,-91,-115,-116,-134,-188,-212,-160,-77,58,129,156,159,145,109,58,64,55,73,74,-252,-978,-378,2414,3578,2030,817,21,-489,-691,-568,-419,-361,-426,-557,-717,-828,-825,-740,-646,-568,-495,-469,-464,-481,-457,-337,-109,181,484,664,675,608,518,439,419,366,313,268,215,180,141,106,74,134,256,309,309,305,289,288,297,234,185,182,119,-284,-557,688,2691,1897,715,193,-235,-597,-565,-375,-263,-211,-158,-113,-100,-114,-131,-118,-61,6,40,25,7,-3,7,28,60,80,45,22,-26,-94,-139
2018-05-14,14:41:52.286,-135,-153,-221,-304,-380,-375,-335,-294,-296,-259,-152,-47,18,48,24,0,4,17,34,17,3,-181,-853,-662,1560,2917,1282,177,-438,-871,-1092,-1029,-939,-836,-657,-398,-173,-62,-16,-5,16,28,5,-2,0,-6,12,64,90,107,152,212,198,123,84,53,23,-5,-9,-13,-55,-103,-103,-99,-87,-25,90,204,277,303,291,297,348,381,305,280,282,-123,-661,548,3245,2702,883,78,-317,-545,-432,-347,-340,-339,-320,-340,-374,-417,-463,-434,-354,-297,-256,-239,-276,-269,-202,-158,-149,-116,-144,-175,-142,-100,-72,-47,-13,5,18,35,48,57,20,-25,-64,-106,-195,-264,-308,-353,-393,-375
2018-05-14,14:41:53.323,-352,-419,-459,-421,-525,-837,109,2611,2819,1263,451,38,-298,-354,-266,-250,-301,-319,-313,-296,-263,-240,-238,-232,-236,-219,-216,-191,-147,-84,-24,19,60,65,27,-28,-67,-91,-87,-110,-148,-199,-266,-315,-350,-290,-201,-111,35,102,106,120,117,87,67,25,-20,-49,-73,-191,-694,-538,1382,2579,1310,340,-234,-628,-807,-739,-699,-667,-600,-562,-565,-545,-464,-443,-413,-388,-354,-362,-346,-283,-226,-179,-116,-33,30,31,-17,-150,-404,-525,-455,-474,-519,-507,-512,-518,-525,-455,-281,18,214,316,381,350,231,179,206,194,140,134,7,-567,-266,2151,3618,1969,692,-25,-505,-715,-620,-537,-503,-476
2018-05-14,14:41:54.361,-452,-424,-404,-391,-443,-470,-444,-401,-353,-344,-312,-265,-200,-189,-177,-67,59,87,54,19,10,-5,9,38,58,64,66,38,-4,9,47,90,93,109,96,50,80,156,192,141,62,-46,-541,-760,756,2838,1958,752,108,-351,-715,-682,-552,-477,-421,-375,-319,-276,-255,-311,-399,-494,-574,-647,-690,-679,-671,-611,-530,-453,-285,-32,146,231,269,268,278,266,237,169,96,33,-37,-122,-141,-69,24,99,167,209,151,77,77,107,135,161,144,-117,-597,35,2177,2255,972,423,37,-314,-456,-377,-324,-303,-302,-340,-354,-268,-198,-168,-122,-64,-19,44,113,160,164,124,111,91,53,-8
2018-05-14,14:41:55.398,-75,-249,-319,-301,-301,-329,-299,-215,-238,-259,-242,-250,-274,-216,-112,-55,-8,-23,-39,-35,3,5,3,31,-75,-705,-662,1509,3209,1567,114,-688,-1107,-1356,-1345,-1292,-1260,-1192,-991,-703,-392,-142,8,65,97,107,113,131,179,233,258,269,302,314,359,379,361,304,239,162,105,102,95,110,120,122,133,128,143,181,188,204,192,137,97,66,46,48,60,4,-423,-847,570,3148,2430,826,130,-268,-497,-384,-277,-270,-257,-253,-254,-260,-284,-296,-324,-368,-347,-292,-267,-249,-233,-218,-240,-228,-193,-154,-127,-168,-181,-179,-183,-191,-187,-169,-140,-112,-82,-47,-13,7,61,89,37,-129
2018-05-14,14:41:56.435,-285,-372,-426,-394,-355,-347,-401,-770,-1141,7,2414,2313,1092,522,193,-117,-121,-27,-21,-10,-32,-92,-103,-42,-17,-11,5,3,33,68,92,117,169,205,236,259,271,243,195,145,63,3,-26,-45,-38,-2,49,92,14,-97,-75,109,230,240,234,164,93,90,114,102,95,94,-44,-555,-399,1655,2905,1325,299,-177,-534,-670,-596,-615,-694,-693,-627,-565,-530,-542,-555,-591,-640,-641,-614,-560,-476,-362,-278,-200,-121,-35,0,-2,-9,-113,-376,-666,-764,-768,-708,-620,-502,-390,-356,-292,-53,223,374,472,517,453,419,395,332,256,199,59,-525,-616,1409,3476,2064,698,-21,-479,-740,-668
2018-05-14,14:41:57.472,-586,-547,-492,-465,-427,-405,-399,-396,-381,-377,-357,-299,-219,-122,-31,23,67,24,-100,-115,-55,-22,-49,-100,-112,-127,-100,-39,-45,-60,-53,-57,-71,-54,27,45,38,40,-9,-41,10,36,-11,-86,-158,-468,-941,-48,2296,2284,986,203,-285,-702,-818,-695,-573,-535,-485,-409,-362,-326,-310,-356,-517,-705,-872,-959,-945,-845,-671,-504,-386,-351,-340,-232,-44,148,254,329,393,389,357,339,340,326,291,225,156,151,192,235,297,294,198,208,224,204,183,180,72,-515,-556,1361,2990,1742,703,79,-340,-579,-528,-356,-251,-259,-360,-471,-509,-465,-360,-280,-253,-270,-232,-164,-63,47,147,211
2018-05-14,14:41:58.510,246,245,206,114,-16,-134,-214,-258,-282,-274,-281,-296,-308,-338,-353,-338,-361,-252,-48,56,41,8,-3,23,67,52,58,95,-283,-885,142,3043,3234,1543,122,-847,-1405,-1585,-1479,-1306,-1174,-1072,-973,-813,-541,-250,-27,94,144,195,255,352,415,343,282,273,238,176,183,163,166,188,195,174,159,146,110,62,19,-8,-44,14,119,159,140,128,81,29,46,86,92,177,235,103,-462,-301,1790,3147,1681,521,-111,-520,-645,-493,-386,-316,-334,-410,-193,-111,-249,-328,-310,-187,-173,-169,-72,11,52,61,101,136,119,78,36,-15,-106,-171,-231,-298,-314,-316,-287,-192,-134,-49,70,202
2018-05-14,14:41:59.547,306,311,268,181,105,172,288,270,67,-131,-188,-590,-662,921,2514,1488,471,-45,-365,-522,-478,-433,-434,-416,-384,-372,-366,-314,-288,-243,-179,-86,-26,-53,-111,-156,-173,-135,-71,-43,-50,-82,-120,-122,-127,-86,-17,44,88,130,200,189,148,172,303,360,321,258,219,230,277,343,394,398,398,360,76,-578,-136,2385,3318,1632,499,-177,-672,-789,-683,-660,-578,-530,-522,-568,-627,-685,-684,-641,-601,-571,-539,-555,-534,-402,-226,-207,-272,-368,-521,-627,-697,-706,-658,-557,-392,-219,-182,-209,-74,81,187,232,251,264,234,191,73,-105,-204,-241,-280,-317,-310,-398,-946,-945,1242,3292,1724,462
2018-05-14,14:42:00.584,-343,-882,-1176,-1132,-1073,-1056,-1026,-1006,-976,-916,-847,-758,-661,-558,-511,-450,-381,-461,-443,-235,-109,-34,-32,-64,-116,-151,-122,-121,-126,-128,-143,-138,-117,-81,-68,-117,-170,-110,43,147,173,136,17,-100,-131,-106,-60,-26,-70,-427,-812,200,2503,2119,943,377,10,-284,-352,-213,-121,-89,-106,-102,-137,-179,-179,-170,-166,-140,-79,6,161,340,482,557,579,576,543,439,308,160,48,-3,-34,-49,-87,-94,-60,-30,0,21,35,120,212,204,208,211,173,173,212,196,167,139,26,-504,-562,1373,3285,1975,809,170,-242,-551,-596,-454,-296,-180,-125,-95,-75,-50,-21,14,18,-7,-48,-116
2018-05-14,14:42:01.621,-199,-195,-136,-49,-36,-6,44,89,109,112,86,61,60,85,117,82,17,-31,-59,-61,-58,3,80,146,236,274,217,223,278,320,286,173,-199,-1150,-872,1911,3397,1712,384,-343,-785,-850,-612,-387,-209,-97,-54,-29,-17,-10,-34,-75,-141,-215,-265,-260,-204,-136,-13,113,201,234,225,188,125,65,16,3,2,-23,-26,0,-1,-30,-82,-118,-51,140,246,352,397,320,153,29,89,235,307,274,-84,-414,689,2743,2058,670,137,-219,-540,-549,-436,-415,-391,-342,-321,-294,-272,-225,-203,-172,-128,-79,-61,-49,-6,-19,-37,-38,-64,-81,-128,-181,-230,-223,-221,-200,-188,-168,-87,-41
2018-05-14,14:42:02.658,-75,-178,-430,-528,-444,-359,-254,-185,-192,-227,-253,-237,-124,37,191,20,-458,190,2551,2970,1165,366,-19,-412,-525,-453,-440,-397,-290,-195,-186,-208,-215,-247,-250,-228,-226,-201,-198,-212,-195,-159,-108,-57,-46,-32,23,29,-54,-72,0,18,-78,-76,28,40,12,5,-18,28,142,193,257,274,210,165,143,96,6,-34,-74,-476,-1015,288,3410,3222,1297,210,-338,-681,-755,-714,-669,-654,-660,-643,-615,-666,-693,-693,-665,-600,-538,-454,-376,-296,-199,-111,-64,-99,-127,-186,-361,-458,-484,-506,-498,-494,-499,-474,-465,-373,-184,36,243,439,550,615,673,628,551,495,434,366,293,206,-23,-585
2018-05-14,14:42:03.696,-88,2100,2551,1182,457,-12,-410,-575,-491,-426,-404,-392,-359,-311,-279,-239,-174,-83,-75,-82,-80,-73,-86,-129,-27,74,110,152,104,3,-80,-128,-150,-116,-107,-128,-154,-133,-110,-124,-207,-265,-185,-23,60,116,168,154,92,-30,-129,-179,-182,-203,-617,-826,550,2572,1837,727,89,-331,-645,-684,-568,-519,-476,-419,-342,-191,-180,-396,-585,-695,-820,-891,-856,-778,-650,-516,-386,-247,-64,145,310,391,382,325,227,131,69,25,-3,-28,-49,-78,-80,-18,128,221,274,278,221,173,186,216,239,214,153,-210,-920,-215,2560,3223,1626,468,-215,-670,-743,-580,-536,-535,-519,-449,-326,-272,-272,-305
2018-05-14,14:42:04.733,-335,-322,-284,-218,-170,-136,-93,-78,-93,-82,-96,-120,-129,-121,-132,-183,-213,-233,-233,-191,-147,-94,-60,-46,-32,33,87,95,105,43,-60,-83,-55,-15,26,50,-96,-676,-450,1784,3353,1821,425,-356,-823,-1034,-884,-739,-683,-679,-705,-636,-466,-265,-121,-52,-8,19,30,63,80,84,111,86,45,10,-41,-118,-181,-186,-153,-137,-156,-157,-123,-86,-41,-13,-43,-29,-19,7,33,78,98,87,118,152,209,220,114,-53,-473,-251,1626,2664,1156,286,-137,-440,-508,-339,-270,-260,-290,-354,-359,-328,-312,-298,-298,-294,-276,-266,-244,-205,-195,-145,-70,-21,-29,-66,-101,-147,-161,-202,-205,-177
2018-05-14,14:42:05.770,-143,-134,-106,-40,31,135,186,148,58,-149,-354,-445,-460,-397,-270,-203,-193,-215,-310,-797,-678,1412,3482,2177,736,77,-329,-509,-446,-431,-429,-402,-370,-355,-340,-348,-365,-387,-412,-414,-380,-354,-291,-204,-128,-68,-4,40,57,35,25,65,116,96,57,57,92,83,11,-85,-75,21,148,206,209,207,176,140,146,165,173,153,106,-94,-677,-295,2211,3264,1414,396,-128,-516,-679,-597,-582,-589,-537,-449,-393,-368,-361,-378,-407,-446,-419,-392,-357,-290,-228,-166,-86,0,96,164,231,241,62,-254,-461,-525,-522,-443,-415,-457,-477,-419,-185,110,287,379,401,315,251,279,329,335,312,206
2018-05-14,14:42:06.807,-331,-551,959,2609,1534,615,180,-151,-418,-407,-335,-302,-289,-286,-264,-248,-242,-273,-284,-249,-223,-236,-189,-22,169,291,295,213,65,59,128,122,95,69,44,26,50,81,109,127,115,98,101,180,220,220,195,150,113,127,147,159,163,167,-40,-665,0,2702,3281,1670,599,-48,-510,-704,-589,-511,-490,-443,-388,-351,-313,-280,-276,-330,-476,-618,-738,-762,-692,-651,-601,-538,-472,-286,-72,114,234,274,249,198,167,129,91,65,7,-62,-133,-154,-99,0,95,98,27,-35,-36,-54,-108,-179,-339,-963,-1211,729,3196,2099,602,-293,-788,-1081,-1061,-951,-895,-776,-556,-434,-503,-526,-480,-452
2018-05-14,14:42:48.045,-76,-184,-341,-572,-709,-1248,-688,195,-16,-878,-259,608,-244,-1168,-22,861,1048,970,1209,875,260,13,598,802,776,352,-339,209,2909,3288,1516,-172,-1059,-1251,-1179,-968,-406,-48,26,131,193,109,-17,-136,-312,-368,-340,-236,-90,76,172,234,321,290,234,153,-104,-378,-582,-773,-629,-341,-228,-163,-111,-100,-54,178,206,351,-188,-545,-1185,-1186,-437,418,520,57,-518,-1079,-504,1481,182,-338,535,-355,-1227,-1100,-778,-643,-915,-1827,-1560,-2,1002,1386,1234,743,446,350,316,300,264,266,295,272,-8,-289,-152,126,78,-69,85,278,337,289,226,79,44,231,385,373,281,219,97,-9,-16,36
2018-05-14,14:42:49.083,15,-59,-124,-548,-850,489,2226,876,-207,-618,-1001,-1134,-926,-704,-629,-506,-396,-435,-598,-751,-1524,-2092,-1580,-1821,-369,195,-268,-416,-438,-487,-679,-1281,-1218,-342,-662,-206,482,253,-66,-229,-603,-1035,-276,-13,39,860,1021,547,245,99,45,-11,-67,-77,-20,-126,-880,-1064,996,2797,597,-1152,-1131,-724,-375,-74,13,43,-52,-127,-170,-253,-265,-221,-212,-170,-76,-31,18,128,151,193,214,115,-81,-292,-437,-487,-474,-406,-311,-251,-215,-179,-125,113,60,-259,-535,-418,35,-144,-132,-25,-79,-216,-1182,-1393,-755,-2038,-528,3015,2451,801,101,-166,-584,-1091,-887,-1414,-1124,890,948,692,707,255,109,737
2018-05-14,14:42:49.907,836,55,313,381,162,88,162,47,-205,-174,-150,-512,-362,124,339,420,440,423,408,361,262,270,304,271,353,318,268,280,299,292,211,122,-182,-670,283,2416,1556,283,-130,-463,-611,-502,-170,11,191,-8,-383,-433,-1334,-1943,-1834,-624,340,204,-39,-121,-222,-952,-1596,-318,-405,-85,873,685,285,256,334,-42,-763,-435,697,643,1172,1340,944,665,629,580,449,445,422,312,176,-93,-465,-970,170,3246,2911,679,202,6,-214,-186,-54,60,79,67,76,74,55,70,65,52,140,155,82,187,261,208,111,62,-121,-273,-279,-327,-288,-145,36,91,-287,-502,-480,-570,-1470,-1336,-515,181
2018-05-14,14:42:50.945,672,508,287,-39,-248,-438,-680,-1032,-724,-1009,-1083,1877,2974,1470,35,-209,-771,-1556,-1807,-387,851,294,-27,28,-292,-432,-681,-559,-559,-659,-834,-839,-770,-949,-832,-284,-114,-358,-227,-70,-261,-369,-395,-371,-308,-370,-543,-665,-701,-642,-613,-575,-499,-562,-669,-776,-875,-993,-1080,-1243,-1659,-1763,-61,1783,583,-312,-453,-609,-654,-621,-756,-777,-670,-708,-1033,-1289,-1367,-1424,-690,503,761,475,198,-40,-172,-726,-1232,88,1067,903,627,579,617,200,-325,-611,-47,1472,1531,1229,1254,969,770,672,765,826,735,545,564,646,570,145,-554,-53,2614,3722,1428,697,565,134,-2,206,298,315,275,277,224,166
2018-05-14,14:42:51.982,135,182,284,291,202,195,151,106,130,88,62,55,65,10,-51,-85,-64,10,124,246,259,-385,-395,745,1059,1136,892,595,465,376,9,-875,-256,388,-517,-412,422,1256,3030,2868,1124,-549,-197,-596,-608,925,1295,633,213,64,74,43,20,74,66,44,30,-78,-413,-521,-64,392,486,547,634,500,294,193,214,304,243,128,67,-4,-57,1,123,149,143,166,133,40,-128,-301,-438,-541,-766,-1178,-255,2239,2022,609,198,-64,-336,-383,-134,-21,-543,-1797,-2572,-1837,-626,409,495,106,-42,-189,-520,-932,-1075,-189,694,801,734,788,823,453,92,178,-111,76,1217,1753,958,380,418,636
2018-05-14,14:42:53.019,600,650,742,587,206,244,357,102,-224,-390,-757,41,2659,2524,540,18,-206,-452,-340,-229,-276,-249,-307,-373,-450,-484,-537,-500,-482,-510,-601,-654,-593,-533,-585,-746,-794,-834,-932,-1033,-1005,-942,-912,-857,-852,-675,-314,-577,-1102,-2112,-1611,-662,-330,60,-11,-254,-548,-958,-768,-406,-1003,-1241,-296,1730,2391,2106,1142,27,-392,-280,-424,-1064,-315,-437,-227,144,452,136,-31,-59,-274,-295,-388,-428,-391,-338,-322,-78,52,-155,-301,-264,-296,-284,-220,-89,44,126,158,84,103,123,55,-13,-55,-82,-61,-16,-31,-133,-315,-841,-913,1065,2717,995,-219,-710,-976,-1132,-889,-574,-351,-234,-241,-262,-346,-925
2018-05-14,14:42:54.056,-1129,-1279,-489,845,1007,294,-230,-399,-369,-175,-78,-865,-529,719,714,397,497,273,-415,-360,252,-546,507,1778,1412,747,309,2,394,621,853,881,724,333,-377,93,2419,2968,1165,-337,-883,-1149,-862,-253,53,196,301,409,417,306,125,65,0,-10,34,135,275,380,421,421,427,335,152,-149,-450,-623,-660,-591,-530,-454,-378,-271,-144,-15,255,289,-107,-876,-1420,-970,-451,180,384,1,-706,-883,638,1572,57,462,253,-598,-396,-189,-274,-518,-1120,-1433,-614,1334,1214,482,388,-217,-309,110,139,668,703,497,298,74,72,170,71,-340,-627,-549,-568,-379,-102,23,77,317,586,621,507,372
2018-05-14,14:42:55.093,301,224,188,181,187,201,45,-422,336,2886,2549,631,-341,-925,-1134,-972,-699,-508,-423,-276,-117,144,235,136,-130,-402,-657,-1743,-2402,-2256,-644,514,321,-13,-59,-410,-866,-1079,-1974,-653,404,-104,-133,357,82,-1092,-828,75,1316,2115,1680,1023,707,108,-520,31,465,555,425,2139,3789,2382,824,-71,-818,-1374,-1214,-1026,-1115,-858,-359,-86,47,181,302,394,328,100,20,0,31,46,136,258,361,361,236,8,-177,-400,-580,-708,-896,-741,-547,-368,-138,-5,12,88,390,276,-428,-857,-1305,-2125,-2353,-2158,-1273,1694,2632,667,-533,-1007,-1398,-1959,-1698,-205,-422,-973,214,608,146,-591,-1037,712,546,-732
2018-05-14,14:42:56.131,767,611,634,1446,981,512,770,1046,588,361,305,232,96,-285,-511,-488,-583,-530,1,421,558,586,632,634,619,742,539,405,313,-206,-40,2363,3255,1465,683,223,-302,-604,-508,-599,-582,-559,-543,-474,-414,-334,-232,-168,-129,-127,-34,276,-295,-1916,-2011,33,581,422,17,-622,-1003,-1240,-1419,-1610,-1800,-161,161,-235,427,385,60,39,-386,-1489,-873,-1385,131,4293,4346,1764,154,-813,-1152,-795,-444,-618,-783,-823,-829,-980,-1208,-1125,-858,-943,-956,-709,-414,-315,-293,-249,-137,-102,-258,-532,-715,-801,-880,-908,-866,-792,-783,-860,-823,-831,-897,-941,-1003,-996,-997,-899,-807,-688,-520,-289,-129,-349,-578,-799
2018-05-14,14:42:57.168,-1183,-504,1060,-837,-1332,-159,-159,-359,-463,-487,-580,-842,-1088,-957,-1529,-698,848,827,811,1122,943,691,244,-131,-89,489,1833,1893,1335,1227,1022,598,455,526,413,270,327,448,348,127,190,540,485,377,661,847,799,819,892,756,493,1819,3867,2400,1120,631,189,-155,-143,-72,-89,-140,-157,-250,-235,-234,-338,-320,-212,-13,146,491,695,514,491,458,217,-149,-380,-1142,-2602,-2547,-840,31,302,411,152,-16,-14,-210,-344,49,602,422,881,1416,966,574,1324,355,-842,1722,5122,3760,1413,755,321,-322,-422,-339,-371,-458,-474,-408,-347,-488,-841,-848,-354,-128,-263,20,401,477,475,453,422,394
2018-05-14,14:42:58.205,169,-68,-304,-396,-374,-429,-450,-461,-445,-409,-359,-306,-345,-415,-528,-565,-532,-338,-138,-115,-375,-684,603,2287,1034,-87,-659,-988,-1609,-3102,-2666,-897,-81,209,-34,-326,-437,-570,-1264,-1344,-319,567,226,193,421,448,487,-339,436,1697,1047,711,1261,1338,327,26,135,235,775,897,538,434,422,350,259,261,-1,-519,-492,-595,-1063,542,3221,1884,270,279,239,217,292,152,109,118,69,-7,-51,-48,-76,-99,-97,-158,-217,-208,-304,-351,-264,-144,77,289,238,52,6,-93,-139,-174,-569,-945,-1447,-1526,-1082,-196,892,1139,337,-232,-405,-475,-820,-1557,-1106,-531,307,3009,4436,2665,364,-985,-287,-1294
2018-05-14,14:42:59.242,-665,1122,634,-165,-383,-455,-453,-248,-320,-417,-498,-444,-392,-372,-414,-758,-626,27,163,-39,61,64,-44,-28,101,145,133,-6,-120,-53,0,12,8,-55,-53,-111,-197,-215,-231,-414,-782,-561,1010,1364,24,-97,-123,-437,-687,-477,-337,-343,-375,-606,-711,-768,-1614,-1582,-1246,-569,-11,367,446,15,-257,-263,-337,-631,-925,-74,871,835,465,272,314,23,-275,348,582,802,1166,903,690,650,686,425,393,504,193,-464,-224,1949,3384,1881,-133,-914,-720,-819,-732,-145,228,373,435,452,372,259,184,74,-98,-139,-118,-65,6,96,183,211,176,129,-12,-143,-387,-655,-636,-491,-295,-181,-54,153
2018-05-14,14:43:00.280,256,313,402,550,-497,-1386,-1081,-560,143,1440,685,-28,2146,4027,2259,669,-29,-535,-711,-521,-575,-1091,-1401,-799,-292,627,598,2,-255,-292,-512,-926,-872,136,323,327,415,318,26,-114,-121,-73,-154,-612,-748,-175,46,-199,279,796,909,792,615,544,479,388,306,198,97,-342,-298,1630,2859,1349,533,79,-399,-617,-571,-622,-695,-731,-538,-262,-49,95,123,149,-7,-63,-142,-354,-640,-1437,-2119,-1282,52,627,319,-205,-517,-558,-559,-716,-1051,-1277,-696,-780,-606,234,347,-156,-60,-343,-1070,-295,812,1736,709,459,2534,2488,968,280,442,465,62,173,131,-115,-144,-255,-735,-779,-898,-1184,-433,340
2018-05-14,14:43:01.317,632,707,687,587,573,350,370,544,284,-39,-193,-171,-126,-157,-145,-163,-267,-250,-114,-78,-151,-229,-76,7,-38,116,75,-65,-324,-409,1471,3702,1859,-116,-1374,-2774,-2591,-1098,-315,-288,-515,-844,-970,-955,-880,-1003,-1596,-1324,-243,-698,-1028,-129,441,301,-416,215,539,-783,-87,1497,1726,1176,599,418,370,349,415,423,454,516,502,371,-65,-75,-135,-677,-536,-170,762,3114,2880,1010,474,186,-151,-271,-255,-209,-116,-39,50,109,84,67,49,-62,-158,-203,-191,-106,75,168,148,180,-30,-289,-517,-654,-704,-895,-995,-1176,-2229,-2455,-1801,-1120,-390,-401,-362,-380,-1094,-1579,-568,-1023,-1523,-969,-746,603
2018-05-14,14:43:02.354,2965,2400,547,-727,-476,390,434,618,695,448,252,159,56,45,-35,-190,-227,-162,-171,-243,-560,-897,-765,-682,-702,-109,268,204,171,159,89,-15,-98,-143,-137,-101,-48,3,-15,-60,-118,-154,-177,-254,-348,-672,-1174,-104,2397,1531,21,-213,-408,-703,-739,-493,-381,-523,-850,-1277,-2266,-1919,-1291,-672,23,78,-290,-439,-474,-543,-843,-1045,-270,480,-9,-75,-51,-916,-937,-1166,-288,967,1711,1007,345,195,115,269,419,552,553,434,232,-48,-528,-470,1363,2437,619,-505,-577,-355,-3,217,238,194,191,107,-24,-78,-104,-100,-76,0,106,137,185,207,248,162,35,-73,-191,-350,-433,-268,-252,-240
2018-05-14,14:43:03.391,-177,10,73,6,-28,-71,-249,-530,-1091,-2081,-2180,-1464,-901,-37,28,-474,650,2516,1454,-35,-784,-911,-1465,-1586,-69,549,230,132,410,51,-903,-223,390,1338,1337,630,461,382,318,352,437,313,295,383,388,329,-103,-678,-290,-75,-410,-23,572,761,829,884,831,700,555,390,268,223,136,-338,-119,2391,3875,2086,710,-141,-645,-870,-796,-681,-603,-462,-395,-299,-114,-109,-208,-306,-439,-705,-761,-885,-1631,-2581,-2940,-1940,-609,-150,-82,-251,-494,-684,-1114,-1249,-672,-354,-368,428,903,804,746,299,-336,488,863,1248,1226,763,783,2188,3450,2265,1041,549,204,-116,32,264,154,-184,61,443,82,-229
2018-05-14,14:43:04.429,63,378,485,456,420,431,397,373,292,177,177,169,80,-17,-119,-198,-247,-323,-366,-393,-284,-267,-306,-95,153,-66,-192,-85,2,-34,-138,-703,-866,849,1798,-1369,-3031,-2735,-1804,-905,-564,-563,-590,-563,-661,-954,-778,-930,-401,-178,383,724,535,235,118,-62,-138,192,1275,1239,1222,1146,774,456,218,398,909,791,606,619,650,677,466,17,-70,-9,-352,-191,181,-81,320,2977,3901,1731,652,193,-225,-421,-411,-362,-285,-243,-214,-183,-176,-188,-249,-291,-410,-468,-379,-301,-248,-214,-144,-60,-8,-205,-552,-878,-973,-1702,-1863,-1236,-801,-425,-35,-173,-436,-469,-547,-735,-916,-1031,-1031,-168,277,-811
2018-05-14,14:43:05.466,-1268,524,2249,570,-39,264,346,-144,-489,-683,-871,-833,-858,-1037,-803,-529,-674,-733,-701,-769,-790,-452,-292,-413,-155,95,85,-7,-179,-354,-471,-521,-619,-635,-638,-548,-447,-375,-272,-222,-199,-284,-357,-321,-513,-716,-709,-977,-1036,310,1884,1006,332,222,89,-387,-452,-581,-540,-1203,-1920,-1395,-613,-214,422,567,429,385,313,99,-89,-555,5,817,1243,838,668,799,422,-263,148,1344,1376,1339,1266,1059,830,625,595,899,912,770,767,746,710,283,-425,635,2743,1315,-239,85,359,376,679,744,686,695,616,528,467,450,389,365,375,392,315,277,333,362,323,365,414,311,60,-107,-199,-252
2018-05-14,14:43:06.503,-136,82,171,385,475,313,129,9,-296,-1012,-1316,-1214,-110,414,497,75,-525,214,2374,1976,147,182,431,-536,-543,70,177,-399,-1208,-452,-251,423,557,910,1016,374,-37,-72,46,240,256,223,249,260,78,-119,54,145,-175,-219,90,287,363,457,466,447,401,330,254,133,15,-48,-90,-225,-628,-285,1911,2532,813,-156,-654,-1003,-1166,-973,-933,-987,-905,-574,-456,-501,-304,-217,-228,-554,-874,-980,-1999,-2579,-1235,-41,548,492,90,-151,-277,-382,-526,-614,-606,-581,-623,-818,-224,414,-410,-699,-148,-559,-288,655,720,86,-542,-366,1682,2723,1551,540,-241,-676,-792,-740,-995,-986,-558,-427,-525,-261
2018-05-14,14:43:07.540,37,135,103,42,64,147,210,182,181,196,112,-17,-115,-235,-366,-435,-486,-507,-540,-515,-432,-397,-375,-353,-331,-357,-114,52,99,148,84,-82,-788,-667,1621,2204,-465,-1693,-942,-10,71,-14,-59,-131,-229,-390,-794,-620,145,218,22,6,-42,-182,-309,-1008,-527,6,691,1521,1207,562,413,428,440,444,407,293,345,392,461,539,364,-69,-62,-59,-174,27,343,350,-17,207,2024,2686,1072,184,-156,-340,-225,-88,-42,-60,-39,13,60,-62,-157,-154,-192,-241,-465,-477,-396,-331,-215,40,233,344,410,328,115,-57,-235,-781,-1392,-1282,-394,624,623,460,341,144,-96,-226,-391,-480,-198,0
2018-05-14,14:43:08.577,-854,-1112,1113,3035,1496,1276,1777,793,-335,-569,-785,-1490,-994,-455,-1071,171,1157,357,-269,-476,-409,-346,-377,-462,-333,-200,-52,328,694,781,712,636,561,492,428,414,359,369,319,244,213,130,69,49,35,-30,16,-108,-582,-554,821,892,-519,-757,-713,-716,-601,-386,-227,-164,-160,-110,-75,-341,-780,-996,-1465,-1022,-777,-248,-249,-381,-391,-429,-678,-1530,-1666,-1302,-225,382,161,-189,-220,-227,-922,-1153,-452,507,886,921,508,58,8,192,24,-18,-452,-431,1423,2573,1333,248,-625,-972,-850,-772,-649,-309,-69,11,52,71,55,62,42,-66,-212,-187,-131,-121,-74,3,47,50,-39,-218,-575,-586
2018-05-14,14:43:09.615,-557,-698,-864,-867,-853,-600,-217,-64,9,27,73,252,564,-204,-957,-1257,-1562,-429,1605,2727,1111,108,-440,-1380,-1203,-1789,-537,779,420,36,-21,-43,-447,-1001,-1216,-437,307,928,1456,1245,602,389,492,462,483,406,267,192,168,131,33,-353,-249,155,-37,64,462,627,608,492,556,599,524,381,25,74,1470,2263,1089,490,196,-160,-307,-282,-299,-367,-519,-663,-625,-550,-435,-327,-200,-119,-19,152,368,339,457,673,-165,-1746,-2174,-1401,-549,442,479,-38,-226,-123,-134,-330,-313,-1,506,786,737,459,406,119,-839,-1377,-1660,76,4228,5376,3033,922,-253,-703,-746,-202,27,-222,-365,-357,-429,-781
2018-05-14,14:43:10.652,-689,-265,-115,-283,-45,306,536,579,547,510,492,424,229,100,-32,-125,-136,-64,-69,-81,-46,-26,-13,2,0,-163,-219,-224,-259,-298,-250,-161,-258,149,1920,1915,284,-346,-681,-1616,-1894,-852,-434,-134,87,-79,-291,-462,-832,-885,-999,-902,-273,-2,69,-67,-56,-476,-1023,-761,107,904,1566,1165,391,168,106,82,108,175,193,233,291,131,-242,-62,182,64,113,166,-27,565,2154,1542,379,-45,-278,-531,-479,-367,-324,-295,-255,-249,-299,-337,-447,-429,-445,-608,-664,-638,-486,-273,-186,-365,-558,-412,-34,-152,-565,-807,-1070,-1730,-2093,-2463,-2321,-812,176,-125,-270,-205,-1178,-1468,-22,634,149,191
2018-05-14,14:43:11.689,-209,-351,1955,4215,2664,1212,458,-121,-303,-269,-360,-157,-129,-260,-308,-337,-346,-361,-421,-561,-805,-879,-483,-242,-188,78,366,437,451,401,302,278,265,218,263,271,220,223,273,323,292,201,105,20,-60,-116,-189,-286,-646,-413,1163,1318,22,-166,-261,-401,-257,34,150,63,-122,-390,-1525,-1740,-783,-18,487,635,430,158,82,32,-80,-522,-632,-760,327,675,239,121,171,-188,-1340,-616,374,1105,1448,1189,970,562,391,356,398,420,340,31,-485,269,2856,3060,821,-381,-510,-908,-666,-195,11,70,126,170,159,191,163,78,-9,5,-5,-21,0,52,98,105,85,21,-59,-234,-624,-617
2018-05-14,14:43:12.726,-413,-407,-489,-428,-188,-37,-22,-141,-242,-375,-765,-1132,-1828,-2272,-499,-25,-677,432,3593,3910,1605,278,-339,-687,-704,-646,-593,-634,-1112,-1258,-1053,-383,405,283,-219,105,164,-170,-326,-304,-283,-254,-168,-190,-268,-247,-403,-516,-217,-73,-139,-53,96,220,234,159,63,-19,-38,-100,-208,-186,-164,-506,-680,536,1953,1036,187,-214,-492,-732,-632,-572,-659,-631,-498,-444,-399,-335,-235,-248,-373,-603,-562,-748,-1713,-1764,-785,287,738,376,-37,-92,-38,-324,-934,-485,440,604,396,301,380,294,-372,-526,-145,906,1325,1053,490,-361,-46,2185,3330,2032,913,205,-59,-169,-114,-193,-596,-379,-212,299,-164,-188
2018-05-14,14:43:13.764,-12,38,113,134,89,93,149,227,224,113,136,82,-76,-199,-236,-263,-291,-328,-419,-437,-261,-158,-1,218,306,218,74,298,229,30,-236,-998,-895,1158,2225,442,-47,198,238,-53,-151,-142,-136,-183,-249,-247,-443,-921,-583,412,165,119,72,-404,-983,-338,-30,6,261,758,913,642,250,115,32,-20,-25,120,176,5,-156,7,86,18,118,227,323,320,109,-195,540,1875,1102,314,54,-239,-483,-429,-281,-212,-170,-170,-134,-153,-219,-341,-603,-717,-669,-534,-310,-107,47,154,254,276,225,-16,153,-114,-753,-1169,-1576,-1349,-987,246,612,86,-247,-297,-334,-517,-1341,-1132,84,440,-503,-998
2018-05-14,14:43:14.801,394,2459,1803,443,648,1681,825,150,-93,-116,-288,-508,-420,6,23,2,-208,-441,-392,-579,-457,81,151,145,328,288,214,164,154,189,218,155,90,60,32,153,263,293,339,288,210,101,61,-68,-153,-210,-645,-814,594,1608,260,-87,-38,-49,-167,78,197,130,-249,-930,-346,-783,-666,82,271,133,-124,-189,-390,-757,-1225,-128,183,217,517,316,142,137,117,-449,-875,-459,867,1033,1107,980,592,367,300,283,213,102,72,-28,-451,-51,1775,1813,401,-211,-427,-378,-42,206,291,349,378,372,300,164,77,60,94,192,277,325,457,600,641,592,568,455,161,-92,-269,-376,-496,-439
2018-05-14,14:43:15.838,-244,-102,134,468,638,666,736,273,-363,-1184,-2222,-2141,-1252,-903,-717,101,2436,3143,1360,121,-1202,-1820,-194,915,457,7,26,-108,-1041,-893,-112,165,431,524,497,246,-30,-234,-300,-25,52,-106,-322,-502,-404,-575,-993,-971,-746,-744,-740,-369,58,238,194,40,-115,-194,-181,-247,-317,-482,-892,-316,1982,2012,386,-183,-664,-1105,-1322,-1315,-1295,-1288,-1255,-1219,-997,-868,-767,-592,-524,-469,-320,62,132,-269,-886,-1315,-1197,-1436,-1270,-348,152,-258,-578,-638,-792,-864,-538,-615,-113,565,626,324,162,131,-252,-490,-1155,-719,848,2390,3349,2108,844,186,-165,-63,29,146,127,95,55,68,31,-279,-335,-101
2018-05-14,14:43:16.875,-85,23,399,654,760,679,606,558,534,445,304,148,92,111,87,36,42,91,109,91,42,-7,-35,-83,-118,-78,44,116,110,-123,-190,1430,2992,1734,751,-20,-577,-1106,-1816,-2143,-1831,-784,932,1072,373,219,202,145,28,-75,1,-337,-690,345,848,238,842,1157,839,366,434,76,307,524,784,673,565,509,445,389,240,143,184,155,-90,-277,-145,-479,-631,1439,3339,1466,232,-51,-268,-337,-253,-203,-216,-325,-399,-307,-263,-299,-341,-300,-313,-313,-380,-419,-436,-514,-451,-518,-575,-551,-340,-123,-228,-591,-690,-762,-845,-909,-959,-828,-985,-1230,-1545,-895,-489,-268,410,286,-222,-901,-714,1222
2018-05-14,14:43:17.913,1724,155,34,-494,-705,-158,-66,-221,-814,-931,-403,208,-49,-59,295,51,-295,-351,-350,-385,-317,-234,-185,-203,-340,-452,-336,-218,-346,-300,-163,-13,88,137,168,207,307,338,167,-45,-54,-5,-36,-72,-251,-815,-126,2793,2954,940,-168,-829,-1080,-1114,-1065,-989,-900,-703,-528,-348,-260,-246,-118,-404,-732,-483,45,178,652,905,590,387,416,82,-202,115,-792,-367,1149,1337,589,160,272,-91,-885,20,1144,1275,1281,811,618,525,85,-336,556,2536,2382,1218,507,-354,-875,-602,-16,81,144,276,274,213,207,199,197,212,210,222,198,173,228,266,280,278,153,-76,-271,-319,-441,-609,-656,-570
