2018-05-16,11:23:24.651,-812,-825,-825,-836,-866,-895,-933,-983,-1036,-1052,-1011,-947,-846,-725,-554,-351,-111,119,334,505,633,686,710,701,673,614,572,550,515,490,452,442,402,373,352,341,319,308,310,277,201,134,81,-27,-301,-299,-168,-64,93,156,175,178,157,129,131,127,-78,-772,-1008,362,3382,3890,2042,464,-443,-880,-940,-957,-960,-972,-964,-934,-891,-899,-915,-944,-978,-1053,-1119,-1138,-1124,-1082,-961,-814,-633,-430,-181,99,346,524,652,729,760,751,708,649,598,557,521,493,445,421,393,381,363,346,344,338,334,289,214,177,154,3,-192,-125,6,100,237,272,288,252,227,207,191,192,-133,-723
2018-05-16,11:23:25.688,-593,1674,4376,3399,1349,38,-693,-862,-860,-888,-909,-900,-872,-864,-877,-907,-933,-968,-1022,-1073,-1116,-1139,-1087,-999,-860,-714,-517,-297,-65,163,372,513,588,616,614,579,530,480,418,354,295,267,237,205,182,153,131,138,125,128,110,84,40,-3,-22,-77,-328,-418,-253,-166,-23,100,114,93,83,67,47,39,-75,-658,-1115,-619,2039,3838,2357,499,-447,-896,-955,-946,-947,-966,-953,-934,-935,-940,-950,-975,-1024,-1064,-1091,-1118,-1122,-1097,-1018,-895,-758,-570,-350,-136,102,325,438,497,525,526,509,460,431,386,335,299,257,225,223,201,184,184,173,184,187,165,167,121,75,60,-46,-292
2018-05-16,11:22:33.324,491,479,444,347,282,255,52,-31,90,223,347,489,556,581,588,578,577,592,559,46,-430,-129,2390,3792,2497,1078,266,-141,-173,-183,-187,-190,-188,-186,-189,-226,-274,-293,-301,-306,-249,-201,-178,-178,-144,-87,-12,73,183,324,484,619,733,807,804,768,722,633,541,467,399,357,306,235,93,-42,-103,-169,-224,-258,-441,-487,-361,-267,-146,-34,-4,2,-16,-49,-55,-59,-257,-890,-1184,-52,2740,3151,1501,153,-607,-967,-1005,-1012,-1020,-998,-950,-917,-901,-917,-885,-862,-829,-795,-783,-780,-735,-639,-515,-403,-286,-163,-20,121,267,409,509,540,528,502,467,400,345,294,256,215,177,142
2018-05-16,11:23:26.725,-239,-70,42,206,243,276,282,272,241,236,211,-34,-657,-898,432,3302,3513,1664,363,-367,-640,-666,-709,-752,-720,-737,-770,-787,-796,-835,-897,-959,-1060,-1122,-1152,-1153,-1088,-1007,-881,-723,-521,-282,-16,249,455,556,595,616,637,620,569,500,473,433,367,365,355,327,327,331,317,316,325,300,259,226,182,164,118,-55,-226,-122,39,158,305,366,394,399,381,359,336,326,-75,-711,-530,1585,4068,3364,1565,309,-447,-736,-771,-801,-810,-814,-806,-822,-831,-822,-843,-878,-929,-977,-1018,-1038,-1005,-943,-828,-662,-495,-284,-28,204,410,547,626,664,668,639,589,550,484,456,424,389,356,318
2018-05-16,11:23:27.762,298,272,255,237,228,218,215,211,172,113,70,-3,-228,-271,-118,-18,106,222,256,265,227,198,202,172,38,-578,-936,-180,2690,4205,2426,549,-429,-853,-883,-912,-948,-947,-943,-933,-935,-934,-933,-964,-1009,-1066,-1131,-1152,-1158,-1118,-1020,-889,-741,-557,-329,-90,142,321,436,500,525,527,501,462,423,363,302,273,244,213,186,170,184,165,139,152,148,120,123,114,69,23,13,-168,-374,-250,-122,-32,117,142,135,138,135,116,103,74,-270,-913,-1027,590,3467,3162,1197,31,-634,-807,-826,-840,-843,-833,-829,-818,-794,-792,-819,-867,-910,-960,-1003,-1034,-1027,-957,-853,-739,-572,-365,-140,104
2018-05-16,11:22:34.361,107,60,-22,-111,-142,-229,-441,-420,-280,-204,-82,14,21,-18,-66,-116,-147,-196,-551,-1140,-1230,486,3333,2868,878,-306,-913,-1034,-1039,-1051,-1048,-1029,-1017,-997,-1041,-1068,-1083,-1094,-1084,-1086,-1102,-1086,-1010,-898,-774,-639,-493,-344,-172,-19,131,254,328,365,372,352,345,337,315,284,278,264,254,255,252,254,232,189,171,182,26,-93,32,143,241,390,463,480,480,455,451,454,389,-151,-775,-631,1892,3211,2006,754,37,-284,-327,-355,-369,-388,-401,-435,-465,-503,-544,-587,-621,-665,-690,-657,-631,-580,-492,-398,-286,-173,-55,77,203,328,419,474,501,493,466,461,463,454,456,475,716,1105
2018-05-16,11:23:28.800,323,476,549,575,569,557,517,480,443,399,344,298,279,253,219,223,222,205,193,188,191,161,152,143,89,53,22,-230,-299,-136,-53,113,225,223,221,235,226,215,199,106,-376,-905,-590,1863,3901,2627,816,-139,-651,-745,-776,-796,-796,-811,-823,-819,-815,-860,-875,-919,-986,-1055,-1093,-1103,-1072,-1008,-891,-765,-593,-376,-127,147,369,516,573,621,640,615,550,499,466,427,384,363,351,351,327,310,296,289,301,294,281,290,278,256,224,153,137,57,-186,-163,-12,73,232,299,334,327,301,281,260,241,23,-629,-824,492,3283,3790,2061,575,-304,-775,-858,-863,-901,-903,-912,-921
2018-05-16,11:23:29.837,-904,-873,-901,-933,-966,-1024,-1084,-1102,-1111,-1050,-957,-831,-642,-429,-210,23,243,421,544,596,618,608,553,497,451,412,369,346,314,273,252,229,231,224,223,228,218,203,176,129,85,65,-73,-284,-222,-70,6,170,235,252,235,224,216,206,191,-8,-671,-828,430,3480,4009,1978,333,-550,-873,-910,-941,-959,-947,-942,-935,-902,-898,-904,-938,-998,-1063,-1105,-1132,-1127,-1052,-949,-809,-643,-424,-176,79,312,507,602,651,664,643,604,564,502,461,409,365,330,287,280,256,241,223,217,194,184,180,166,144,96,42,13,-177,-335,-204,-87,21,178,212,201,188,182,153,144,102,-308
2018-05-16,11:23:30.874,-932,-784,1251,3901,3184,1116,-96,-740,-861,-842,-864,-873,-871,-846,-835,-837,-821,-853,-898,-944,-1007,-1035,-1042,-1036,-979,-872,-736,-571,-364,-138,111,333,482,564,593,581,557,537,502,440,390,356,319,288,237,224,212,197,187,177,164,156,157,151,125,116,68,9,-4,-192,-350,-225,-101,22,171,204,192,177,164,151,139,85,-230,-862,-980,811,3590,3072,1168,48,-607,-794,-804,-834,-835,-842,-826,-833,-837,-856,-886,-930,-972,-1021,-1062,-1093,-1069,-1012,-908,-792,-641,-444,-212,34,239,391,493,536,524,526,485,453,401,340,302,268,243,222,179,159,154,130,107,112,110,103,100,72
2018-05-16,11:22:35.399,1059,913,811,706,570,522,410,145,112,195,234,313,363,330,278,217,176,131,92,-237,-911,-1215,322,3076,2635,807,-252,-802,-952,-1013,-1073,-1077,-1058,-1073,-1120,-1153,-1195,-1284,-1323,-1326,-1310,-1286,-1247,-1187,-1102,-975,-839,-699,-571,-388,-190,8,172,277,313,317,323,304,261,236,231,222,200,182,174,166,155,140,102,51,54,-10,-220,-187,-83,-1,147,203,188,172,151,111,98,65,-383,-951,-844,1319,3483,2574,930,-105,-683,-878,-921,-939,-916,-896,-897,-911,-941,-976,-999,-1016,-1022,-1039,-1042,-1008,-958,-866,-750,-613,-456,-311,-166,-31,118,253,310,334,354,343,330,318,277,253,255,245
2018-05-16,11:23:31.911,65,26,-13,-8,-175,-338,-201,-77,48,206,236,249,251,249,260,252,202,-128,-788,-761,1155,3942,3496,1617,369,-358,-629,-645,-653,-670,-679,-667,-647,-628,-610,-627,-662,-709,-753,-787,-833,-816,-742,-642,-516,-332,-130,123,433,633,807,905,961,959,946,883,823,778,720,672,655,606,549,527,510,495,481,455,426,427,412,383,330,302,236,201,149,-93,-165,-40,50,200,296,305,285,269,242,219,187,111,-365,-880,-434,2084,4039,2729,890,-174,-805,-979,-986,-1013,-1019,-1026,-1034,-1045,-1042,-1058,-1094,-1155,-1213,-1248,-1272,-1278,-1240,-1163,-1042,-882,-690,-490,-252,1,208,332,396,401,406,379
2018-05-16,11:23:32.261,315,265,229,206,168,124,97,80,56,50,51,27,10,18,11,-7,-24,-67,-108,-135,-192,-412,-473,-306,-224,-75,4,39,41,31,13,-3,1,-85,-590,-1078,-691,1687,3927,2796,774,-365,-930,-1006,-1017,-1022,-1026,-997,-979,-954,-959,-962,-985,-1010,-1077,-1126,-1161,-1182,-1158,-1076,-965,-826,-647,-420,-172,81,286,428,497,531,522,518,489,439,375,338,296,271,241,206,191,176,167,154,158,156,136,121,121,113,65,21,11,-58,-292,-300,-154,-55,127,191,203,215,193,164,149,140,57,-477,-963,-545,2085,3741,2359,683,-233,-677,-745,-747,-752,-762,-760,-740,-716,-727,-744,-790,-818,-886
2018-05-16,11:23:33.298,-937,-972,-965,-929,-848,-740,-609,-439,-209,30,276,463,580,671,687,678,672,628,583,519,472,423,388,354,304,279,254,238,230,208,178,158,140,117,107,83,43,-19,-67,-148,-361,-404,-275,-166,-10,75,81,83,84,61,58,29,-51,-619,-1120,-534,2174,3926,2526,762,-229,-784,-902,-895,-902,-901,-885,-874,-857,-834,-840,-835,-880,-905,-936,-990,-1016,-973,-885,-762,-598,-418,-203,69,338,572,716,808,833,845,834,802,754,693,662,617,577,553,515,506,491,475,475,468,464,470,464,453,448,396,337,309,263,48,-28,95,181,326,427,447,427,415,387,354,335,296,-120,-719
2018-05-16,11:22:36.436,252,244,261,262,247,201,137,109,-13,-185,-119,4,109,252,330,351,322,289,265,250,178,-328,-821,-556,2034,3932,2494,719,-233,-683,-772,-779,-776,-776,-767,-762,-791,-815,-853,-891,-903,-917,-921,-900,-853,-780,-668,-540,-436,-323,-213,-90,33,148,249,296,308,296,270,243,230,217,200,180,174,182,166,162,157,149,106,33,7,-78,-289,-236,-105,-32,134,211,217,201,180,173,173,160,-202,-901,-1219,707,3073,2435,942,62,-432,-518,-547,-563,-570,-575,-586,-603,-635,-659,-699,-713,-707,-714,-706,-685,-636,-542,-433,-327,-236,-157,-45,75,207,306,373,409,411,398,380,362,344,326
2018-05-16,11:23:34.335,-513,1813,4223,3126,1205,49,-634,-811,-804,-840,-866,-865,-869,-865,-869,-890,-906,-948,-1021,-1077,-1114,-1130,-1098,-1021,-928,-797,-611,-381,-155,91,300,458,540,556,549,522,492,423,368,319,272,236,211,173,141,128,119,110,97,73,61,65,34,22,-9,-55,-86,-144,-372,-427,-272,-158,11,70,78,72,70,54,40,41,-66,-601,-1080,-645,1867,4024,2646,656,-402,-897,-927,-941,-957,-945,-943,-917,-898,-903,-907,-941,-979,-1029,-1094,-1130,-1144,-1118,-1035,-935,-798,-638,-410,-139,110,305,431,503,531,520,499,473,426,388,339,282,246,227,190,165,152,120,142,137,112,112,121,111,92,91
2018-05-16,11:23:35.372,58,5,-15,-33,-258,-353,-210,-109,46,128,140,166,163,148,147,129,50,-367,-924,-825,1272,3740,2893,970,-81,-675,-772,-776,-771,-775,-781,-753,-745,-758,-765,-773,-796,-857,-906,-960,-978,-951,-897,-797,-662,-507,-301,-33,222,439,582,687,708,688,673,645,616,559,510,454,407,361,330,293,270,264,254,234,238,230,199,183,189,171,148,123,78,29,-48,-263,-293,-152,-67,102,153,174,184,173,141,129,127,26,-515,-1022,-460,2167,4122,2733,952,-84,-714,-844,-850,-885,-886,-869,-877,-861,-867,-859,-890,-905,-944,-1011,-1070,-1099,-1067,-983,-865,-723,-548,-334,-59,190,408,572,664,671
2018-05-16,11:23:36.410,670,667,614,573,527,475,438,405,359,326,299,279,289,269,250,254,238,224,219,200,189,161,109,67,-5,-241,-240,-99,-17,157,204,233,229,225,198,186,184,83,-446,-878,-278,2344,4143,2681,834,-196,-773,-858,-862,-884,-884,-883,-867,-839,-837,-847,-877,-898,-966,-1016,-1065,-1077,-1034,-953,-846,-686,-497,-252,-8,226,426,570,646,683,659,639,606,543,484,449,419,382,347,310,286,262,241,230,218,208,193,178,168,160,166,159,120,55,11,-79,-330,-288,-134,-44,121,164,175,169,152,153,129,97,-62,-680,-931,12,2882,4038,2155,363,-545,-879,-886,-905,-928,-914,-884,-887
2018-05-16,11:23:37.447,-868,-872,-864,-893,-943,-994,-1066,-1098,-1087,-1048,-975,-852,-715,-527,-289,-32,197,383,515,580,596,588,567,536,459,419,380,345,301,253,219,226,210,202,185,166,173,161,141,130,130,107,94,76,33,-27,-78,-284,-348,-194,-93,62,144,156,177,164,125,121,128,40,-432,-950,-680,1637,3808,2755,888,-151,-687,-781,-782,-811,-804,-796,-777,-765,-761,-769,-795,-840,-896,-941,-974,-997,-978,-902,-806,-686,-516,-328,-88,169,397,535,611,660,674,651,604,566,523,477,424,406,366,354,322,303,271,248,232,228,223,230,210,196,183,166,132,60,38,-56,-292,-251,-135,-45,129,161
2018-05-16,11:23:38.484,177,158,158,98,89,59,-105,-740,-1120,-137,2769,3842,2109,469,-425,-892,-962,-972,-1001,-1005,-1026,-1008,-981,-974,-1006,-1021,-1060,-1116,-1182,-1221,-1209,-1175,-1092,-963,-820,-621,-393,-123,138,367,519,587,623,630,613,570,506,471,435,409,374,361,337,316,307,290,278,303,286,271,290,307,309,276,235,219,189,12,-98,39,137,278,397,431,446,446,425,423,416,405,91,-561,-590,1265,4018,3607,1770,484,-283,-582,-609,-621,-618,-632,-627,-622,-612,-630,-651,-687,-733,-822,-896,-867,-850,-818,-698,-528,-348,-107,119,347,585,747,817,839,829,774,724,665,595,488,411,292,201,135,46,-41
2018-05-16,11:22:37.473,320,311,303,285,278,281,276,266,412,899,1020,735,602,631,634,696,728,673,586,487,409,359,317,87,-664,-1255,-46,2914,2815,1111,7,-627,-933,-1099,-1221,-1257,-1231,-1200,-1192,-1211,-1259,-1274,-1279,-1263,-1213,-1169,-1107,-998,-886,-749,-626,-512,-355,-199,-24,171,362,462,521,741,820,704,584,462,359,306,285,253,241,244,247,238,210,171,127,102,-108,-131,-14,97,270,374,380,371,358,361,341,331,86,-557,-786,684,3362,3275,1651,425,-277,-561,-606,-649,-635,-597,-578,-567,-594,-632,-676,-692,-682,-670,-660,-610,-528,-412,-283,-134,4,140,264,396,543,679,761,806,828,832,822,813
2018-05-16,11:23:39.521,-146,-210,-279,-377,-507,-583,-724,-888,-1049,-1216,-1331,-1428,-1612,-1816,-1711,-1586,-1436,-1310,-1305,-1268,-1300,-1305,-1301,-1322,-1383,-1987,-2675,-1932,986,4137,3162,377,-1523,-2447,-2590,-2426,-2378,-2320,-2209,-2073,-1957,-1840,-1748,-1638,-1605,-1628,-1606,-1566,-1470,-1349,-1151,-857,-562,-235,245,736,1202,1609,1912,2055,2104,2097,2074,2049,1996,1887,1826,1794,1752,1700,1645,1590,1562,1548,1517,1455,1386,1315,1281,1336,1419,1372,1313,1271,1081,860,875,904,871,926,856,739,632,525,441,352,268,-97,-850,-814,1037,4179,3869,1477,-113,-970,-1204,-1189,-1208,-1231,-1236,-1209,-1177,-1166,-1165,-1182,-1200,-1228,-1265,-1305,-1331,-1312,-1263,-1158,-992,-795,-596,-338
2018-05-16,11:23:40.558,-31,211,398,508,572,591,581,570,542,495,469,433,378,349,323,304,288,276,276,286,286,299,282,277,228,187,181,124,-112,-133,15,118,281,383,401,388,381,353,333,336,240,-310,-746,-105,2593,4349,2786,841,-217,-730,-771,-796,-836,-811,-813,-815,-797,-780,-799,-854,-897,-957,-995,-1034,-1059,-1042,-959,-865,-717,-511,-271,26,298,538,681,801,864,883,873,829,793,757,703,676,637,585,540,540,546,558,563,564,584,610,608,572,489,451,296,16,34,139,174,295,330,314,273,242,197,143,96,-129,-824,-1036,332,3232,3825,1902,230,-716,-1162,-1223,-1224,-1219,-1209,-1205,-1189,-1182
2018-05-16,11:22:38.510,783,743,721,710,661,653,657,640,609,554,500,476,363,139,149,258,341,476,545,547,530,493,453,429,398,11,-616,-657,1426,3862,3012,1349,233,-447,-691,-729,-743,-745,-758,-778,-812,-848,-932,-998,-1011,-1038,-1048,-1041,-1026,-966,-836,-680,-549,-442,-339,-224,-91,39,149,221,242,243,231,215,186,178,174,164,158,152,164,199,175,139,71,17,-29,-213,-342,-227,-144,-53,80,119,94,54,12,-28,-50,-222,-869,-1309,-517,2479,3328,1316,-418,-1351,-1702,-1752,-1747,-1700,-1635,-1586,-1570,-1718,-1913,-2020,-1997,-1938,-1888,-1832,-1745,-1644,-1485,-1321,-1139,-934,-766,-594,-384,-201,-29,73,145,222,256,268
2018-05-16,11:23:41.596,-1193,-1207,-1233,-1274,-1333,-1382,-1426,-1439,-1386,-1303,-1142,-909,-667,-409,-139,103,294,418,478,493,472,447,388,325,303,254,206,174,138,86,58,53,63,53,36,39,28,-5,-30,-60,-126,-318,-400,-262,-139,-15,92,122,134,141,124,100,116,79,-395,-904,-466,2069,4349,3057,962,-244,-878,-1002,-1009,-1016,-1007,-997,-976,-960,-954,-944,-972,-1016,-1075,-1127,-1171,-1209,-1177,-1095,-976,-814,-623,-380,-102,176,404,550,631,658,672,656,596,549,497,454,410,370,340,289,272,259,259,253,224,216,214,199,185,128,74,66,-58,-258,-175,-17,73,221,265,277,270,258,239,227,195,-59,-747,-867
2018-05-16,11:23:42.633,621,3807,3945,1758,194,-632,-874,-858,-879,-898,-904,-884,-871,-859,-874,-907,-928,-968,-1046,-1108,-1128,-1122,-1085,-1004,-871,-727,-519,-245,17,250,429,533,570,597,576,549,523,484,429,393,349,305,272,247,223,205,209,201,178,162,178,157,142,108,65,78,-64,-292,-197,-32,66,197,257,276,263,262,252,242,220,-36,-680,-877,474,3431,3629,1648,292,-437,-668,-685,-712,-716,-705,-703,-682,-651,-673,-692,-736,-775,-818,-865,-911,-919,-869,-762,-650,-509,-309,-87,192,420,571,689,742,745,744,715,675,598,549,504,456,406,387,367,336,317,311,296,263,251,245,220,179,114,103,-21
2018-05-16,11:23:43.670,-256,-160,-8,73,260,317,334,351,359,335,316,289,75,-560,-809,399,3305,3884,1900,327,-473,-767,-791,-790,-796,-824,-811,-806,-813,-832,-867,-908,-976,-1021,-1079,-1157,-1172,-1145,-1055,-934,-806,-609,-368,-82,183,361,479,541,557,555,531,478,422,386,329,292,252,219,201,191,181,151,152,146,114,113,110,100,66,11,-5,-77,-321,-351,-165,-72,54,123,149,151,145,124,101,96,-7,-582,-1027,-256,2429,3965,2490,794,-201,-796,-947,-951,-962,-962,-954,-956,-941,-943,-971,-992,-1035,-1084,-1120,-1159,-1176,-1141,-1051,-939,-806,-622,-368,-104,147,355,498,559,580,576,564,525,473,431,387,348
2018-05-16,11:22:39.547,279,291,315,330,350,376,377,383,387,408,399,357,357,269,124,183,330,461,648,739,793,812,815,838,820,772,164,-555,-511,2068,3711,2399,716,-303,-830,-978,-1069,-1132,-1167,-1225,-1279,-1315,-1355,-1426,-1478,-1512,-1564,-1603,-1606,-1576,-1510,-1421,-1306,-1160,-1006,-874,-722,-554,-374,-209,-93,-31,4,9,-6,-6,-8,-20,-34,-52,-54,-72,-66,-112,-166,-183,-175,-340,-433,-343,-256,-143,2,40,23,-33,-78,-107,-89,-133,-708,-1000,78,3005,4115,2382,524,-547,-937,-889,-802,-734,-635,-547,-498,-437,-381,-341,-332,-306,-284,-283,-276,-215,-109,38,215,412,630,851,1068,1270,1414,1506,1532,1531,1502,1456
2018-05-16,11:23:44.707,309,249,231,212,196,193,179,165,166,151,139,132,103,57,44,-56,-270,-237,-78,8,163,226,247,231,216,199,191,167,17,-629,-911,132,3198,4174,2224,473,-474,-862,-889,-908,-936,-935,-919,-888,-878,-885,-885,-912,-957,-1003,-1065,-1117,-1133,-1085,-992,-882,-732,-551,-293,-25,220,404,523,581,581,558,530,477,432,398,346,297,250,234,189,172,150,134,120,103,109,103,102,88,41,-3,-20,-80,-293,-323,-160,-73,77,169,191,193,206,197,182,191,82,-508,-966,-365,2496,4408,2801,815,-246,-727,-783,-769,-777,-767,-748,-723,-705,-702,-705,-730,-741,-781,-839,-863,-867,-845,-786,-666
2018-05-16,11:23:45.744,-522,-358,-133,157,408,624,753,816,857,856,821,760,717,679,624,574,523,495,480,435,409,411,384,350,340,311,293,269,223,165,158,30,-187,-120,10,106,270,309,304,282,248,229,206,181,-29,-696,-972,207,3255,3773,1734,239,-568,-835,-848,-871,-893,-892,-870,-858,-862,-861,-897,-933,-979,-1030,-1085,-1115,-1105,-1080,-984,-874,-741,-551,-320,-70,175,363,464,521,538,516,483,441,387,336,300,262,202,185,180,157,151,133,101,77,69,73,70,44,0,-48,-77,-247,-429,-301,-150,-55,106,129,134,107,91,62,37,14,-244,-883,-963,698,3555,3368,1308,-7,-711,-914,-915,-947
2018-05-16,11:22:40.584,1421,1388,1358,1323,1308,1290,1277,1257,1218,1115,1017,984,804,670,759,855,964,1143,1183,1146,1086,1059,1021,980,874,218,248,1522,4524,5228,2752,608,-327,-464,-462,-469,-492,-481,-452,-473,-559,-636,-675,-712,-755,-785,-817,-834,-796,-712,-567,-431,-300,-168,-15,138,277,401,453,425,373,324,269,225,174,121,73,35,17,0,-33,-93,-172,-240,-251,-459,-549,-399,-314,-210,-36,14,11,-18,-56,-72,-49,-94,-665,-958,133,2802,3334,1529,-84,-924,-1143,-1133,-1127,-1108,-1089,-1096,-1097,-1109,-1142,-1164,-1178,-1203,-1223,-1235,-1233,-1179,-1045,-907,-761,-652,-520,-352,-199,-57,61,136,177,179,182,168,146,97
2018-05-16,11:23:46.782,-1011,-1030,-1039,-1053,-1037,-1061,-1079,-1086,-1095,-1122,-1148,-1168,-1150,-1071,-959,-797,-619,-397,-155,113,353,521,605,614,604,582,512,466,426,387,346,310,301,283,267,261,232,210,176,121,91,65,38,16,-25,-52,-89,-296,-376,-202,-80,42,160,196,216,216,179,166,152,109,-338,-961,-628,1753,3928,2900,1189,73,-631,-862,-867,-886,-883,-871,-862,-843,-857,-876,-893,-917,-976,-1040,-1070,-1100,-1077,-1010,-915,-764,-563,-339,-95,151,373,518,604,640,643,625,573,527,483,443,415,384,360,305,269,243,206,188,179,171,157,172,156,103,80,34,-155,-300,-186,-57,42,164,194,212,204,172
2018-05-16,11:23:47.819,160,165,130,-248,-851,-710,1490,4033,3148,1185,-8,-701,-870,-854,-853,-848,-846,-834,-821,-806,-798,-811,-857,-907,-959,-1002,-1015,-984,-906,-795,-666,-483,-254,12,274,502,656,760,799,804,786,752,705,680,642,591,551,521,490,462,446,442,429,407,402,402,404,351,296,272,225,33,-94,37,164,270,396,409,428,422,405,371,334,292,-99,-758,-765,1243,4060,3356,1290,91,-558,-709,-715,-742,-749,-747,-740,-749,-753,-773,-814,-853,-899,-945,-1002,-1018,-1002,-949,-876,-748,-592,-392,-164,89,305,457,554,585,589,560,512,466,414,357,319,275,228,184,172,153,115,106,103,82,70,59
2018-05-16,11:23:48.856,40,-7,-49,-56,-224,-403,-274,-130,-32,90,120,117,96,77,62,48,7,-306,-924,-1039,598,3372,3062,1122,-15,-697,-874,-864,-897,-914,-901,-891,-866,-857,-888,-911,-939,-972,-1005,-1078,-1109,-1072,-1025,-949,-825,-685,-482,-239,9,236,410,523,551,548,537,517,458,418,391,346,296,255,233,201,191,176,164,152,143,131,132,108,65,24,-17,-98,-342,-340,-164,-64,71,125,155,146,126,94,104,89,-42,-644,-1097,-359,2398,3804,2202,539,-324,-815,-902,-926,-935,-927,-935,-929,-903,-908,-930,-943,-976,-1031,-1062,-1116,-1136,-1103,-1030,-914,-764,-584,-349,-88,193,415,569,661,685,679,682,639
2018-05-16,11:23:49.893,584,553,486,451,429,394,346,327,313,307,296,277,268,259,247,227,181,158,105,-87,-221,-98,38,140,260,290,301,290,271,269,271,209,-173,-782,-664,1440,3887,3143,1312,151,-561,-809,-800,-828,-834,-826,-815,-826,-826,-842,-867,-887,-931,-1011,-1041,-1062,-1068,-1012,-899,-748,-571,-358,-119,142,369,528,620,656,649,619,588,546,493,454,417,383,332,289,243,232,230,203,181,181,171,172,153,114,66,37,-7,-219,-269,-107,2,100,190,213,207,204,187,149,164,87,-485,-935,-387,2315,4229,2720,754,-305,-830,-907,-903,-913,-920,-896,-885,-870,-869,-898,-928,-950,-984,-1038,-1082,-1103
2018-05-16,11:23:50.930,-1081,-1007,-908,-762,-597,-361,-75,187,393,532,601,635,632,601,554,518,477,426,377,338,294,262,233,214,202,193,194,186,159,148,141,131,118,71,17,-7,-162,-328,-199,-79,5,134,163,183,178,170,160,153,112,-221,-937,-991,650,3652,3523,1454,119,-612,-805,-805,-831,-840,-839,-840,-828,-819,-824,-842,-881,-919,-953,-1016,-1038,-1052,-1013,-934,-832,-672,-477,-267,-1,240,434,516,553,556,565,536,491,425,371,333,286,255,222,207,171,135,133,126,101,86,75,83,76,87,56,-1,-38,-74,-252,-388,-252,-139,-1,115,111,124,117,106,107,112,58,-284,-926,-967,784,3691
2018-05-16,11:22:41.622,68,54,44,28,-9,-38,-118,-169,-196,-416,-495,-365,-254,-104,77,128,127,115,102,101,127,53,-577,-909,285,3238,3661,1740,171,-684,-930,-923,-911,-900,-900,-905,-908,-918,-962,-1002,-1021,-1042,-1074,-1097,-1107,-1079,-978,-862,-735,-601,-444,-279,-112,83,239,357,397,410,389,381,357,318,303,295,277,276,274,238,162,116,34,-192,-177,-48,47,233,347,357,330,308,289,268,305,11,-568,-293,1921,4232,3336,1295,-86,-779,-905,-907,-920,-920,-918,-899,-898,-929,-963,-971,-998,-1028,-1036,-1034,-996,-918,-783,-623,-485,-328,-176,-37,103,246,341,394,413,400,394,383,360,318,259,232,215,218
2018-05-16,11:23:51.968,3237,1208,49,-574,-728,-744,-739,-737,-736,-725,-699,-681,-708,-715,-718,-754,-793,-841,-878,-870,-800,-724,-608,-484,-277,-31,231,490,676,746,811,817,802,773,730,694,649,582,547,511,482,445,414,426,390,356,343,347,344,322,295,285,264,211,150,114,-11,-205,-127,-4,95,222,241,257,257,239,210,202,181,-48,-716,-983,296,3306,3872,1917,402,-441,-808,-843,-858,-876,-869,-866,-879,-878,-866,-879,-923,-960,-1017,-1069,-1098,-1142,-1113,-1029,-906,-761,-582,-348,-77,199,404,538,628,614,590,574,520,462,414,390,351,289,266,213,177,186,159,157,124,132,146,114,99,71,81,66
2018-05-16,11:23:53.005,14,-46,-166,-371,-256,-129,-4,143,157,174,160,159,136,129,111,-154,-792,-850,735,3671,3690,1602,137,-673,-955,-971,-1002,-996,-986,-978,-944,-924,-952,-992,-1026,-1056,-1106,-1155,-1183,-1171,-1102,-1019,-894,-740,-550,-310,-35,179,354,469,527,549,530,501,451,392,346,288,227,201,179,155,127,110,94,71,55,65,78,75,61,32,-24,-83,-117,-284,-465,-340,-243,-139,28,73,80,79,68,70,76,72,-83,-677,-899,280,2946,3407,1597,108,-664,-872,-877,-874,-873,-870,-861,-852,-847,-848,-890,-919,-990,-1044,-1090,-1154,-1184,-1160,-1086,-987,-847,-669,-455,-209,-61,5,23,16,29,12,-13,7
2018-05-16,11:23:54.042,-19,-26,-37,-65,-82,-86,-73,-66,-72,-52,-22,-42,-26,6,3,29,61,9,-6,-9,-134,-249,-142,-22,115,307,331,314,319,324,316,308,326,145,-477,-559,1079,3380,3186,1551,359,-307,-469,-470,-476,-470,-459,-442,-437,-461,-476,-521,-526,-578,-646,-687,-712,-698,-650,-566,-444,-287,-88,132,340,549,716,803,851,836,822,794,740,683,658,628,593,552,522,518,510,515,490,481,460,475,469,461,424,369,342,305,105,-1,106,204,371,512,517,514,515,495,469,455,499,184,-379,-333,1545,3475,2778,1191,150,-393,-491,-482,-505,-550,-530,-508,-527,-563,-578,-596,-677,-733,-762,-822
2018-05-16,11:22:42.659,211,154,94,83,-86,-249,-153,-26,111,309,371,376,357,329,323,350,317,-228,-534,473,3253,3935,2046,427,-464,-688,-677,-671,-640,-602,-565,-554,-553,-569,-607,-650,-682,-715,-741,-723,-669,-568,-446,-326,-200,-27,163,348,511,638,721,738,705,683,645,592,543,504,463,432,401,381,338,256,210,178,-66,-128,-8,95,244,386,401,388,354,304,279,299,71,-620,-678,1197,3957,3459,1357,-74,-773,-920,-924,-936,-932,-890,-867,-866,-880,-911,-932,-943,-969,-1011,-1021,-1015,-974,-876,-757,-641,-479,-315,-159,27,218,357,445,478,471,444,425,396,365,342,306,283,294,288,240,155,121,61
2018-05-16,11:23:55.079,-866,-867,-814,-722,-618,-490,-304,-88,119,314,452,529,545,546,523,484,442,414,347,301,270,247,209,183,173,162,147,120,123,125,123,96,39,21,-20,-204,-260,-130,-37,96,225,251,232,208,176,159,147,153,-196,-746,-633,1454,3486,2543,822,-205,-694,-760,-758,-779,-776,-752,-730,-726,-738,-747,-773,-796,-833,-894,-937,-952,-919,-837,-734,-608,-443,-251,-23,200,399,528,592,617,608,585,551,496,422,376,320,262,213,178,146,98,67,18,9,0,-13,-26,-65,-97,-130,-283,-429,-335,-224,-102,50,105,102,94,76,57,56,55,-155,-752,-807,770,3270,3027,1129,-182,-871,-1033
2018-05-16,11:23:56.116,-1051,-1069,-1063,-1056,-1065,-1042,-1029,-1052,-1082,-1115,-1162,-1211,-1251,-1276,-1251,-1185,-1117,-990,-808,-584,-351,-113,125,294,385,427,438,437,404,377,336,319,290,271,243,194,174,166,150,133,117,118,107,79,45,-3,-68,-257,-259,-112,-14,145,262,296,296,262,247,251,249,239,-241,-586,-15,2361,3689,2169,443,-448,-709,-712,-724,-737,-704,-674,-705,-700,-699,-724,-740,-764,-835,-908,-943,-946,-938,-850,-753,-646,-464,-268,-63,149,309,380,425,452,445,382,339,280,208,161,124,86,57,43,42,41,26,44,55,64,62,16,-31,-28,-104,-328,-313,-151,-43,148,247,280,279,286,273,295
2018-05-16,11:23:57.154,311,164,-463,-763,497,3391,3697,1823,404,-366,-559,-558,-574,-589,-589,-570,-588,-604,-581,-593,-639,-674,-737,-809,-846,-853,-817,-713,-588,-470,-280,-27,220,454,623,726,775,783,749,732,684,639,576,527,477,425,378,353,354,305,278,281,245,233,208,158,117,55,-158,-245,-116,-9,139,237,256,253,219,189,188,181,88,-438,-869,-239,2528,4125,2448,706,-291,-833,-909,-908,-935,-924,-903,-896,-890,-905,-920,-941,-984,-1049,-1089,-1119,-1133,-1107,-1039,-908,-753,-544,-316,-63,189,400,532,583,586,571,556,528,462,402,368,354,309,251,202,192,193,165,137,136,139,117,60,21,0,-142
2018-05-16,11:22:43.696,-188,-203,-86,22,218,326,341,331,305,291,281,313,-55,-592,-193,2147,4275,3135,1102,-174,-773,-866,-865,-867,-850,-835,-829,-851,-868,-888,-910,-911,-933,-959,-955,-906,-808,-687,-547,-380,-218,-48,102,261,411,505,550,580,592,578,532,497,486,468,454,450,436,413,364,269,210,178,-48,-119,7,126,256,361,392,380,354,343,323,332,61,-548,-434,1600,3989,3057,973,-270,-815,-889,-926,-969,-961,-950,-947,-962,-1007,-1050,-1077,-1110,-1134,-1143,-1130,-1083,-995,-883,-748,-612,-467,-319,-171,-19,132,246,294,301,291,269,229,204,194,167,139,127,121,112,81,24,-38,-43,-165,-411,-339,-208
2018-05-16,11:23:58.191,-332,-234,-87,-1,152,195,224,232,208,168,165,171,-120,-732,-677,1203,3956,3451,1293,-94,-806,-939,-932,-946,-963,-946,-908,-901,-908,-897,-926,-963,-1017,-1070,-1105,-1123,-1098,-1046,-940,-800,-620,-423,-165,107,334,494,574,606,625,609,600,535,478,454,418,374,344,325,320,310,291,267,256,267,264,232,174,143,133,-19,-217,-122,26,129,326,369,356,360,342,329,302,285,-83,-663,-523,1596,3881,3027,1150,22,-566,-691,-713,-737,-748,-738,-743,-746,-747,-761,-783,-829,-890,-941,-1010,-1055,-1031,-974,-881,-748,-594,-375,-132,93,297,454,528,558,548,517,482,433,409,381,326,284,249,212
2018-05-16,11:23:59.228,180,165,147,145,129,120,110,100,52,9,-3,-145,-343,-274,-125,-15,107,150,175,167,159,131,129,92,-235,-850,-876,1020,3690,3082,1129,-49,-686,-833,-861,-897,-915,-886,-870,-855,-864,-868,-893,-914,-979,-1024,-1076,-1102,-1090,-1010,-927,-809,-639,-414,-170,95,332,493,593,661,628,595,575,542,491,457,433,398,350,311,278,261,252,235,225,214,210,166,152,109,55,60,-59,-267,-227,-102,14,160,233,247,230,224,229,203,175,-116,-776,-797,1102,3897,3419,1528,251,-521,-837,-851,-856,-868,-861,-854,-848,-834,-856,-882,-910,-952,-999,-1039,-1067,-1079,-1014,-910,-803,-640,-420,-178,86,318
2018-05-16,11:24:00.265,496,618,647,660,639,606,565,498,469,430,384,332,288,292,270,249,233,218,182,176,174,169,126,82,47,-48,-281,-246,-91,5,162,223,222,235,223,205,189,175,-45,-679,-818,635,3601,3812,1702,163,-632,-889,-907,-938,-943,-921,-915,-908,-886,-879,-908,-932,-984,-1055,-1108,-1123,-1124,-1075,-988,-853,-691,-496,-257,10,243,420,556,597,598,597,564,517,495,446,397,344,287,266,238,198,167,169,169,138,128,127,125,114,50,6,-42,-248,-346,-205,-106,32,174,198,209,172,149,140,130,46,-495,-985,-486,2064,3998,2640,708,-352,-827,-870,-874,-899,-898,-887,-875,-848,-860,-863
2018-05-16,11:24:01.302,-864,-899,-953,-1018,-1048,-1045,-1034,-982,-890,-789,-612,-393,-119,125,351,503,575,612,606,569,539,495,460,420,369,319,286,256,217,205,179,171,186,167,144,141,137,116,64,11,-7,-188,-361,-217,-103,-7,164,198,193,200,174,164,169,157,-205,-843,-812,1196,3769,3100,1108,-81,-673,-761,-802,-838,-808,-782,-771,-777,-762,-763,-776,-800,-831,-901,-947,-974,-972,-926,-849,-723,-575,-385,-132,130,356,532,629,675,675,655,616,554,517,478,440,390,355,320,277,255,258,233,208,214,205,198,183,137,87,64,10,-199,-280,-165,-57,95,195,196,187,167,156,161,148,86,-439,-955
2018-05-16,11:24:02.340,-492,2155,4008,2521,729,-265,-780,-870,-893,-912,-912,-898,-889,-887,-874,-893,-898,-936,-987,-1035,-1078,-1079,-1048,-973,-890,-773,-584,-369,-116,141,352,517,627,663,648,633,598,574,522,488,462,426,394,367,358,343,325,309,287,277,280,270,239,203,151,127,72,-157,-202,-58,44,193,256,263,280,263,234,229,210,125,-411,-815,-76,2725,4058,2305,557,-407,-830,-838,-851,-870,-867,-858,-853,-846,-853,-855,-887,-917,-964,-1017,-1055,-1050,-1030,-970,-857,-734,-554,-331,-91,157,358,476,560,602,579,540,484,444,410,384,342,294,274,256,237,211,181,172,174,169,152,133,113,94,39,19
2018-05-16,11:24:03.377,-82,-311,-276,-129,-46,126,165,170,169,160,149,124,114,-88,-682,-890,341,3193,3606,1653,162,-611,-817,-820,-860,-880,-843,-836,-853,-812,-815,-824,-848,-888,-930,-966,-1002,-1007,-960,-901,-782,-638,-475,-266,-46,188,379,495,545,575,560,529,495,454,398,370,331,297,271,244,223,211,197,187,168,172,158,143,111,64,27,4,-175,-311,-186,-64,68,189,195,214,220,200,151,159,131,-270,-817,-631,1585,3724,2718,866,-172,-680,-743,-753,-775,-771,-757,-771,-747,-732,-747,-777,-797,-854,-911,-948,-937,-933,-891,-771,-645,-516,-338,-91,148,355,520,601,633,655,625,575,547,506,456,424
2018-05-16,11:24:04.414,384,357,333,301,272,255,237,222,224,206,198,182,132,83,78,-99,-259,-159,-68,51,200,216,210,188,172,151,136,115,-218,-896,-882,1148,3747,3052,1177,2,-672,-872,-899,-916,-919,-922,-898,-896,-899,-885,-915,-953,-988,-1026,-1075,-1082,-1066,-1005,-926,-808,-654,-458,-207,36,267,456,563,597,604,588,541,507,472,434,401,373,344,315,286,275,255,244,235,219,200,179,164,122,78,56,-135,-214,-89,13,151,276,305,301,307,280,264,263,218,-249,-716,-279,2423,4269,2665,793,-208,-707,-762,-761,-776,-768,-747,-735,-719,-712,-722,-748,-789,-828,-869,-882,-895,-890,-814,-703,-566,-404
2018-05-16,11:22:44.733,-140,38,114,123,86,56,57,71,79,-383,-856,-299,2139,3262,1867,363,-466,-748,-789,-798,-788,-757,-754,-751,-762,-801,-873,-904,-923,-938,-923,-872,-818,-693,-546,-398,-271,17,648,879,907,928,914,835,757,676,567,427,340,296,278,254,241,235,241,206,134,53,29,-145,-335,-270,-154,-54,101,172,182,158,156,175,199,213,-326,-734,15,2805,3808,2120,552,-302,-570,-561,-575,-569,-521,-491,-508,-503,-305,-260,-365,-497,-651,-680,-665,-680,-672,-605,-535,-434,-318,-159,2,181,341,436,466,484,466,407,372,345,306,306,294,243,199,179,165,92,12,-19,-122,-353,-315,-172,-74,104
2018-05-16,11:24:05.451,-208,26,263,459,583,648,670,665,627,574,530,467,424,407,366,322,284,268,241,213,202,197,175,160,137,77,28,0,-184,-329,-219,-111,10,145,181,178,162,145,119,99,84,-284,-851,-717,1372,3772,2882,898,-239,-805,-872,-870,-905,-923,-907,-891,-880,-876,-867,-893,-930,-972,-1025,-1078,-1088,-1072,-1013,-918,-790,-652,-459,-224,6,227,373,463,497,502,488,455,406,350,305,258,211,172,145,117,107,99,61,43,35,28,21,-35,-72,-87,-214,-419,-354,-232,-122,68,119,116,138,129,112,102,89,-206,-876,-924,964,3687,3286,1412,173,-558,-819,-806,-822,-841,-818,-788,-790,-776
2018-05-16,11:22:45.770,204,195,155,104,73,72,70,-447,-1046,-669,1719,3317,2035,265,-825,-1365,-1452,-1454,-1474,-1456,-1498,-1523,-1573,-1599,-1705,-1821,-1824,-1760,-1794,-1719,-1640,-1529,-1322,-1105,-921,-737,-567,-376,-213,-67,49,115,206,248,278,298,336,369,383,385,426,441,412,424,433,389,380,394,211,22,147,288,371,514,594,604,581,559,563,578,538,105,-506,-390,1929,2996,1815,859,257,58,69,38,57,94,130,126,131,166,244,304,380,424,453,459,476,471,453,451,455,466,496,613,727,806,882,878,845,799,769,723,655,610,569,545,502,462,448,405,359,297,247,223,48,-121,-38,77,187,355
2018-05-16,11:24:07.526,1402,15,-736,-923,-910,-924,-929,-934,-915,-877,-844,-867,-887,-906,-928,-981,-1031,-1045,-1037,-999,-931,-824,-680,-495,-258,2,239,390,476,537,559,551,505,492,461,419,364,313,278,252,229,196,190,174,151,126,111,129,96,19,-11,14,-212,-360,-187,-76,47,181,205,200,180,176,170,170,120,-318,-837,-587,1747,3653,2420,660,-272,-708,-739,-761,-779,-781,-777,-767,-748,-751,-743,-756,-794,-833,-875,-908,-911,-893,-822,-731,-626,-489,-285,-55,154,350,503,574,576,583,535,493,437,385,334,269,240,185,103,50,4,-10,-9,-31,-71,-115,-133,-158,-222,-242,-245,-444,-652,-550,-412,-311
2018-05-16,11:24:08.563,-152,-130,-110,-69,-49,-33,-19,-21,-302,-835,-990,743,3147,2678,1024,31,-526,-632,-622,-635,-658,-652,-633,-614,-595,-590,-609,-644,-672,-714,-766,-808,-799,-753,-671,-564,-423,-257,-46,192,401,570,681,746,752,739,721,698,664,609,554,568,536,509,480,449,449,415,409,407,398,377,351,341,310,245,222,179,-58,-139,3,117,272,374,365,350,336,323,328,282,188,-384,-836,-121,2508,4153,2661,798,-275,-732,-774,-836,-884,-841,-777,-771,-739,-744,-792,-845,-890,-949,-1011,-1083,-1112,-1137,-1047,-908,-799,-596,-335,-65,206,416,589,730,776,736,725,712,648,573,534,491,423,379,326,355
2018-05-16,11:24:09.600,326,268,244,248,218,206,235,209,152,116,108,30,-217,-219,-38,53,198,291,276,262,261,245,229,178,39,-676,-893,368,3503,4523,2446,492,-545,-941,-988,-1006,-1010,-1012,-979,-967,-968,-946,-959,-983,-1039,-1085,-1129,-1200,-1224,-1185,-1105,-990,-832,-647,-407,-99,194,397,532,630,678,651,629,595,568,515,446,382,356,309,271,222,198,222,227,181,174,189,195,165,111,65,23,-82,-267,-195,-74,29,189,233,242,227,197,198,199,164,-96,-780,-747,1033,4099,4037,1726,119,-752,-998,-977,-995,-1008,-1003,-985,-971,-946,-940,-956,-980,-1017,-1072,-1140,-1160,-1146,-1108,-1028,-913,-753,-527,-269,21
2018-05-16,11:22:46.808,404,400,355,299,253,227,134,-492,-882,67,2878,3659,1957,360,-506,-823,-845,-825,-834,-843,-837,-845,-877,-922,-931,-954,-978,-1019,-1052,-1047,-998,-917,-805,-666,-528,-386,-241,-88,57,200,306,351,349,345,338,351,346,326,307,305,305,283,268,255,220,152,74,15,-205,-352,-260,-161,-43,141,220,210,211,221,238,301,287,-304,-718,213,2683,3090,1656,512,-197,-462,-504,-551,-581,-593,-636,-659,-731,-808,-869,-907,-933,-962,-947,-906,-839,-722,-587,-458,-349,-270,-189,-91,0,76,127,145,144,126,125,130,121,112,118,140,145,134,144,163,152,114,89,80,-47,-243,-164,-52,44,287
2018-05-16,11:24:10.637,284,472,574,639,664,650,623,560,502,468,436,374,321,304,268,238,220,215,199,186,178,177,168,150,133,63,38,-55,-291,-259,-112,-7,159,205,219,201,185,179,161,135,-93,-752,-918,517,3472,3989,1952,276,-650,-964,-952,-958,-978,-993,-960,-939,-940,-927,-933,-946,-1015,-1063,-1100,-1134,-1140,-1094,-1026,-902,-743,-551,-319,-50,205,429,558,617,631,625,617,577,521,463,430,388,337,331,284,246,245,240,209,185,195,183,185,171,145,98,33,25,-155,-333,-193,-62,69,183,206,223,206,191,184,153,137,-201,-887,-807,1174,3848,3460,1437,77,-671,-879,-888,-900,-910,-883,-862
2018-05-16,11:22:47.845,343,249,126,36,-6,-88,-279,-1024,-1887,-1779,641,2440,1512,195,-541,-919,-934,-876,-859,-858,-830,-809,-791,-823,-896,-941,-968,-988,-994,-980,-925,-823,-696,-572,-455,-349,-213,-37,142,297,415,458,457,429,374,359,327,274,237,220,221,165,116,55,-54,-156,-232,-245,-352,-529,-466,-327,-201,-33,67,93,84,95,121,157,189,-222,-785,-544,1886,3723,2535,1050,-34,-849,-1222,-1315,-1361,-1297,-1225,-1238,-1355,-1553,-1867,-1965,-1894,-1789,-1691,-1527,-1210,-796,-565,-344,-142,27,99,168,254,344,399,416,442,493,583,801,901,921,912,901,1216,1786,1694,1406,1138,813,522,307,95,-199,-221,-166,-157,-23
2018-05-16,11:24:12.712,208,208,173,47,-571,-974,-64,2755,4139,2476,683,-329,-829,-893,-916,-949,-923,-909,-903,-881,-880,-898,-906,-943,-995,-1037,-1081,-1104,-1076,-998,-913,-762,-593,-374,-95,164,389,547,644,678,683,650,606,570,514,461,438,398,359,313,287,255,260,251,231,216,214,198,186,167,126,68,44,-70,-275,-233,-109,-22,139,195,219,204,204,197,175,143,55,-572,-938,5,2971,4171,2384,583,-442,-905,-926,-935,-955,-945,-943,-945,-913,-898,-901,-929,-961,-1008,-1067,-1116,-1108,-1061,-1003,-911,-748,-529,-310,-60,173,364,530,622,663,650,616,593,539,471,430,375,343,293,281,255,222,218,208,201
2018-05-16,11:24:13.749,176,172,172,149,137,97,26,14,-97,-313,-237,-110,-19,146,196,195,196,191,164,143,146,-48,-742,-943,353,3487,4123,1990,290,-617,-921,-927,-928,-939,-932,-908,-899,-877,-874,-872,-895,-914,-973,-1018,-1055,-1079,-1025,-939,-843,-692,-538,-305,-43,193,393,517,590,588,609,611,558,501,460,403,358,324,301,289,249,225,217,215,210,200,186,171,163,150,114,46,23,-88,-317,-239,-95,7,179,205,208,201,189,183,163,140,-16,-630,-935,169,3109,3966,2026,379,-508,-839,-852,-847,-849,-829,-825,-829,-813,-807,-826,-845,-876,-936,-988,-1018,-1027,-989,-918,-824,-698,-549,-337,-102,142,373
2018-05-16,11:24:14.786,506,550,584,600,563,506,454,419,364,325,304,283,242,211,193,160,143,136,124,117,110,108,89,50,-15,-16,-151,-350,-250,-144,-7,151,169,170,180,171,153,132,108,-127,-791,-914,641,3562,3757,1684,155,-676,-873,-866,-899,-880,-880,-844,-819,-804,-807,-796,-834,-876,-900,-943,-973,-959,-909,-832,-721,-579,-405,-171,116,377,575,708,787,798,790,776,746,699,640,598,548,498,449,436,435,406,384,374,371,337,334,342,332,288,254,216,132,-101,-124,14,110,259,359,370,368,367,358,339,326,269,-259,-778,-126,2553,4285,2887,1166,59,-607,-792,-807,-838,-835,-832,-832,-829
2018-05-16,11:24:15.823,-822,-824,-864,-895,-939,-996,-1047,-1079,-1065,-1010,-902,-779,-613,-378,-130,114,349,486,569,601,591,593,555,505,476,407,371,334,294,269,230,226,196,155,146,132,126,114,91,74,10,-31,-90,-309,-361,-230,-131,47,134,145,133,111,112,87,65,7,-527,-979,-379,2333,4231,2706,696,-453,-982,-1063,-1071,-1104,-1072,-1044,-1036,-1035,-1015,-1038,-1039,-1046,-1100,-1139,-1188,-1201,-1165,-1091,-986,-853,-661,-443,-206,43,247,399,498,527,518,491,473,447,398,341,284,246,206,195,151,147,165,111,125,122,100,101,109,60,0,-27,-94,-316,-366,-224,-106,59,154,142,146,160,138,111,96,42
2018-05-16,11:22:48.882,31,18,7,-2,-61,-111,-233,-704,-1417,-1482,756,3003,2195,519,-578,-1214,-1339,-1286,-1220,-1126,-1045,-997,-948,-908,-889,-880,-850,-837,-764,-626,-401,-271,-183,-102,-8,83,46,-41,42,181,306,401,472,510,532,554,539,538,569,596,676,875,910,915,902,932,927,915,793,607,662,979,1486,1583,1456,1361,1243,1045,847,680,548,136,-551,-639,1400,3902,3127,1313,211,-451,-612,-662,-689,-681,-655,-630,-663,-716,-772,-785,-786,-803,-852,-883,-893,-881,-813,-713,-592,-453,-285,-110,101,312,467,564,584,569,525,486,448,406,367,328,307,268,239,225,193,114,44,26,-159,-328,-225,-105,-32,111
2018-05-16,11:22:49.919,166,180,132,116,91,58,-51,-670,-1091,-308,2558,3936,2372,644,-412,-983,-1081,-1063,-1063,-1042,-1022,-1031,-1053,-1069,-1097,-1125,-1146,-1182,-1194,-1201,-1166,-1084,-947,-767,-581,-421,-219,173,403,471,527,492,415,361,307,262,219,185,172,172,140,119,121,101,54,-20,-47,-135,-343,-292,-161,-74,138,266,263,241,216,199,193,156,-251,-867,-717,1438,4095,3155,1017,-205,-823,-913,-908,-921,-937,-890,-869,-886,-919,-936,-985,-1019,-1045,-1100,-1129,-1123,-1079,-1021,-927,-781,-623,-422,-206,23,241,336,422,468,453,462,456,416,395,376,358,353,346,328,318,300,247,163,121,-21,-218,-139,5,87,234,311
2018-05-16,11:22:50.957,319,277,250,343,350,219,-388,-896,-410,2349,4393,2791,598,-638,-1159,-1260,-1362,-1459,-1523,-1579,-1576,-1508,-1552,-1611,-1640,-1625,-1596,-1523,-1325,-1220,-1134,-1035,-921,-815,-664,-505,-310,-145,40,194,278,285,266,240,205,168,135,96,60,64,90,80,93,115,81,69,61,-144,-161,-22,74,231,400,441,435,435,408,247,-110,-497,-1134,-1125,538,3906,3784,1280,-311,-912,-975,-945,-941,-893,-816,-803,-797,-768,-767,-751,-769,-799,-762,-729,-672,-588,-471,-338,-189,-48,200,454,673,859,980,1045,1069,1066,1049,1027,1009,967,920,871,858,859,867,840,797,761,668,588,578,368,307,441,557,661,817,889
2018-05-16,11:22:51.994,890,878,884,868,865,700,30,-235,1057,4256,4587,2333,644,-156,-350,-374,-433,-451,-464,-450,-443,-467,-489,-548,-595,-616,-669,-703,-684,-643,-546,-409,-281,-149,-12,137,306,472,618,685,714,700,659,609,569,512,474,473,403,441,437,401,366,330,275,203,140,27,-230,-255,-104,-3,151,236,215,162,95,115,88,45,-187,-877,-1108,626,3372,2983,1102,-216,-957,-1124,-1166,-1171,-1263,-1306,-1216,-1299,-1383,-1372,-1406,-1438,-1491,-1488,-1423,-1422,-1401,-1234,-1082,-906,-735,-576,-341,-171,57,309,321,349,412,371,319,314,308,264,227,199,193,179,177,107,64,57,-61,-137,-87,-339,-390,-226,-118,7
2018-05-16,11:22:53.031,113,177,179,167,158,174,145,-109,-859,-899,1241,4072,3566,1557,213,-578,-901,-953,-988,-1017,-1042,-1048,-992,-973,-1035,-1075,-1148,-1189,-1204,-1267,-1298,-1240,-1158,-1084,-926,-742,-549,-369,-174,74,223,261,353,379,347,313,303,277,244,235,215,188,238,265,206,172,175,105,42,33,-156,-309,-212,-100,-1,160,257,251,215,183,177,181,23,-653,-918,247,3634,4714,2557,634,-449,-920,-969,-949,-918,-909,-889,-837,-830,-822,-817,-828,-829,-866,-874,-844,-802,-719,-546,-377,-216,-34,172,356,565,738,855,912,927,907,875,853,820,779,730,727,733,706,672,669,654,631,579,497,444,384,161,138
2018-05-16,11:22:54.068,260,347,486,578,571,531,495,440,399,388,84,-641,-733,1098,4089,3848,1655,128,-682,-904,-924,-958,-995,-1005,-994,-995,-1003,-1054,-1128,-1171,-1229,-1279,-1323,-1327,-1279,-1191,-1062,-934,-786,-617,-389,-187,6,156,243,285,270,235,193,137,93,66,19,-3,-12,-14,-44,-27,-46,-66,-100,-164,-215,-231,-405,-542,-443,-315,-202,-54,12,14,-5,-43,-79,-68,-189,-916,-1330,-311,2861,4312,2458,524,-591,-1137,-1230,-1223,-1231,-1223,-1197,-1193,-1173,-1169,-1228,-1267,-1305,-1343,-1383,-1401,-1387,-1328,-1194,-1036,-865,-667,-460,-223,13,214,352,429,448,418,417,387,341,304,255,235,224,207,197,198,209,212,183,99
2018-05-16,11:22:55.105,59,38,-154,-283,-158,-35,74,221,291,317,303,264,230,217,74,-597,-851,225,3353,5035,2870,428,-774,-1077,-1079,-1086,-1079,-1085,-1042,-1007,-996,-993,-1013,-1044,-1085,-1137,-1168,-1172,-1150,-1070,-939,-788,-578,-327,-90,138,381,564,685,737,732,699,650,606,564,535,514,484,494,476,471,457,457,509,494,463,380,279,270,199,-35,-26,116,181,346,451,454,441,428,367,332,300,-68,-805,-670,1443,4399,3920,1525,-100,-795,-907,-884,-899,-918,-864,-843,-845,-874,-899,-938,-987,-1023,-1043,-1067,-1051,-948,-842,-716,-560,-389,-216,-30,189,423,590,668,700,684,638,584,555,507,457,436,419,381,379
2018-05-16,11:22:56.142,343,343,326,301,286,266,240,158,105,0,-223,-198,-59,38,203,309,351,316,289,268,231,210,-96,-880,-870,1104,4001,3497,1363,-20,-689,-832,-853,-871,-865,-862,-843,-849,-867,-900,-928,-948,-987,-1022,-1023,-1011,-925,-804,-704,-576,-415,-286,-136,52,235,378,472,503,512,487,488,442,378,351,328,303,288,273,271,277,273,260,241,225,185,113,82,9,-216,-240,-93,2,143,273,319,306,295,299,278,262,112,-577,-852,563,3370,3683,1868,406,-434,-701,-699,-693,-732,-734,-731,-725,-747,-774,-800,-835,-865,-894,-915,-913,-869,-781,-673,-549,-404,-259,-102,68,276,449,529,571,594,570
2018-05-16,11:22:57.180,547,514,486,442,413,397,379,379,365,334,324,309,295,282,248,176,126,66,-151,-228,-117,-15,129,256,262,252,239,205,170,165,26,-679,-1087,118,3159,3976,2187,491,-484,-881,-913,-915,-923,-904,-886,-901,-909,-933,-975,-1029,-1042,-1074,-1130,-1121,-1088,-1015,-887,-740,-600,-425,-238,-28,192,365,497,578,580,547,504,464,416,384,353,337,330,313,292,287,286,271,284,289,263,187,131,93,-79,-247,-149,-38,81,246,308,310,284,253,239,234,155,-389,-934,-408,2355,4489,2999,900,-327,-859,-899,-918,-932,-905,-904,-897,-911,-918,-937,-956,-978,-1016,-1053,-1067,-1052,-972,-863,-744,-610,-427
2018-05-16,11:22:58.217,-213,5,234,438,595,662,673,653,628,597,567,529,513,507,481,466,435,409,386,380,368,351,312,279,203,130,99,-64,-268,-185,-80,27,215,271,285,275,237,188,169,125,-347,-927,-486,2098,4564,3305,1017,-365,-957,-1010,-1011,-1049,-1044,-1041,-1032,-1010,-1010,-1047,-1091,-1124,-1164,-1206,-1214,-1202,-1119,-998,-843,-683,-504,-307,-122,72,255,391,470,485,473,439,416,386,341,304,290,272,256,250,254,237,218,229,224,222,188,126,106,28,-182,-168,-24,95,258,393,447,437,414,404,386,391,140,-579,-641,1073,4007,4000,1828,239,-473,-592,-587,-601,-611,-582,-570,-572,-585,-597,-626,-658
2018-05-16,11:22:59.254,-693,-712,-719,-723,-684,-569,-450,-322,-187,-18,166,341,505,638,730,752,730,708,652,601,578,538,493,467,451,417,384,364,350,325,317,291,264,189,121,74,-127,-317,-250,-144,-32,123,178,175,154,142,113,102,97,-263,-974,-975,1313,3514,2578,792,-306,-802,-854,-860,-893,-905,-895,-898,-891,-913,-962,-988,-1029,-1087,-1107,-1095,-1059,-996,-880,-763,-636,-523,-383,-202,-17,115,190,218,226,218,180,138,100,59,12,-3,-10,-26,-44,-61,-55,-61,-65,-63,-95,-161,-232,-258,-358,-604,-556,-426,-344,-181,-64,-26,-29,-48,-64,-58,-12,-208,-880,-974,702,3381,3306,1303,-155,-841,-938,-901
2018-05-16,11:23:00.291,-905,-908,-897,-863,-881,-924,-926,-941,-968,-994,-1009,-1037,-1041,-991,-907,-778,-649,-501,-320,-122,95,306,464,551,582,588,563,536,504,475,425,400,367,337,329,318,276,229,200,177,155,98,33,-31,-87,-271,-431,-345,-232,-108,56,117,121,88,59,42,50,44,-426,-1015,-613,1848,3703,2566,888,-208,-809,-954,-958,-959,-965,-971,-967,-984,-989,-1018,-1056,-1079,-1109,-1150,-1202,-1200,-1125,-1000,-851,-699,-522,-343,-149,38,183,302,374,388,379,363,339,314,279,268,244,218,210,212,219,230,235,226,228,208,142,99,51,-149,-217,-95,26,162,319,370,363,360,354,357,365,338,-209,-696
2018-05-16,11:23:01.329,-143,2564,4034,2358,520,-448,-728,-743,-767,-796,-811,-807,-828,-848,-877,-916,-948,-975,-1004,-1031,-1051,-1015,-933,-831,-678,-512,-352,-204,-38,191,298,378,391,359,326,302,245,185,158,151,137,116,125,140,152,155,167,185,172,148,122,45,11,-115,-326,-249,-89,19,187,289,296,277,291,347,321,224,-180,-933,-1154,919,3600,2874,1030,-88,-600,-636,-678,-712,-745,-745,-746,-751,-780,-808,-843,-881,-921,-955,-949,-892,-827,-724,-589,-456,-306,-156,0,174,352,471,506,524,518,485,453,410,361,356,381,391,371,367,351,354,350,348,353,307,276,202,180,164,-8,-135,-15,94,220,384
2018-05-16,11:23:02.366,452,462,452,417,397,401,339,-211,-779,-313,2250,3928,2686,1180,201,-361,-513,-541,-555,-565,-546,-565,-589,-608,-655,-689,-733,-765,-796,-835,-818,-721,-590,-431,-251,-86,71,253,417,555,674,727,730,711,669,654,638,603,563,530,499,499,507,492,482,478,466,415,384,319,276,230,21,-97,21,148,288,461,491,471,461,417,388,373,251,-396,-791,-15,3244,4760,2547,438,-498,-698,-719,-767,-768,-746,-746,-748,-742,-762,-796,-822,-865,-926,-951,-951,-919,-841,-732,-573,-431,-257,-74,122,305,442,554,569,545,526,478,428,401,351,315,299,256,244,216,192,186,178,170,153,128,96
2018-05-16,11:23:03.403,28,-23,-65,-309,-344,-217,-119,46,163,170,159,140,96,86,71,-33,-664,-1248,-471,2551,3423,1633,182,-530,-740,-738,-786,-819,-819,-818,-808,-814,-824,-847,-888,-931,-960,-982,-980,-938,-829,-686,-564,-449,-314,-171,-14,141,251,350,392,378,343,320,288,248,220,191,173,155,143,123,126,99,93,102,105,87,52,-20,-37,-110,-365,-357,-218,-120,54,147,161,151,140,137,136,155,68,-563,-1301,-548,2065,2586,1342,361,-228,-467,-483,-529,-559,-570,-570,-576,-594,-626,-664,-703,-739,-772,-785,-778,-731,-649,-525,-390,-285,-172,-69,49,176,290,367,400,384,361,310,277,271,248,214,197
2018-05-16,11:23:04.440,172,143,135,129,127,112,93,75,61,17,-49,-58,-121,-335,-382,-245,-134,2,93,150,137,103,77,89,118,-38,-692,-1209,-295,2640,3256,1713,405,-349,-678,-718,-765,-778,-791,-801,-790,-791,-805,-810,-822,-831,-854,-904,-881,-836,-737,-624,-492,-339,-186,-6,211,425,596,719,762,782,771,747,714,693,688,677,660,643,647,636,626,631,608,590,605,587,527,482,446,253,112,207,325,445,563,589,587,559,539,520,503,481,45,-586,-411,1921,3928,2772,1205,226,-417,-580,-616,-656,-674,-695,-722,-739,-761,-802,-855,-895,-937,-975,-997,-987,-920,-805,-668,-512,-358,-218,-65,95,221,320
2018-05-16,11:23:05.477,375,381,343,305,258,226,180,141,125,95,66,35,13,13,11,-7,-18,-37,-92,-149,-159,-296,-509,-429,-284,-195,-31,20,17,-1,-22,-20,-30,-62,-387,-1037,-1352,352,3087,2656,875,-176,-687,-764,-777,-820,-830,-806,-801,-818,-832,-836,-851,-890,-918,-927,-930,-892,-822,-725,-626,-510,-392,-266,-121,23,159,268,322,323,317,293,245,201,184,172,141,106,85,82,75,73,67,60,46,54,38,-17,-40,-81,-323,-394,-258,-154,-13,92,87,67,53,25,11,14,-6,-555,-1398,-1341,1461,2889,1687,435,-279,-571,-625,-646,-664,-667,-672,-662,-671,-697,-722,-753,-782,-815,-838,-830,-782,-706
2018-05-16,11:23:06.514,-590,-464,-344,-205,-48,122,292,433,515,560,573,540,494,449,403,371,340,304,299,264,237,231,247,237,207,190,173,100,69,44,-174,-234,-86,9,132,237,259,267,241,233,215,196,116,-527,-1166,-609,2356,3678,2153,584,-240,-632,-710,-739,-764,-764,-758,-767,-774,-793,-830,-872,-912,-950,-990,-1016,-1021,-965,-849,-712,-586,-415,-217,9,204,373,514,574,594,584,548,515,487,445,416,411,405,399,406,404,381,369,364,350,315,257,233,170,-38,-15,140,247,404,474,491,486,467,439,435,441,187,-536,-825,723,3579,3618,2064,775,-44,-494,-575,-568,-583,-604,-568,-577,-588,-612
2018-05-16,11:23:07.552,-664,-698,-751,-789,-832,-831,-801,-698,-544,-406,-258,-67,93,267,418,557,606,663,629,602,550,499,462,420,367,320,297,286,260,284,259,232,201,180,102,31,3,-175,-309,-182,-46,70,189,218,184,134,89,92,118,-6,-634,-1231,-907,2108,4003,2447,601,-446,-973,-1067,-1125,-1146,-1137,-1111,-1118,-1127,-1125,-1175,-1240,-1290,-1317,-1367,-1396,-1389,-1289,-1146,-1012,-840,-669,-434,-204,15,198,302,344,347,315,262,247,217,184,169,182,193,212,229,254,291,324,332,365,367,349,311,290,82,-35,71,151,224,299,294,263,193,142,109,98,57,-421,-1102,-833,1550,3171,2217,919,114,-470,-635
2018-05-16,11:24:34.658,-430,-476,-460,-364,-307,-126,64,202,306,327,318,280,222,172,130,123,83,15,-114,-215,-278,-303,-327,-339,-326,-294,-227,-149,-131,-130,-140,-297,-441,-356,-266,-195,-58,18,66,128,269,385,546,746,855,583,327,792,3041,3515,2348,1301,747,261,97,54,-6,-33,-54,-81,-110,-169,-256,-367,-469,-651,-785,-902,-1046,-1108,-1095,-1116,-1125,-1105,-1015,-878,-647,-458,-343,-269,-258,-317,-362,-450,-577,-682,-858,-949,-874,-772,-627,-531,-355,42,148,29,-287,-654,-650,-493,-366,-393,-418,-231,-67,74,281,431,559,709,867,1036,1238,1366,1196,695,528,1650,3891,3832,2404,1311,645,151,-45,-102,-169,-240
2018-05-16,11:24:36.208,-295,-390,-524,-633,-715,-826,-915,-978,-1053,-1115,-1116,-1112,-1084,-984,-887,-782,-624,-424,-268,-164,-97,-96,-159,-303,-512,-758,-940,-1017,-1012,-954,-888,-819,-745,-654,-563,-504,-449,-389,-354,-341,-319,-273,-281,-453,-403,-164,67,412,735,967,1148,1257,1279,1238,1182,1107,734,322,162,1923,3495,2789,1676,1020,496,190,99,31,-56,-120,-205,-285,-348,-436,-546,-603,-683,-749,-815,-893,-950,-964,-970,-945,-906,-823,-811,-808,-792,-859,-1070,-1179,-1185,-1121,-914,-777,-741,-641,-573,-510,-431,-311,-186,-51,53,115,169,218,235,184,145,33,-196,-192,8,216,462,713,912,1051,1179,1245,1245,1219,1120,605,139,491
2018-05-16,11:24:37.245,2896,4345,3128,1934,993,305,-30,-89,-142,-198,-226,-290,-331,-359,-409,-478,-525,-596,-675,-750,-828,-896,-917,-939,-924,-899,-862,-722,-587,-498,-515,-572,-643,-647,-635,-613,-577,-566,-520,-435,-327,-245,-175,-149,-99,-51,-26,22,64,99,154,251,304,216,354,646,891,1123,1254,1264,1174,1096,1051,1002,936,771,218,-9,566,3057,4603,3025,1123,34,-625,-798,-852,-924,-999,-1037,-1103,-1149,-1169,-1232,-1320,-1379,-1512,-1607,-1696,-1838,-1843,-1775,-1800,-1877,-1884,-1740,-1532,-1306,-1089,-960,-824,-749,-660,-528,-442,-447,-381,-301,-238,-205,-179,-170,-170,-149,-108,-67,-52,-42,-12,79,101,77,320,730,1064,1439,1692,1786
2018-05-16,11:24:38.283,1814,1819,1763,1663,1573,1437,910,504,686,2819,3833,2750,1523,820,260,-17,-142,-246,-341,-412,-473,-512,-537,-555,-553,-568,-611,-653,-721,-797,-818,-859,-884,-890,-857,-803,-744,-645,-542,-436,-293,-188,-138,-108,-79,-30,21,62,100,97,85,57,31,15,-3,-7,-5,24,112,235,238,411,754,1046,1319,1444,1435,1406,1361,1277,1196,1136,999,518,-80,34,2144,3919,2888,1577,527,-170,-585,-723,-847,-953,-1008,-1083,-1170,-1239,-1252,-1318,-1475,-1668,-1927,-2263,-2566,-2862,-3205,-3463,-3602,-3613,-3511,-3198,-2749,-2215,-1731,-1211,-783,-424,-80,269,572,867,1026,1169,1290,1393,1446,1436,1390,1355,1297,1232,1178,1232,1295,1237
2018-05-16,11:23:08.589,-644,-683,-720,-732,-726,-753,-800,-835,-882,-942,-981,-1033,-1079,-1074,-1020,-919,-810,-643,-456,-258,-55,140,295,387,448,474,464,446,417,382,339,306,303,254,212,197,185,178,154,150,152,142,95,69,62,-108,-296,-175,-18,53,186,222,244,221,213,197,193,168,-129,-765,-920,885,3156,2777,1355,310,-380,-688,-720,-740,-736,-758,-756,-771,-811,-813,-831,-909,-963,-1006,-1034,-1055,-1025,-963,-847,-700,-535,-311,-69,163,357,474,537,573,572,526,505,450,399,381,313,253,245,239,172,154,177,168,153,119,114,105,10,10,-73,-331,-303,-110,-13,120,184,221,222,185,155,145,117,-54
2018-05-16,11:24:39.320,1318,1539,1695,1822,1930,1902,1829,1729,1631,1508,1389,1228,699,170,434,2299,4766,4022,1920,505,-294,-677,-789,-871,-967,-1056,-1117,-1179,-1225,-1280,-1350,-1419,-1475,-1526,-1636,-1744,-1824,-1867,-1821,-1766,-1686,-1572,-1388,-1084,-767,-505,-300,-122,5,129,208,274,320,319,284,237,202,169,95,9,-49,-95,-127,-105,-5,55,47,214,510,700,823,930,926,930,884,828,803,774,656,71,-380,-69,2296,4256,3005,1173,-4,-725,-1034,-1105,-1142,-1171,-1225,-1283,-1338,-1392,-1472,-1560,-1617,-1700,-1828,-1972,-2076,-2171,-2261,-2343,-2354,-2359,-2315,-2106,-1803,-1455,-1120,-827,-560,-312,-95,58,212,329,415,455,440,447,442,445,400,376
2018-05-16,11:24:40.357,377,387,392,475,486,449,608,844,1010,1157,1198,1202,1172,1116,1075,1029,965,777,171,-83,819,3522,4114,2448,979,180,-368,-453,-496,-588,-683,-743,-817,-866,-923,-979,-1051,-1179,-1290,-1362,-1420,-1442,-1493,-1539,-1590,-1543,-1410,-1164,-878,-545,-220,101,401,698,937,1042,1014,961,915,898,861,861,833,788,758,730,712,715,723,771,804,624,605,805,926,1038,1154,1173,1147,1115,1055,1015,998,1000,684,154,-76,1593,3112,2468,1391,671,85,-300,-449,-629,-834,-912,-981,-1044,-1130,-1253,-1310,-1410,-1502,-1562,-1595,-1728,-1840,-1907,-1961,-2020,-1965,-1794,-1502,-1143,-774,-410,-117,97,343,524,651,761,911,1061,1169,1235
2018-05-16,11:23:09.626,-734,-935,57,2832,3807,2091,469,-419,-862,-914,-941,-974,-953,-961,-957,-971,-973,-978,-1009,-1067,-1098,-1139,-1172,-1176,-1133,-1036,-886,-701,-489,-240,55,324,479,605,694,735,725,680,635,624,602,521,487,495,442,442,418,394,402,400,408,426,404,387,282,205,75,-176,-99,43,104,244,337,315,274,174,155,173,117,-314,-985,-997,921,3880,3384,1502,196,-695,-1107,-1131,-1147,-1101,-1055,-1018,-978,-964,-930,-884,-906,-943,-937,-936,-911,-865,-740,-560,-341,-79,212,484,749,1000,1179,1263,1279,1270,1247,1187,1089,1011,952,895,855,773,689,643,573,557,533,464,440,402,349,248,185,107,67,-47
2018-05-16,11:24:41.394,1242,1238,1205,1208,1191,1216,1243,1297,1387,1330,1131,1158,1244,1280,1347,1322,1250,1138,1069,1027,998,985,834,197,-202,541,2779,2941,1645,503,-146,-700,-879,-919,-979,-1023,-1056,-1100,-1217,-1368,-1541,-1744,-1973,-2199,-2414,-2638,-2838,-2975,-3075,-3039,-2892,-2653,-2314,-1907,-1414,-887,-444,-169,25,174,258,312,381,440,498,509,503,542,585,647,749,899,1051,1104,1117,1123,948,766,852,922,965,1050,1067,1073,1050,1037,1021,959,882,630,20,-466,548,2373,2088,896,85,-436,-1062,-1182,-1133,-1222,-1249,-1227,-1233,-1237,-1279,-1312,-1379,-1526,-1693,-1880,-2038,-2083,-2007,-1848,-1595,-1255,-888,-503,-116,237,506,703,830,884,916,933
2018-05-16,11:24:42.432,906,878,852,836,827,851,914,1055,1191,1284,1343,1343,1305,1266,1096,827,810,859,859,937,920,843,789,742,667,605,556,296,-398,-715,515,2715,2527,1128,87,-541,-1002,-1109,-1116,-1181,-1279,-1371,-1495,-1715,-1923,-2061,-2043,-1980,-1899,-1829,-1758,-1565,-1301,-997,-701,-400,-79,237,559,874,1093,1222,1264,1249,1204,1140,1057,978,897,854,863,858,849,827,766,715,700,670,579,539,442,201,153,185,103,28,5,-113,-321,-523,-663,-771,-875,-995,-1471,-1735,-1114,1282,2131,957,-186,-791,-1323,-1455,-1465,-1563,-1658,-1790,-1939,-1988,-1966,-1882,-1740,-1549,-1328,-1107,-902,-704,-513,-312,-120,52,250,474,708,933,1104,1215
2018-05-16,11:24:43.469,1258,1266,1239,1250,1307,1390,1513,1637,1701,1725,1718,1686,1601,1517,1429,1338,1247,1181,1065,792,700,776,815,862,780,649,542,402,244,98,-24,-276,-930,-1292,-327,2080,2503,1124,-126,-1053,-1770,-2072,-2239,-2456,-2638,-2782,-2874,-2866,-2820,-2758,-2641,-2454,-2227,-1997,-1769,-1545,-1317,-1055,-768,-489,-251,3,245,477,749,1005,1250,1509,1691,1846,1981,1933,1911,1869,1810,1729,1636,1531,1435,1336,1230,1108,995,895,831,573,404,418,412,439,475,395,317,161,17,-102,-165,-331,-904,-1367,-992,1268,2799,1483,32,-1123,-1956,-2302,-2403,-2451,-2496,-2492,-2373,-2270,-2235,-2252,-2242,-2177,-2104,-2023,-1953,-1901,-1742,-1528,-1274,-1010,-721,-395
2018-05-16,11:24:44.506,18,460,911,1338,1682,1883,2006,2061,2061,1987,1871,1752,1613,1457,1312,1206,1083,1009,956,900,789,717,570,285,238,332,362,385,396,373,304,188,123,83,-15,-414,-1085,-986,770,3571,3379,1242,-484,-1540,-2105,-2240,-2322,-2334,-2292,-2203,-2122,-2021,-1900,-1749,-1631,-1557,-1525,-1489,-1430,-1336,-1196,-1033,-865,-683,-419,-76,366,813,1196,1437,1541,1548,1505,1451,1393,1278,1181,1106,1027,945,862,797,696,622,541,377,207,76,-160,-356,-395,-363,-364,-398,-596,-692,-681,-742,-767,-897,-1222,-2015,-2193,-1130,1797,2538,541,-1391,-2526,-3049,-3047,-2912,-2719,-2484,-2220,-1838,-1389,-1024,-731,-440,-424,-589,-625,-655,-682,-684,-666,-613
2018-05-16,11:23:10.663,-342,-361,-251,-134,-5,78,78,19,-27,-35,-42,-95,-247,-802,-1126,-310,2306,3694,2152,374,-566,-1078,-1192,-1177,-1190,-1206,-1185,-1166,-1193,-1188,-1162,-1293,-1319,-1347,-1389,-1446,-1453,-1428,-1334,-1198,-1020,-738,-421,-137,156,383,514,616,681,677,658,628,613,621,603,566,524,506,511,500,514,497,493,514,485,465,450,434,395,327,273,216,-13,-80,111,199,313,449,433,414,387,418,426,338,148,-480,-697,300,3086,4511,2857,952,-298,-977,-1081,-1088,-1095,-1101,-1084,-1058,-1075,-1074,-1094,-1084,-1202,-1245,-1331,-1393,-1428,-1432,-1301,-1128,-929,-678,-406,-103,241,479,625,685,727,740,704,665,644,587,535,548
2018-05-16,11:24:45.543,-501,-336,-88,261,689,1139,1524,1809,2055,2236,2339,2415,2431,2408,2343,2253,2144,2028,1956,1888,1814,1704,1568,1426,1316,1001,775,819,738,659,691,642,525,389,274,185,77,-154,-859,-1317,-632,2034,3747,2204,122,-1084,-1795,-1963,-1875,-1831,-1756,-1684,-1589,-1459,-1323,-1212,-1143,-1122,-1124,-1131,-1128,-1109,-1047,-985,-887,-710,-515,-276,67,503,907,1201,1371,1478,1540,1428,1282,1248,1215,1165,1119,1033,910,855,790,706,621,506,377,324,213,-132,-385,-314,-287,-290,-257,-290,-335,-407,-442,-461,-551,-831,-1488,-1710,-597,2139,2538,735,-848,-1707,-2021,-1886,-1652,-1448,-1290,-1134,-1030,-953,-964,-1020,-1030,-952,-857,-815,-765,-732
2018-05-16,11:24:46.580,-695,-612,-527,-397,-209,62,392,777,1142,1398,1589,1711,1743,1720,1651,1555,1460,1348,1260,1190,1130,1089,1034,972,915,787,642,519,298,-86,-212,-225,-244,-147,-69,-46,-13,8,18,32,19,-258,-903,-1289,-266,2048,1956,362,-830,-1543,-1920,-1875,-1717,-1510,-1299,-1116,-978,-872,-803,-765,-722,-723,-746,-729,-728,-727,-677,-600,-477,-300,-59,213,487,710,872,998,1054,1088,1066,1015,956,880,758,732,562,427,374,262,168,48,-103,-172,-258,-288,-405,-635,-586,-416,-334,-232,-63,-90,-226,-194,-274,-445,-463,-729,-1365,-1476,83,2627,2729,1377,330,-269,-579,-577,-461,-296,-109,50,147,184,175,123,53,-21
2018-05-16,11:24:47.618,-115,-193,-240,-234,-174,-45,120,297,474,668,867,1076,1227,1332,1353,1300,1250,1198,1125,1068,1008,940,867,716,535,455,333,144,31,-58,-147,-199,-404,-504,-382,-283,-254,-211,-275,-341,-495,-704,-924,-1093,-1383,-2076,-2524,-1918,695,2104,868,-343,-1087,-1551,-1635,-1485,-1348,-1224,-1097,-979,-907,-848,-794,-710,-591,-476,-310,-216,-168,-166,-163,-106,-48,58,213,419,608,781,890,951,934,861,709,550,428,330,185,-29,-182,-257,-319,-382,-513,-568,-636,-731,-793,-811,-999,-1231,-1162,-1041,-1057,-946,-930,-1000,-1116,-1156,-1106,-1016,-941,-1153,-1434,-1136,763,3359,2981,1256,227,-315,-515,-469,-452,-438,-392,-358,-325,-274
2018-05-16,11:24:48.655,-214,-117,-24,63,130,145,149,125,115,136,182,232,332,506,714,917,1092,1233,1299,1286,1212,1101,960,798,659,514,383,315,246,193,182,171,118,40,-57,-165,-379,-699,-736,-592,-492,-319,-185,-128,12,211,352,477,569,514,29,-199,320,2921,3796,2359,1085,447,89,90,91,108,198,264,263,240,167,94,71,26,-26,-83,-109,-142,-155,-112,-124,-129,-135,-201,-220,-142,-127,-111,-128,-188,-234,-311,-398,-400,-370,-336,-290,-236,-189,-243,-320,-462,-708,-1046,-1404,-1681,-1776,-1897,-1936,-1631,-1228,-891,-478,-172,23,245,459,642,780,835,670,187,-226,704,2923,2939,1763,966,527,280,292,365
2018-05-16,11:23:11.700,508,470,563,531,452,507,518,472,518,546,458,374,350,349,276,42,22,122,220,330,421,423,421,447,413,326,249,146,-556,-1098,-112,2875,4519,2948,1267,15,-747,-1095,-1162,-1188,-1108,-1080,-1142,-1224,-1171,-1170,-1186,-1214,-1231,-1358,-1430,-1413,-1432,-1391,-1287,-1063,-817,-507,-255,22,220,410,568,618,539,478,474,435,362,315,277,210,170,133,125,131,178,188,188,94,50,79,63,6,-141,-300,-220,-79,-3,87,136,180,203,167,126,119,116,-235,-1016,-1152,701,3890,4111,2316,920,-216,-998,-1201,-1161,-1124,-1113,-1120,-1127,-1035,-1024,-1097,-1129,-1140,-1191,-1284,-1278,-1302,-1316,-1204,-1083,-872,-608,-284
2018-05-16,11:24:49.692,374,361,268,286,266,9,-167,-193,-225,-241,-197,-142,-136,-120,-52,-11,17,70,177,342,484,620,722,764,772,749,658,545,480,385,274,185,94,13,-110,-213,-287,-359,-460,-556,-590,-721,-885,-848,-618,-422,-200,-32,49,106,130,130,146,130,0,-503,-743,62,2537,3351,2171,1016,295,-222,-416,-426,-448,-462,-446,-455,-461,-463,-532,-588,-613,-623,-660,-759,-878,-1038,-971,-1028,-1084,-1103,-1008,-972,-858,-744,-591,-457,-496,-577,-676,-775,-867,-1020,-1125,-1173,-1205,-1219,-1150,-1080,-985,-900,-792,-694,-553,-457,-522,-402,-111,110,306,460,531,598,654,732,820,927,935,485,218,688,2899,3925,2730,1405
2018-05-16,11:24:50.729,680,129,-116,-203,-236,-300,-333,-339,-428,-509,-606,-671,-775,-868,-1010,-1098,-1163,-1180,-1166,-1076,-919,-781,-690,-509,-321,-134,-48,-27,-85,-194,-382,-522,-588,-651,-618,-535,-434,-307,-155,-6,114,198,262,279,326,304,50,-6,188,331,523,721,873,983,1012,1010,1019,997,956,599,169,55,1929,3295,2582,1537,912,406,74,-33,-189,-397,-538,-639,-762,-914,-1039,-1141,-1218,-1263,-1260,-1264,-1235,-1193,-1126,-1042,-988,-926,-834,-704,-547,-454,-401,-343,-278,-275,-260,-231,-180,-117,-44,1,75,160,298,403,505,588,633,698,800,748,688,886,1130,1309,1496,1579,1569,1508,1399,1270,1168,1069,810,223,-177,666
2018-05-16,11:24:51.766,2791,2708,1556,647,40,-439,-605,-677,-707,-741,-750,-759,-756,-755,-772,-774,-778,-838,-885,-967,-1109,-1292,-1436,-1511,-1444,-1315,-1102,-849,-597,-344,-130,28,138,243,305,356,413,480,544,597,675,773,925,1055,1124,1114,1119,1086,836,699,770,841,905,972,962,914,862,816,747,651,508,-106,-702,-622,1309,2728,1622,236,-723,-1401,-1918,-1947,-1815,-1735,-1654,-1692,-1711,-1651,-1603,-1584,-1578,-1644,-1738,-1878,-1988,-2003,-1956,-1832,-1649,-1422,-1140,-821,-442,-58,295,603,820,977,1073,1089,1081,1062,1038,1027,1018,1070,1145,1217,1238,1241,1229,1210,1090,819,740,779,807,858,875,872,850,791,716,591,448,226,-374,-798
2018-05-16,11:23:12.738,-28,200,360,422,462,457,476,398,397,373,306,232,200,161,82,28,-14,-38,-34,77,138,113,92,72,-28,-90,-117,-239,-187,-35,87,173,227,245,280,228,199,220,179,-217,-1029,-821,1368,4438,4335,2372,770,-281,-951,-1077,-1065,-1048,-1007,-949,-951,-901,-834,-849,-842,-867,-887,-977,-1084,-1052,-950,-840,-718,-481,-159,111,322,568,810,923,869,877,902,867,735,723,633,567,452,415,356,357,348,350,297,253,261,260,164,90,49,-58,-153,-84,18,42,159,233,265,243,141,112,172,83,-482,-1320,-1058,1379,4514,4092,2040,499,-551,-1167,-1240,-1243,-1229,-1213,-1235,-1175,-1145,-1130,-1177,-1220
2018-05-16,11:24:52.804,42,2675,3051,1636,469,-126,-582,-689,-716,-736,-813,-924,-1091,-1322,-1544,-1731,-1885,-1947,-1964,-1941,-1860,-1673,-1403,-1043,-672,-285,32,278,476,646,788,842,882,895,884,838,812,769,751,755,738,715,696,659,638,596,525,465,429,175,67,220,221,196,129,86,-115,-181,-225,-416,-750,-834,-1242,-1624,-989,1580,2781,1607,255,-485,-1203,-1560,-1682,-1726,-1809,-1965,-1933,-1820,-1673,-1512,-1350,-1150,-968,-814,-641,-445,-213,-3,168,270,373,476,608,745,899,1068,1153,1185,1204,1198,1193,1172,1151,1111,1084,1062,995,920,882,855,804,739,638,328,245,337,367,412,411,350,290,237,175,161,97,-62,-609,-944
2018-05-16,11:24:53.841,-272,2457,3181,1593,107,-725,-1428,-1693,-1720,-1736,-1698,-1655,-1614,-1540,-1408,-1307,-1109,-942,-845,-839,-787,-727,-712,-664,-522,-363,-191,-7,228,476,681,839,939,972,996,1012,977,831,699,579,539,559,486,354,242,126,-34,-217,-623,-699,-507,-497,-435,-335,-335,-339,-383,-397,-460,-493,-658,-1253,-1686,-989,1448,2357,940,-447,-1274,-1814,-1893,-1763,-1631,-1486,-1310,-1114,-962,-829,-730,-651,-607,-570,-549,-550,-533,-485,-385,-272,-126,83,305,546,780,986,1132,1207,1215,1178,1109,1014,935,887,857,793,729,674,594,494,356,271,133,-160,-271,-165,-114,-63,50,85,96,94,84,51,-85,-411,-1062,-1657,-1717,644
2018-05-16,11:23:22.576,81,292,436,510,553,550,541,505,456,413,379,354,315,297,298,278,264,280,284,287,268,204,189,186,-44,-168,-30,86,235,379,413,395,374,325,302,308,202,-392,-909,-226,2579,4078,2532,825,-157,-716,-831,-845,-855,-868,-847,-821,-823,-814,-819,-845,-888,-956,-1000,-1015,-1012,-981,-894,-763,-621,-438,-208,43,275,463,594,668,699,664,609,552,496,438,371,341,297,265,240,210,184,162,124,101,60,-5,-46,-117,-350,-399,-263,-159,-7,82,117,106,85,62,30,19,-106,-745,-1001,223,3207,3631,1774,224,-668,-1041,-1074,-1071,-1072,-1059,-1039,-1039,-1036,-1030,-1041,-1070,-1111,-1168,-1206,-1192
2018-05-16,11:24:54.878,2212,966,-366,-912,-1280,-1279,-1072,-911,-748,-591,-427,-283,-211,-178,-164,-151,-132,-94,-68,2,81,165,234,277,342,430,548,706,860,988,1082,1152,1147,1158,1083,882,744,533,282,62,-72,-222,-402,-517,-593,-725,-932,-863,-741,-768,-647,-406,-432,-453,-456,-555,-603,-659,-767,-1209,-1354,-387,2221,2870,1487,356,-164,-546,-574,-491,-437,-385,-332,-305,-255,-215,-140,-63,98,205,341,466,539,681,769,760,733,714,685,723,859,1043,1193,1292,1322,1291,1226,1091,972,852,725,671,617,576,516,444,412,326,61,-3,55,79,60,-4,-167,-406,-655,-889,-1052,-1126,-1339,-1955,-2289,-1507,1155,1996,816,-185
2018-05-16,11:24:06.488,-753,-775,-818,-840,-898,-921,-938,-919,-873,-777,-635,-487,-281,-39,224,451,650,768,820,833,816,798,763,704,664,620,587,550,516,508,486,456,441,436,435,409,375,308,263,202,1,-83,42,138,254,363,389,369,344,318,297,294,257,-261,-698,-102,2673,4143,2492,724,-278,-800,-877,-897,-921,-905,-906,-897,-892,-887,-892,-914,-970,-1004,-1071,-1119,-1110,-1080,-1016,-912,-781,-592,-382,-137,114,311,436,494,518,529,503,449,404,351,297,249,219,172,130,112,98,68,50,48,42,16,-25,-83,-90,-205,-432,-384,-233,-149,28,110,107,81,71,59,42,29,-145,-777,-955,293,3260,3490
2018-05-16,11:24:55.915,-690,-1036,-1043,-901,-792,-684,-575,-527,-474,-418,-373,-326,-316,-324,-352,-401,-434,-439,-381,-335,-252,-148,-20,102,279,376,463,565,590,533,395,372,309,141,55,9,-100,-190,-244,-271,-332,-353,-375,-578,-773,-721,-701,-716,-752,-883,-1016,-1097,-1112,-1073,-1019,-1008,-1263,-1550,-1460,532,2424,1828,608,39,-322,-435,-341,-257,-145,0,118,189,256,321,325,330,325,297,267,213,182,164,194,235,237,295,408,395,459,540,557,486,366,251,183,140,75,35,53,64,98,102,138,163,71,54,-92,-522,-722,-784,-860,-855,-865,-911,-878,-767,-611,-444,-262,-263,-530,-564,388,3128,3778,2622,1675,1183
2018-05-16,11:24:56.952,760,708,704,695,701,664,592,518,451,387,295,211,143,66,-20,-70,-113,-144,-133,-39,26,-62,8,179,259,338,425,438,370,284,191,119,-18,-57,-109,-217,-332,-431,-559,-783,-951,-1188,-1510,-1573,-1498,-1406,-1241,-1089,-915,-735,-597,-494,-381,-300,-449,-993,-1072,226,2940,3207,2004,1124,624,322,283,291,265,234,194,99,10,-70,-171,-230,-258,-307,-340,-361,-400,-425,-446,-503,-489,-462,-405,-293,-119,102,272,385,485,533,510,434,307,76,-182,-424,-596,-636,-610,-592,-586,-542,-454,-500,-502,-265,-45,89,274,361,429,488,489,470,459,368,-113,-454,105,2484,4536,3308,1474,369,-307,-573
2018-05-16,11:24:11.675,-845,-861,-855,-861,-893,-932,-997,-1049,-1050,-1047,-1025,-949,-825,-664,-460,-227,42,290,477,581,637,677,653,591,563,527,473,425,388,356,322,283,243,236,236,212,198,189,195,200,157,131,94,32,2,-94,-317,-260,-95,-14,163,202,214,221,195,174,162,138,-59,-719,-997,234,3100,3853,2025,400,-497,-839,-863,-900,-911,-897,-889,-853,-843,-857,-862,-878,-920,-992,-1029,-1053,-1073,-1034,-961,-855,-740,-571,-322,-52,218,410,529,624,660,647,613,580,532,489,439,389,371,339,283,257,269,253,231,224,211,211,207,178,169,114,68,57,-40,-256,-267,-99,-4,170,235,248,239,215
2018-05-16,11:24:57.990,-634,-625,-669,-709,-784,-823,-871,-881,-918,-986,-1068,-1150,-1223,-1300,-1472,-1657,-1699,-1614,-1556,-1429,-1315,-1168,-957,-799,-679,-676,-770,-951,-1159,-1293,-1345,-1305,-1197,-1002,-745,-459,-153,98,274,367,443,463,321,301,421,533,698,826,932,967,980,915,904,881,692,170,180,1284,4085,4683,2982,1438,631,131,8,-5,-59,-95,-181,-278,-364,-489,-664,-864,-1030,-1206,-1405,-1536,-1579,-1618,-1561,-1403,-1194,-1032,-867,-692,-600,-519,-404,-294,-185,-150,-171,-112,22,196,372,545,711,916,1080,1214,1291,1269,1193,1044,1007,877,588,528,648,706,817,907,967,978,958,925,891,806,422,-220,-339,949,3640,3366,1197,-617
2018-05-16,11:24:59.027,-1781,-2503,-2773,-2819,-2744,-2604,-2379,-2239,-2053,-1636,-1206,-1097,-934,-808,-779,-776,-786,-827,-909,-994,-1067,-1027,-871,-604,-282,76,417,726,984,1228,1350,1419,1444,1446,1441,1402,1358,1329,1306,1314,1300,1306,1331,1289,1262,1192,951,821,873,900,955,997,963,892,764,687,675,521,151,-417,-643,-28,2557,3329,1695,223,-498,-944,-1031,-1051,-1077,-1090,-1093,-1212,-1353,-1502,-1660,-1830,-2040,-2214,-2319,-2399,-2391,-2254,-2010,-1623,-1291,-1022,-688,-298,24,373,755,1097,1410,1638,1709,1795,1866,1868,1807,1773,1752,1729,1723,1682,1620,1549,1422,1324,1238,1184,977,698,621,587,432,313,169,90,-153,-317,-301,-479,-665,-1147,-1670,-1323
2018-05-16,11:25:00.064,1108,3205,2238,842,-188,-949,-1320,-1446,-1567,-1694,-1827,-1859,-1859,-1820,-1765,-1722,-1666,-1576,-1424,-1279,-1135,-1024,-895,-764,-640,-480,-349,-150,92,389,719,1032,1194,1264,1273,1234,1150,1061,972,879,769,666,599,508,460,408,349,233,129,-43,-359,-475,-446,-396,-285,-229,-182,-163,-206,-216,-239,-291,-694,-1555,-1646,-24,2812,2662,554,-1097,-2036,-2446,-2312,-2114,-1892,-1659,-1385,-1115,-839,-590,-382,-242,-154,-142,-150,-167,-183,-173,-110,13,176,385,529,663,794,883,973,1066,1124,1078,1028,949,804,743,570,349,327,310,196,44,40,-77,-171,-280,-387,-475,-685,-779,-597,-438,-297,-194,-150,-196,-234,-352,-572,-831
2018-05-16,11:25:01.101,-1188,-2003,-2509,-1869,948,2974,1617,-186,-1127,-1553,-1572,-1419,-1275,-1137,-987,-835,-667,-509,-334,-155,-10,86,116,170,206,220,262,345,453,540,581,658,704,760,841,890,897,870,797,661,516,377,195,42,-118,-179,-222,-163,-55,-3,68,97,68,60,0,-291,-509,-536,-600,-632,-609,-606,-579,-449,-240,34,294,377,144,-111,-19,2148,4107,3359,2120,1408,786,479,404,371,360,378,401,385,376,367,357,330,266,219,172,130,120,101,50,14,143,213,137,257,362,459,473,443,372,327,229,129,-70,-243,-324,-428,-561,-666,-784,-898,-1042,-1249,-1495,-1618,-1724,-1807,-1611,-1389,-1187,-1047,-980,-851
2018-05-16,11:25:02.138,-709,-531,-360,-161,-29,-101,-518,-578,557,3334,4107,2982,2047,1364,855,655,621,567,491,409,349,221,139,90,37,-165,-249,-382,-493,-615,-728,-909,-1080,-1113,-1060,-1012,-925,-874,-743,-613,-503,-447,-441,-510,-648,-860,-1073,-1227,-1327,-1343,-1338,-1275,-1173,-981,-750,-533,-349,-216,-79,16,-43,122,413,578,716,816,949,1033,1087,1135,1194,1185,982,416,354,1190,4126,4958,3015,1246,319,-119,-308,-386,-465,-612,-715,-797,-945,-1104,-1167,-1365,-1475,-1503,-1554,-1527,-1538,-1570,-1482,-1369,-1267,-1111,-1000,-920,-821,-781,-777,-824,-878,-901,-870,-798,-681,-547,-395,-225,-82,50,166,224,249,271,263,256,223,313,360,253
2018-05-16,11:25:03.176,402,695,946,1213,1389,1481,1519,1512,1441,1387,1324,1106,475,179,841,3484,4523,2860,1104,50,-619,-827,-988,-1160,-1270,-1328,-1375,-1430,-1410,-1334,-1300,-1294,-1264,-1285,-1362,-1486,-1617,-1729,-1719,-1586,-1416,-1225,-1022,-778,-418,6,407,672,817,918,991,1011,999,964,957,944,921,907,932,966,993,976,973,945,883,697,468,451,517,520,591,640,590,555,490,353,228,60,-321,-1171,-1682,-869,1839,2373,705,-861,-1772,-2219,-2198,-2088,-1990,-1923,-1887,-1823,-1789,-1805,-1860,-1990,-2104,-2145,-2132,-2116,-2032,-1865,-1674,-1435,-1169,-871,-615,-368,-92,149,365,555,693,817,894,956,1020,1140,1257,1334,1414,1545,1627,1674,1722,1710
2018-05-16,11:25:04.213,1690,1606,1532,1459,1145,950,989,952,897,790,581,327,45,-219,-405,-602,-726,-1079,-1526,-1423,842,2511,1664,442,-166,-608,-798,-866,-926,-962,-1004,-1018,-996,-935,-812,-678,-543,-399,-269,-88,105,254,412,593,775,932,1083,1265,1421,1637,1887,2083,2234,2355,2411,2482,2518,2471,2374,2253,2113,1960,1803,1697,1553,1412,1271,911,631,197,-348,-681,-831,-766,-664,-600,-569,-562,-509,-428,-391,-378,-489,-1042,-1332,-174,1905,1808,436,-714,-1462,-1922,-1925,-1775,-1608,-1411,-1193,-932,-679,-472,-247,-157,-172,-227,-262,-281,-288,-247,-112,70,295,542,787,960,1083,1179,1243,1237,1167,1079,976,795,644,494,350,199,42,-92
2018-05-16,11:25:05.250,-240,-425,-559,-720,-920,-1197,-1332,-1255,-1170,-1091,-994,-980,-999,-1066,-1186,-1360,-1565,-1872,-2588,-3210,-2718,-115,2021,877,-539,-1408,-1873,-1916,-1637,-1345,-1066,-791,-564,-447,-347,-261,-233,-205,-174,-109,13,154,330,532,739,935,1129,1272,1382,1552,1518,1584,1643,1666,1621,1424,1296,1106,739,343,-57,-495,-854,-1215,-1426,-1522,-1586,-1570,-1528,-1622,-1567,-1301,-1064,-904,-739,-644,-589,-637,-745,-830,-850,-887,-1220,-1429,-898,1438,3429,2786,1634,1056,718,683,808,932,983,1013,1050,1112,1168,1287,1379,1479,1618,1750,1670,1594,1520,1408,1282,1198,1173,1133,1029,1032,1111,1106,1086,991,799,524,237,-77,-395,-635,-780,-948,-1102,-1207
2018-05-16,11:25:06.287,-1280,-1402,-1509,-1885,-2263,-2374,-2446,-2557,-2579,-2611,-2559,-2488,-2438,-2347,-2280,-2235,-2514,-2772,-2220,162,2898,2469,1171,260,-187,-377,-255,-76,43,115,152,161,172,161,141,103,60,-23,-110,-163,-228,-234,-216,-197,-227,-278,-284,-265,-211,-201,-221,-258,-265,-369,-416,-376,-363,-349,-309,-277,-201,-115,-95,-169,-298,-428,-640,-890,-834,-631,-469,-213,56,295,458,565,660,754,766,464,-78,39,1628,4735,4849,2839,1372,698,432,484,580,633,689,712,667,571,449,334,192,41,-74,-184,-277,-434,-539,-607,-638,-616,-568,-487,-379,-229,-71,61,108,112,96,74,43,-11,-145,-252,-409,-540,-558,-496,-471,-498
2018-05-16,11:25:07.324,-509,-482,-489,-429,-167,91,274,521,665,784,835,799,761,677,546,25,-234,343,2802,4803,3605,1773,732,98,-61,-55,-109,-164,-215,-300,-415,-496,-502,-651,-870,-1169,-1583,-2059,-2479,-2689,-2719,-2645,-2428,-2023,-1688,-1363,-1004,-655,-328,-116,5,-34,-160,-397,-632,-755,-858,-1016,-1048,-1007,-974,-928,-883,-855,-775,-668,-721,-683,-411,-143,157,462,681,869,998,1036,1160,1200,1172,574,232,507,2736,4032,2910,1488,671,170,10,-50,-105,-203,-348,-566,-871,-1237,-1557,-1809,-1981,-1925,-1864,-1681,-1427,-1184,-908,-657,-489,-327,-242,-230,-178,-59,75,211,306,421,590,733,811,939,1087,1238,1410,1532,1607,1714,1806,1786
2018-05-16,11:25:08.362,1821,1811,1553,1485,1558,1655,1741,1757,1709,1643,1491,1389,1307,1215,1017,468,-236,-214,1756,2178,992,-158,-996,-1880,-2393,-2706,-2960,-2985,-3100,-3014,-2766,-2501,-2230,-1930,-1704,-1508,-1326,-1312,-1207,-1061,-1048,-1059,-1047,-1068,-1019,-794,-693,-435,-153,251,654,1128,1544,1871,2097,2302,2380,2370,2275,2153,2049,1911,1782,1670,1643,1500,1240,1216,1311,1474,1642,1743,1733,1680,1608,1426,1308,1137,731,65,-889,-92,1820,1599,450,-245,-690,-866,-830,-813,-828,-882,-986,-1149,-1382,-1732,-2107,-2457,-2697,-2853,-2966,-2970,-2924,-2834,-2618,-2277,-1909,-1538,-1212,-873,-518,-157,207,563,829,979,1117,1196,1224,1218,1153,1098,1022,936,801,627,496,448
2018-05-16,11:25:09.399,77,-286,-405,-481,-645,-907,-1359,-1777,-2156,-2464,-2705,-2738,-2675,-3075,-3137,-2112,853,3026,2154,866,-54,-683,-814,-693,-704,-765,-929,-1167,-1559,-1768,-1842,-1784,-1611,-1437,-1126,-855,-606,-269,51,407,800,1139,1424,1651,1829,1968,2053,2087,2103,2080,2100,2142,2204,2212,2231,2256,2240,2253,2256,2202,2101,2035,1966,1769,1368,1158,1146,1112,1118,1075,831,678,545,308,28,-47,-66,-373,-1064,-1329,1017,2000,1031,58,-554,-1048,-1320,-1538,-1768,-1944,-2104,-2072,-1968,-1673,-1397,-1362,-1251,-931,-566,-38,703,1295,1699,1948,2099,2184,2248,2190,2182,2230,2319,2242,2085,2024,1919,1774,1597,1409,1316,1244,1125,1092,1088,977,794,506,91,-430
2018-05-16,11:25:10.436,-784,-792,-740,-585,-452,-295,-181,-180,-245,-283,-302,-248,-526,-1485,-1724,64,691,14,-670,-1111,-1426,-1512,-1424,-1338,-1247,-1164,-1126,-1093,-1062,-1023,-994,-955,-878,-784,-692,-557,-375,-207,-66,20,71,82,89,83,60,84,93,60,23,21,7,20,-16,-90,-105,-148,-264,-355,-452,-590,-630,-731,-989,-963,-748,-564,-425,-370,-393,-521,-675,-843,-974,-1124,-1265,-1800,-2846,-3593,-1716,-432,-527,-649,-476,-324,-82,234,456,521,532,516,463,411,373,326,298,276,221,195,146,144,56,105,226,295,198,87,-33,-127,-285,-499,-653,-742,-830,-816,-725,-656,-563,-415,-198,-53,77,258,245,245,281,7,-196,-102
2018-05-16,11:25:11.473,-218,-444,-693,-992,-1175,-1208,-1198,-1124,-933,-688,-750,-1070,-1129,964,2999,2478,1559,978,480,186,148,141,186,276,426,563,682,787,808,822,780,683,533,388,293,243,203,218,299,363,433,521,589,644,682,640,528,398,231,56,-27,-49,-68,-59,-44,-54,-150,-389,-706,-943,-1212,-1461,-1412,-1317,-1282,-1156,-1016,-885,-702,-546,-437,-325,-283,-530,-969,-942,817,3822,3484,1853,813,160,-123,-68,8,62,81,43,-11,-40,-102,-152,-195,-248,-302,-400,-523,-574,-707,-835,-896,-961,-1013,-1062,-996,-894,-761,-555,-399,-313,-224,-121,-54,23,45,90,133,118,55,-78,-242,-338,-442,-495,-560,-735,-705,-536
2018-05-16,11:25:12.510,-414,-260,-137,-48,-3,40,126,259,338,346,23,-148,170,2658,4047,2988,1809,1279,863,722,670,564,470,333,222,137,49,-12,-51,-99,-161,-267,-354,-488,-665,-835,-924,-944,-980,-925,-761,-586,-417,-228,-76,-31,-119,-214,-281,-371,-436,-471,-512,-520,-457,-309,-64,195,423,575,718,832,756,578,643,744,790,904,965,972,1033,1082,1107,1083,1011,758,173,-71,1410,3755,3302,1976,1006,334,-101,-166,-263,-381,-411,-481,-511,-577,-656,-780,-873,-946,-1001,-1003,-1005,-1026,-1056,-982,-898,-820,-755,-715,-729,-806,-912,-963,-933,-912,-887,-835,-738,-663,-526,-401,-283,-143,-35,31,113,194,203,196,221,282
2018-05-16,11:25:13.548,142,187,405,570,719,837,867,849,805,729,644,556,422,-70,-464,-190,2131,3587,2418,1045,249,-322,-664,-727,-857,-1080,-1106,-1058,-1052,-1071,-1052,-1037,-1061,-1098,-1216,-1380,-1496,-1527,-1454,-1323,-1157,-1012,-850,-651,-420,-202,-14,147,292,379,452,542,610,682,729,792,855,901,969,1030,1027,992,932,842,754,693,526,335,375,461,578,752,754,629,563,325,121,-20,-242,-708,-1449,-1838,-334,1903,1521,198,-645,-1225,-1493,-1457,-1412,-1327,-1278,-1346,-1524,-1660,-1758,-1850,-1930,-1957,-1915,-1816,-1615,-1308,-932,-564,-187,174,489,722,855,956,1043,1098,1112,1092,1037,989,931,881,882,881,919,984,1044,1069,1079,1060
2018-05-16,11:25:14.585,990,917,848,785,666,429,396,473,518,637,605,553,434,304,231,181,146,57,-353,-634,-93,2512,3390,1866,427,-365,-967,-1123,-1081,-1102,-1081,-1032,-959,-825,-598,-431,-380,-399,-439,-523,-597,-646,-653,-686,-676,-595,-488,-348,-141,131,435,697,866,945,931,870,807,715,641,578,580,625,600,626,624,625,499,377,194,8,-120,-389,-808,-856,-793,-757,-636,-531,-496,-515,-504,-491,-477,-506,-720,-1318,-1578,-646,2006,2672,1148,-200,-879,-1355,-1420,-1277,-1139,-1043,-956,-892,-843,-804,-774,-727,-684,-619,-544,-447,-321,-202,-62,104,280,426,538,608,661,706,767,824,857,825,795,737,662,576,498,415
2018-05-16,11:25:15.622,347,296,227,167,119,80,61,41,-7,6,-68,-307,-397,-426,-506,-559,-612,-703,-768,-815,-820,-735,-550,-377,-598,-752,-474,2145,3749,2528,1053,319,-226,-422,-455,-529,-601,-637,-652,-654,-646,-629,-598,-596,-609,-619,-616,-616,-564,-487,-436,-317,-263,-163,-151,-115,-109,-89,-92,-72,-97,-144,-165,-164,-150,-92,-36,5,22,38,65,70,-4,-22,-170,-378,-556,-607,-756,-812,-659,-527,-399,-222,-106,-57,-35,-45,-72,-56,-29,-225,-620,-620,817,3440,3367,1964,1015,569,352,369,391,383,341,267,197,88,2,-59,-83,-110,-156,-227,-291,-376,-406,-391,-361,-347,-322,-287,-260,-208,-105,-30,23,87
2018-05-16,11:25:16.659,143,166,90,-62,-196,-342,-542,-676,-753,-840,-914,-871,-738,-517,-286,-125,44,234,186,220,468,607,697,773,773,746,735,719,694,699,705,418,-30,-263,1669,3671,2922,1511,739,187,-84,-142,-171,-224,-274,-363,-526,-645,-756,-933,-1064,-1143,-1233,-1237,-1203,-1161,-1116,-955,-835,-726,-593,-464,-462,-464,-538,-711,-909,-1074,-1170,-1182,-1180,-1104,-971,-760,-524,-318,-154,-19,98,202,282,340,374,423,521,578,491,593,847,1052,1303,1479,1553,1588,1556,1489,1399,1302,1195,770,270,64,1860,3274,2490,1289,500,-126,-483,-582,-646,-690,-722,-724,-710,-710,-735,-769,-817,-887,-1042,-1304,-1656,-1963,-2180,-2282,-2283,-2170
2018-05-16,11:25:17.696,-1954,-1698,-1380,-1003,-613,-221,98,326,498,600,684,765,844,917,1045,1185,1331,1449,1532,1546,1495,1407,1279,1169,1055,781,630,661,713,763,816,797,715,527,319,147,-57,-279,-819,-1413,-1328,436,2086,1418,308,-538,-1134,-1502,-1553,-1572,-1622,-1745,-1914,-2040,-2058,-1985,-1876,-1754,-1588,-1385,-1136,-878,-665,-482,-311,-135,21,151,257,359,480,604,755,879,979,1091,1198,1278,1355,1449,1511,1567,1566,1520,1431,1352,1231,1091,989,853,722,613,314,-62,-221,-322,-427,-457,-483,-492,-488,-494,-468,-394,-361,-502,-930,-1235,-11,2180,1808,339,-621,-1173,-1463,-1372,-1172,-994,-790,-598,-449,-345,-287,-183,-58,35,102,128
2018-05-16,11:25:18.734,151,191,254,316,370,410,469,502,520,564,612,656,657,628,584,523,503,473,436,382,298,221,119,23,-79,-205,-273,-388,-505,-589,-681,-891,-966,-881,-791,-617,-537,-525,-586,-762,-885,-990,-1073,-1117,-1387,-1706,-1672,356,2138,1577,607,237,-67,-157,-115,-111,-127,-166,-175,-181,-175,-131,-47,32,101,132,171,229,285,319,341,379,396,398,426,511,635,748,835,863,827,760,677,580,535,443,404,387,360,344,323,305,276,196,31,-121,-238,-580,-738,-677,-672,-655,-631,-609,-576,-497,-428,-370,-305,-191,-326,-726,-866,1070,3119,2527,1364,737,261,45,21,-23,-85,-129,-186,-264,-319,-348
2018-05-16,11:25:19.771,-390,-402,-374,-380,-423,-532,-532,-509,-553,-527,-409,-342,-373,-226,-131,-27,43,114,94,50,-2,-53,-146,-245,-364,-511,-683,-848,-940,-994,-981,-954,-961,-883,-842,-884,-744,-537,-381,-212,-56,66,174,289,417,521,638,785,562,476,1073,3419,4361,3202,2031,1270,687,400,275,165,57,-30,-124,-214,-350,-491,-652,-868,-1067,-1238,-1476,-1592,-1560,-1449,-1268,-1044,-820,-623,-462,-318,-255,-215,-280,-416,-553,-677,-748,-787,-810,-758,-662,-538,-396,-260,-95,89,293,488,610,687,715,519,448,554,633,748,836,857,812,730,633,574,555,527,181,-220,-135,1868,3477,2633,1239,434,-242,-614,-839,-990,-1127,-1248
2018-05-16,11:25:29.470,-1190,-1544,-1855,-1914,-1756,-1785,-1717,-1634,-1614,-1390,-1185,-1062,-855,-708,-717,-890,-1054,-1095,-1072,-1128,-1256,-1222,-571,1766,4862,4927,3535,2465,1783,1417,1345,1418,1518,1487,1365,1231,1078,950,848,821,751,590,406,170,-175,-465,-599,-879,-1130,-1459,-1849,-2338,-2852,-3363,-3504,-3353,-3033,-2755,-2505,-2160,-2032,-1805,-1558,-1386,-1261,-1157,-959,-906,-909,-938,-838,-749,-801,-706,-269,327,1024,1716,2316,2832,3150,3310,3438,3419,3286,2802,2164,1981,3457,5323,4681,3059,1958,1246,653,318,218,71,-276,-624,-915,-1317,-1823,-2553,-3140,-3411,-3514,-3297,-3201,-3111,-2831,-2518,-2206,-1890,-1531,-1200,-967,-707,-538,-421,-367,-402,-380,-306,-178,119,730,1383
2018-05-16,11:25:30.395,2051,2554,2805,2828,2769,2693,2624,2626,2497,2212,2136,2100,2008,1942,1913,1914,1883,1700,1373,986,727,312,-682,-998,-22,2202,2042,265,-1477,-2689,-3413,-3722,-3732,-3575,-3573,-3536,-3400,-3243,-3092,-2974,-2803,-2593,-2404,-2307,-2271,-2139,-2066,-1975,-1716,-1277,-785,-134,558,1373,2257,2959,3446,3750,3798,3678,3486,3269,3078,2793,2485,2215,1928,1622,1350,1071,810,583,182,-269,-516,-787,-1145,-1499,-2009,-2495,-2771,-2823,-2687,-2500,-2329,-2401,-2621,-2282,-308,2312,2206,884,-199,-927,-1506,-1898,-2201,-2347,-2356,-2213,-1919,-1513,-988,-354,336,967,1422,1632,1737,1813,1884,1912,1898,1941,1968,1954,1976,2027,2043,2042,1964,1698,1321,970,604,124,-280,-779
2018-05-16,11:25:31.432,-1746,-2696,-3221,-3485,-3619,-3588,-3393,-3081,-2874,-2657,-2452,-2168,-1829,-1467,-1250,-1174,-1197,-1248,-1296,-1298,-1205,-1138,-1240,-930,500,3880,4704,3670,2955,2669,2414,2437,2484,2479,2452,2368,2252,2124,1946,1746,1525,1344,1152,931,695,435,175,-127,-560,-1189,-1957,-2651,-3136,-3437,-3474,-3352,-3087,-2665,-2250,-1873,-1611,-1455,-1319,-1138,-953,-875,-883,-928,-993,-1062,-1061,-1145,-1287,-980,-371,291,992,1639,2344,2907,3300,3565,3695,3723,3569,2926,2494,2964,5225,5978,4590,3202,2287,1554,1120,875,656,394,152,-64,-303,-577,-874,-1230,-1806,-2468,-2979,-3285,-3386,-3364,-3182,-2912,-2656,-2432,-2204,-1979,-1688,-1363,-1066,-855,-728,-662,-640,-625,-556,-471,-354,-182
2018-05-16,11:25:32.469,59,317,668,1060,1417,1811,2045,2074,2243,2426,2469,2491,2418,2311,2194,2030,1878,1720,1535,1231,467,24,808,3280,3616,2008,468,-895,-2134,-2976,-3459,-3749,-3867,-3891,-3805,-3598,-3394,-3257,-3153,-3016,-2858,-2741,-2687,-2624,-2551,-2447,-2243,-1998,-1655,-1232,-758,-262,209,748,1340,1922,2464,2927,3311,3604,3772,3845,3840,3767,3637,3452,3246,3016,2815,2627,2292,1989,1901,1820,1693,1588,1372,1105,629,-64,-1011,-2031,-2879,-3782,-4437,-4265,-2163,86,-345,-1703,-2578,-3045,-3134,-2930,-2679,-2417,-2174,-1981,-1861,-1784,-1728,-1686,-1593,-1422,-1187,-881,-467,28,573,1115,1593,2000,2361,2656,2920,3130,3296,3424,3479,3416,3263,3050,2837,2642,2434,2214,2004,1786
2018-05-16,11:25:33.506,1501,963,35,-981,-1839,-2658,-3265,-3380,-3239,-2983,-2576,-2201,-1886,-1638,-1419,-1171,-954,-824,-1006,-1601,-1935,-853,1826,1826,544,-172,-377,-461,-221,160,615,1101,1539,1952,2339,2597,2712,2718,2583,2391,2194,1988,1766,1624,1505,1388,1293,1218,1157,1172,1144,1038,909,623,166,-480,-1281,-2062,-2640,-2929,-3006,-2959,-2823,-2600,-2367,-2252,-2194,-2137,-2163,-2082,-1783,-1493,-1262,-1061,-952,-755,-559,-527,-483,-418,-294,-327,-293,343,2668,5420,5241,4092,3193,2576,2165,1995,1854,1654,1468,1285,1057,827,619,418,219,3,-195,-398,-709,-1215,-1991,-2765,-3251,-3497,-3567,-3525,-3309,-2979,-2652,-2336,-2118,-1987,-1876,-1776,-1721,-1726,-1776,-1812,-1815,-1703,-1504,-1273
2018-05-16,11:25:34.543,-881,-427,-32,160,417,948,1520,2003,2470,2863,3125,3322,3392,3347,3282,3163,2772,2092,1883,3124,5366,4970,3274,2024,1244,639,388,183,-137,-554,-1197,-2049,-2964,-3694,-4246,-4490,-4539,-4425,-4223,-4001,-3764,-3494,-3164,-2782,-2384,-1975,-1604,-1355,-1144,-967,-847,-626,-409,-245,-42,340,885,1485,2064,2554,2947,3205,3434,3610,3720,3802,3769,3527,3340,3198,3079,2930,2782,2634,2449,2204,2052,1968,1834,1681,1019,-91,-1251,16,664,-994,-2619,-3454,-3943,-3952,-3637,-3301,-2990,-2616,-2223,-1867,-1590,-1347,-1288,-1414,-1567,-1687,-1674,-1541,-1297,-1030,-704,-296,156,720,1389,2130,2789,3303,3650,3767,3682,3493,3335,3167,2924,2691,2479,2280,2136,1951,1752,1519
2018-05-16,11:25:35.581,1281,989,516,173,-155,-835,-1764,-2585,-3156,-3492,-3699,-3700,-3580,-3455,-3459,-3858,-3841,-2662,45,1163,21,-1194,-1826,-2164,-2272,-2197,-2078,-1913,-1779,-1606,-1122,-517,195,750,1273,1561,1715,1737,1669,1617,1630,1675,1737,1779,1775,1690,1609,1580,1532,1372,1167,932,604,150,-372,-957,-1670,-2307,-2738,-2978,-3001,-2894,-2817,-2602,-2397,-2393,-2310,-2205,-2109,-1923,-1730,-1574,-1549,-1658,-1704,-1596,-1411,-1326,-1530,-1038,706,4161,5322,4135,2955,2401,2087,2154,2301,2338,2352,2312,2206,2100,1974,1843,1722,1598,1443,1191,995,872,808,726,665,534,85,-837,-1878,-2633,-3053,-3279,-3286,-3056,-2724,-2405,-2152,-1926,-1692,-1519,-1370,-1159,-953,-760,-660,-664,-657,-639
2018-05-16,11:25:36.618,-759,-676,-364,-16,475,1090,1692,2191,2527,2814,3005,3101,3078,2614,2227,2446,4669,5983,4767,3261,2305,1552,1113,937,725,559,352,41,-526,-1553,-2655,-3445,-3898,-4134,-4238,-4183,-3922,-3539,-3149,-2730,-2326,-1947,-1539,-1170,-843,-605,-560,-681,-806,-896,-831,-597,-283,73,423,791,1198,1672,2164,2591,2879,3214,3468,3343,3148,3092,3014,2905,2845,2692,2549,2372,2171,1934,1679,1364,624,-26,156,1938,3160,1744,-86,-1691,-3056,-3927,-4301,-4359,-4251,-4023,-3760,-3518,-3287,-3112,-2934,-2791,-2678,-2547,-2464,-2426,-2415,-2340,-2209,-2017,-1754,-1393,-959,-417,257,998,1627,2220,2739,3122,3369,3483,3449,3372,3215,3005,2813,2617,2358,2094,1900,1682,1283,1112
2018-05-16,11:25:37.655,1102,1032,928,548,-213,-1115,-1861,-2375,-2701,-2850,-3027,-3476,-3424,-2081,896,1763,342,-1008,-1933,-2556,-2748,-2832,-2907,-2917,-2790,-2515,-2077,-1569,-1137,-671,-194,313,791,1194,1592,1965,2281,2550,2709,2773,2773,2774,2740,2666,2611,2506,2354,2172,1956,1748,1505,1299,1046,705,303,-341,-1290,-2299,-3096,-3666,-3964,-4175,-4121,-3719,-3284,-2907,-2527,-2271,-2053,-1845,-1681,-1550,-1446,-1397,-1719,-2177,-2057,-74,2382,1871,609,124,91,366,906,1375,1740,2007,2180,2289,2330,2313,2265,2190,2095,1993,1830,1645,1494,1354,1271,1267,1277,1268,1331,1391,1318,957,149,-773,-1533,-2064,-2430,-2621,-2652,-2475,-2209,-1956,-1713,-1476,-1248,-1044,-854,-740,-964,-1274,-1345,-1354
2018-05-16,11:25:38.692,-1241,-876,-505,-163,152,475,827,1214,1580,1670,1716,2230,4226,6654,6212,4605,3432,2644,2162,1969,1796,1620,1466,1268,1061,872,673,395,138,-173,-507,-943,-1456,-2034,-2673,-3245,-3619,-3768,-3755,-3580,-3284,-2929,-2632,-2415,-2207,-1966,-1758,-1575,-1424,-1338,-1222,-1116,-1062,-970,-793,-622,-421,-101,387,849,1348,2039,2632,3067,3460,3691,3761,3711,3575,3407,3199,2969,2429,1539,1304,2805,5075,4275,2680,1381,441,-379,-983,-1757,-2719,-3396,-3739,-3995,-4079,-3994,-3765,-3465,-3207,-2954,-2754,-2605,-2399,-2168,-2008,-1926,-1920,-1929,-1858,-1680,-1395,-978,-474,4,405,760,1088,1432,1793,2160,2516,2782,2987,3130,3221,3232,3081,2890,2708,2358,2108,2034,1988,1926
2018-05-16,11:25:39.729,1844,1683,1514,1327,1117,865,543,16,-1059,-2155,-2638,-1277,-601,-2010,-3511,-4256,-4615,-4569,-4285,-3965,-3675,-3331,-3021,-2765,-2552,-2500,-2508,-2476,-2412,-2278,-2068,-1787,-1439,-964,-398,311,1023,1684,2257,2730,3112,3390,3581,3682,3651,3499,3257,3029,2797,2560,2335,2137,1981,1836,1697,1541,1322,1023,307,-728,-1868,-2764,-3265,-3575,-3734,-3679,-3600,-3440,-3253,-3140,-3039,-3311,-3712,-3305,-799,1547,372,-1388,-2258,-2648,-2495,-1937,-1342,-862,-434,-4,442,904,1383,1864,2346,2730,2942,3029,3046,2993,2910,2816,2754,2703,2627,2556,2466,2447,2337,2105,1770,1199,486,-409,-1429,-2288,-2864,-3211,-3353,-3303,-3135,-2956,-2749,-2513,-2341,-2383,-2342,-2146,-1989,-1772,-1489,-1293
2018-05-16,11:25:40.767,-1199,-1125,-1031,-953,-809,-720,-982,-785,413,3451,5570,4935,3973,3430,3174,3209,3346,3377,3295,3129,2895,2592,2286,1993,1715,1429,1140,899,608,306,4,-298,-746,-1308,-1774,-2026,-2104,-2045,-1915,-1705,-1431,-1168,-949,-827,-838,-954,-1115,-1232,-1309,-1351,-1407,-1481,-1571,-1643,-1564,-1372,-1185,-815,-275,230,689,1195,1651,2123,2518,2866,3152,3341,3368,2929,2621,2975,5210,6735,5283,3490,2338,1503,1052,881,633,346,-14,-449,-962,-1631,-2523,-3439,-4162,-4648,-4849,-4862,-4743,-4477,-4057,-3652,-3273,-2961,-2710,-2358,-2010,-1671,-1377,-1236,-1157,-1197,-1203,-1151,-980,-768,-477,-16,552,1244,1946,2532,2929,3220,3482,3496,3401,3438,3448,3371,3276,3065,2827,2592
2018-05-16,11:25:41.804,2321,2077,1887,1656,1198,451,-137,1091,2725,1131,-1286,-2837,-3788,-4280,-4233,-4000,-3685,-3318,-2953,-2662,-2498,-2385,-2286,-2220,-2192,-2249,-2347,-2490,-2599,-2490,-2224,-1799,-1240,-732,-229,333,1008,1670,2254,2729,3105,3382,3567,3710,3733,3648,3516,3361,3197,3015,2827,2586,2332,2013,1474,1110,941,696,382,-21,-612,-1387,-2124,-2705,-3168,-3426,-3624,-4094,-4087,-2874,-100,1130,-108,-1486,-2439,-2958,-2955,-2731,-2537,-2354,-2197,-2055,-1900,-1678,-1395,-1062,-642,-109,488,1100,1659,2144,2616,3041,3351,3513,3596,3604,3576,3507,3356,3185,2944,2649,2381,2144,1907,1661,1388,1038,494,-325,-1323,-2180,-2734,-2994,-3241,-3424,-3207,-2836,-2410,-1979,-1628,-1531,-1505,-1426,-1282,-1185
2018-05-16,11:25:42.841,-1116,-1442,-2114,-2187,-673,2157,2355,1238,436,117,70,401,838,1291,1741,2091,2332,2426,2418,2363,2245,2075,1902,1734,1541,1353,1221,1138,1070,1042,1010,955,834,673,389,-32,-699,-1603,-2482,-3131,-3537,-3747,-3714,-3503,-3311,-3021,-2783,-2606,-2480,-2433,-2263,-2169,-2024,-1720,-1446,-1244,-1012,-878,-783,-669,-506,-291,3,352,510,635,1263,3420,6192,5832,4275,3352,2827,2489,2439,2355,2194,2022,1816,1553,1319,1071,860,681,467,265,-113,-800,-1876,-3031,-3820,-4156,-4156,-3967,-3636,-3135,-2563,-1978,-1491,-1135,-930,-790,-664,-602,-671,-797,-1015,-1177,-1207,-1054,-732,-388,-83,164,364,808,1465,2106,2713,3235,3579,3725,3780,3746,3594,3410,3095,2254
2018-05-16,11:25:43.878,1769,2514,5025,5583,3825,2288,1167,289,-261,-721,-1305,-2039,-2872,-3627,-4118,-4367,-4409,-4294,-4062,-3783,-3477,-3259,-3135,-3083,-2974,-2756,-2455,-2150,-1864,-1693,-1545,-1371,-1227,-1086,-874,-546,-136,335,853,1392,1934,2385,2752,3043,3236,3295,3308,3245,2984,2830,2797,2711,2620,2448,2264,2022,1798,1573,1399,1223,835,-240,-1486,-1814,130,776,-714,-2001,-2776,-3157,-3068,-2714,-2376,-2146,-1993,-1912,-1921,-1971,-2096,-2267,-2459,-2528,-2475,-2277,-1943,-1549,-1077,-480,128,761,1443,2128,2686,3223,3620,3801,3866,3856,3725,3479,3211,2959,2756,2533,2304,2095,1872,1628,1370,1138,801,347,-19,-644,-1495,-2317,-3084,-3632,-3879,-3879,-3681,-3375,-3015,-3045,-3212,-2730,-553,2107
2018-05-16,11:25:44.915,1654,68,-971,-1600,-1967,-2047,-1992,-1937,-1744,-1444,-1044,-568,-23,601,1180,1650,2085,2387,2560,2683,2713,2707,2697,2612,2499,2382,2294,2234,2142,2083,1968,1822,1672,1535,1427,1301,980,249,-707,-1498,-2076,-2451,-2664,-2742,-2874,-2956,-2916,-2855,-2724,-2407,-2117,-1910,-1760,-1696,-1621,-1554,-1517,-1583,-1539,-828,1778,4448,4100,2980,2383,2144,2112,2248,2322,2266,2132,1982,1775,1567,1400,1283,1146,995,837,708,551,436,341,301,328,270,113,-322,-816,-1282,-1647,-1889,-1965,-1968,-1862,-1773,-1794,-1724,-1550,-1323,-1100,-956,-965,-1125,-1356,-1671,-2029,-2030,-1862,-1639,-1272,-830,-339,194,669,1035,1305,1502,1373,818,791,2002,4932,5392,3787,2363,1493,875
2018-05-16,11:25:45.953,591,406,264,130,-32,-184,-351,-625,-1102,-1832,-2822,-3766,-4510,-5018,-5219,-5200,-5004,-4649,-4248,-3917,-3672,-3384,-2953,-2460,-1932,-1471,-1138,-889,-697,-516,-228,210,664,1026,1335,1752,2134,2415,2704,2846,2722,2622,2644,2688,2724,2755,2701,2575,2425,2265,2152,2045,1843,1261,852,1232,3820,4964,3404,1587,167,-1177,-2147,-2698,-3062,-3266,-3293,-3173,-2975,-2807,-2713,-2650,-2588,-2565,-2536,-2515,-2465,-2463,-2469,-2387,-2215,-2014,-1612,-1042,-291,620,1596,2564,3361,3944,4267,4393,4341,4174,3974,3761,3555,3309,3093,2867,2630,2420,2144,1744,1623,1612,1522,1432,1180,558,-606,-1821,-2683,-3156,-3414,-3772,-4248,-4001,-2042,1043,1132,-409,-1584,-2271,-2672,-2782,-2849,-3000
2018-05-16,11:25:46.990,-3138,-3222,-3182,-2943,-2466,-1730,-1046,-491,59,588,1165,1659,2082,2435,2702,2802,2747,2649,2587,2607,2656,2691,2788,2854,2787,2544,2259,1977,1684,1383,1036,601,0,-852,-1790,-2574,-3177,-3651,-3732,-3510,-3262,-3023,-2707,-2388,-2177,-2059,-2019,-1979,-1905,-1962,-2416,-2308,-1006,1561,1967,508,-727,-1430,-1806,-1695,-1303,-779,-135,517,1138,1733,2291,2722,3005,3103,3028,2831,2587,2366,2172,1977,1831,1702,1611,1488,1381,1323,1219,1052,645,-289,-1399,-2119,-2526,-2783,-2846,-2750,-2525,-2199,-1838,-1592,-1447,-1239,-1071,-1130,-1172,-1163,-1297,-1405,-1340,-1227,-983,-639,-160,324,826,1263,1259,1484,2446,5176,7129,6180,4585,3582,2872,2515,2338,2113,1927,1715,1502,1294
2018-05-16,11:25:48.027,1069,843,657,483,313,63,-210,-575,-1226,-2209,-3252,-4073,-4561,-4773,-4679,-4344,-3851,-3324,-2848,-2487,-2239,-2004,-1777,-1616,-1469,-1377,-1354,-1423,-1511,-1642,-1685,-1594,-1348,-944,-548,117,1056,1970,2786,3600,4207,4540,4640,4554,4364,4125,3827,3212,2436,2171,3952,5926,4802,3187,2003,1148,549,165,-248,-1014,-2268,-3403,-4050,-4305,-4351,-4324,-4136,-3822,-3457,-3088,-2741,-2489,-2257,-2043,-1879,-1737,-1688,-1661,-1609,-1492,-1280,-938,-523,-152,126,377,776,1225,1646,2153,2650,3049,3347,3525,3579,3551,3455,3175,2835,2706,2638,2503,2413,2281,2090,1849,1620,1362,1122,826,139,-827,-1409,-510,327,-1086,-2793,-4055,-4767,-4917,-4643,-4322,-4007,-3754,-3694,-3614,-3477,-3261
2018-05-16,11:25:49.064,-3034,-2807,-2624,-2506,-2449,-2412,-2358,-2242,-2042,-1709,-1193,-524,215,963,1712,2399,2969,3448,3793,4004,4103,4096,3978,3812,3663,3492,3252,3027,2776,2515,2283,2049,1748,1352,1117,626,-420,-1385,-2111,-2669,-3071,-3296,-3294,-3111,-2852,-2855,-3210,-3008,-1058,2127,1863,78,-1283,-2170,-2780,-2915,-2870,-2642,-2253,-1717,-1110,-570,-31,540,1119,1653,2061,2374,2608,2740,2802,2807,2778,2764,2718,2685,2622,2574,2514,2442,2369,2203,2036,1784,1465,1106,579,-304,-1388,-2350,-3200,-3777,-4083,-4162,-4036,-3784,-3634,-3416,-3043,-2712,-2360,-2023,-1791,-1665,-1661,-1671,-1665,-1616,-1557,-1764,-1724,-1017,1673,4063,3768,2979,2827,2898,3168,3464,3600,3600,3468,3253,3003,2745,2478,2242
2018-05-16,11:25:50.101,1957,1609,1318,1076,841,633,484,333,-15,-891,-1958,-2700,-3072,-3235,-3256,-3183,-3073,-2864,-2605,-2390,-2167,-1894,-1608,-1342,-1119,-974,-985,-1118,-1206,-1162,-1076,-908,-503,-64,316,773,1267,1826,2400,2963,3436,3737,3762,3408,2675,2494,3773,6133,5930,4294,2930,1989,1211,781,462,154,-137,-528,-1201,-2065,-2986,-3860,-4554,-4977,-5128,-5076,-4916,-4640,-4241,-3861,-3515,-3213,-2900,-2582,-2204,-1874,-1644,-1436,-1325,-1285,-1241,-1185,-1050,-813,-504,-69,511,1228,1937,2584,3162,3612,3903,3920,3795,3758,3701,3567,3474,3323,3086,2851,2564,2298,2051,1812,1446,668,158,842,2769,1779,-722,-2573,-3700,-4407,-4520,-4359,-4134,-3813,-3474,-3253,-3021,-2750,-2564,-2491,-2571,-2814
2018-05-16,11:25:51.139,-3069,-3184,-3220,-3004,-2519,-1845,-1078,-337,409,1239,2077,2832,3466,3950,4283,4458,4403,4206,4000,3816,3648,3473,3342,3182,3021,2767,2456,2162,1799,1409,1217,1009,528,-269,-1357,-2471,-3413,-4062,-4397,-4461,-4293,-4250,-4307,-3703,-1640,891,641,-833,-1811,-2283,-2398,-2418,-2342,-2295,-2225,-2123,-1918,-1531,-986,-318,449,1242,2015,2726,3323,3741,3967,4062,4098,4033,3920,3819,3705,3598,3493,3312,3051,2753,2472,2200,1883,1575,1258,785,-145,-1327,-2268,-2833,-3156,-3319,-3402,-3356,-3023,-2602,-2230,-1926,-1761,-1653,-1537,-1480,-1512,-1601,-1825,-2382,-3053,-2884,-954,1920,2101,1091,318,0,46,419,937,1506,2003,2360,2545,2592,2547,2437,2266,2076,1888,1678,1486,1260
2018-05-16,11:25:52.176,1008,793,638,547,411,212,-60,-464,-1133,-1987,-2809,-3445,-3855,-4076,-4115,-4039,-3806,-3450,-3142,-2942,-2800,-2704,-2587,-2373,-2187,-2116,-1892,-1633,-1465,-1254,-1051,-844,-642,-372,11,513,1102,1453,1472,1999,3685,6765,7239,5582,4201,3449,2922,2725,2588,2358,2069,1820,1546,1267,1039,775,520,244,-157,-779,-1729,-2818,-3607,-3944,-3992,-3947,-3769,-3441,-2997,-2532,-2095,-1711,-1427,-1107,-822,-641,-584,-572,-632,-713,-754,-671,-414,-56,254,572,897,1106,1424,1902,2357,2755,3084,3244,3263,3229,3110,2922,2739,2576,2129,1544,1349,3074,5079,4359,2934,1956,1198,658,209,-440,-1346,-2405,-3379,-4154,-4638,-4846,-4813,-4582,-4262,-4011,-3801,-3561,-3257,-2874,-2484,-2140
2018-05-16,11:25:53.213,-1883,-1697,-1519,-1332,-1122,-851,-480,-43,484,1126,1878,2657,3389,3995,4451,4720,4812,4780,4625,4409,4150,3721,3262,3027,2805,2560,2362,2129,1847,1497,1049,487,-250,-1322,-2834,-4057,-4107,-2011,-14,-801,-2073,-2869,-3267,-3394,-3214,-2984,-2805,-2633,-2444,-2319,-2318,-2448,-2620,-2628,-2360,-1914,-1403,-898,-329,258,860,1561,2324,3006,3572,3977,4188,4220,4120,3906,3666,3448,3190,2891,2605,2354,2115,1794,1444,1109,735,306,-266,-1298,-2566,-3433,-3950,-4249,-4296,-4137,-3835,-3452,-3077,-2785,-2564,-2476,-2739,-3088,-2569,-426,1928,1161,-423,-1601,-2256,-2482,-2280,-1924,-1473,-893,-202,497,1111,1571,1870,2103,2338,2541,2639,2672,2673,2639,2572,2519,2462,2325,2214,2116
2018-05-16,11:25:54.250,1980,1796,1618,1361,973,366,-515,-1607,-2589,-3213,-3486,-3533,-3521,-3384,-3144,-2932,-2681,-2558,-2462,-2153,-1855,-1732,-1639,-1691,-1787,-1768,-1645,-1353,-921,-427,-276,-334,186,2334,5308,5293,3919,2986,2488,2274,2347,2415,2439,2360,2199,2057,1877,1676,1520,1377,1211,1048,830,600,343,19,-498,-1266,-2158,-2997,-3684,-4133,-4345,-4355,-4140,-3818,-3549,-3326,-3128,-2905,-2627,-2348,-2077,-1872,-1723,-1602,-1540,-1409,-1235,-1184,-1047,-578,69,762,1593,2341,2915,3334,3613,3839,4051,4157,3902,3380,3384,5013,7232,6441,4668,3284,2309,1549,1182,765,280,-277,-940,-1754,-2601,-3297,-3670,-3833,-3907,-3892,-3790,-3605,-3434,-3284,-3063,-2766,-2409,-2055,-1799,-1647,-1461,-1271,-1047,-707
2018-05-16,11:25:55.287,-291,91,443,748,1090,1453,1901,2376,2801,3147,3385,3612,3722,3567,3482,3476,3438,3350,3227,3031,2800,2531,2201,1884,1545,1037,-17,-687,-437,1010,516,-1500,-3194,-4348,-4937,-4970,-4716,-4372,-4035,-3816,-3719,-3636,-3520,-3374,-3181,-3064,-2987,-2938,-2904,-2808,-2600,-2245,-1722,-1025,-173,739,1675,2581,3359,3910,4317,4578,4668,4640,4547,4361,4143,3908,3664,3428,3160,2870,2603,2391,2111,1664,1466,1383,1149,700,-176,-1187,-1987,-2609,-3070,-3318,-3395,-3494,-3742,-3492,-1665,1307,1407,-207,-1478,-2172,-2510,-2605,-2710,-2835,-2857,-2673,-2290,-1743,-1176,-644,-102,431,912,1349,1717,2071,2337,2501,2580,2635,2683,2710,2718,2748,2805,2818,2743,2521,2249,1953,1711,1476
2018-05-16,11:25:56.325,1179,674,-27,-903,-1859,-2743,-3439,-3908,-4191,-4073,-3675,-3235,-2807,-2441,-2231,-2114,-1999,-1848,-1687,-1555,-1570,-1958,-2068,-1409,1222,2777,1705,485,-104,-251,107,702,1232,1669,2061,2352,2555,2678,2677,2591,2446,2228,1954,1675,1446,1285,1156,1099,1123,1136,1087,952,690,202,-605,-1535,-2206,-2549,-2710,-2792,-2758,-2568,-2300,-2077,-1972,-1959,-1935,-1869,-1820,-1853,-1812,-1805,-1783,-1610,-1341,-1018,-681,-337,-4,322,625,722,527,992,2940,5830,6022,4611,3370,2561,1999,1788,1664,1554,1446,1314,1153,1013,844,662,476,249,-36,-523,-1242,-2093,-2909,-3478,-3785,-3864,-3751,-3468,-3016,-2557,-2182,-1936,-1791,-1654,-1550,-1421,-1281,-1207,-1143,-1058,-977,-830,-631,-491
2018-05-16,11:25:57.362,-278,28,303,823,1515,2138,2668,3053,3316,3520,3663,3706,3659,3562,3270,2511,2018,2508,4892,5466,3895,2447,1603,919,624,412,-23,-945,-2234,-3374,-4146,-4567,-4682,-4673,-4493,-4226,-3927,-3686,-3475,-3208,-2905,-2558,-2248,-2036,-1942,-1997,-2007,-1913,-1792,-1456,-892,-230,418,1075,1628,2168,2795,3384,3803,4001,3969,3909,3834,3490,3145,3040,3009,2979,2904,2755,2536,2317,2165,1951,1715,1402,648,-77,-397,711,630,-1267,-2858,-3694,-4286,-4304,-3882,-3559,-3333,-2963,-2650,-2531,-2568,-2662,-2935,-3279,-3525,-3668,-3466,-3286,-2941,-2356,-1671,-932,38,891,1721,2824,3704,4097,4419,4706,4762,4767,4760,4817,5162,5642,5173,4613,4248,3894,3455,3034,2673,2384,2329,2064
2018-05-16,11:25:58.399,1572,940,164,-671,-1289,-1646,-1769,-1925,-1859,-1638,-1567,-1505,-1384,-1335,-1438,-1666,-1990,-2363,-2645,-2772,-2731,-2558,-2112,-1584,-953,-191,640,1275,1671,1994,2248,2372,2542,2756,2921,2876,2677,2402,2054,1981,1628,1369,1298,1207,1097,864,593,226,-248,-565,-1043,-1737,-2676,-3415,-3599,-2039,-577,-1238,-2149,-2578,-2713,-2764,-2636,-2603,-2644,-2667,-2918,-3149,-3418,-3578,-3429,-3056,-2317,-1504,-610,342,1122,1833,2353,2636,2812,2924,2995,3016,2950,2880,2813,2633,2313,2018,1689,1381,1118,915,829,757,708,557,490,361,281,-11,-743,-1360,-2004,-2524,-2663,-2585,-2382,-2358,-2191,-2233,-2103,-1868,-1908,-2552,-3093,-2382,42,607,-593,-1440,-1562,-1590,-1181,-504,187,775
2018-05-16,11:25:59.436,1181,1419,1517,1570,1632,1591,1450,1226,1055,915,692,591,538,506,510,578,633,686,590,665,532,376,146,-131,-422,-854,-1149,-1387,-1556,-1500,-1518,-1393,-1060,-906,-993,-997,-896,-897,-823,-710,-724,-851,-1044,-1220,-1350,-1313,-1133,-972,-1092,-638,923,3656,3819,2507,1456,794,385,284,277,223,152,81,-29,-94,-140,-139,-92,-110,-150,-206,-295,-297,-252,-293,-268,-407,-640,-779,-1064,-1192,-1141,-1274,-1190,-1004,-1049,-988,-1079,-1189,-1226,-1340,-1571,-1832,-2013,-2085,-1984,-1917,-1681,-1104,-401,320,1082,1648,2022,2221,2240,2239,2208,2107,1745,1325,1341,3070,4612,3696,2180,1219,639,288,199,113,25,-32,-73,-136,-312,-408,-516,-758
2018-05-16,11:26:00.473,-1106,-1688,-2255,-2442,-2309,-2101,-1897,-1631,-1404,-1149,-797,-498,-411,-529,-825,-1275,-1713,-2003,-2002,-1744,-1211,-504,391,1315,2184,2822,3023,2877,2764,2731,2764,2940,3061,2877,2555,2193,1942,1697,1493,1196,538,-217,-241,1382,3123,2197,718,-466,-1473,-2409,-2934,-3094,-3090,-2962,-2717,-2501,-2331,-2115,-1873,-1538,-1243,-1146,-1339,-1760,-2209,-2535,-2585,-2299,-1778,-1095,-387,358,1091,1702,2112,2376,2470,2352,2191,2013,1857,1767,1617,1473,1357,1275,1234,1044,846,790,741,673,604,464,361,184,-75,-466,-1039,-2019,-3444,-4236,-3649,-1087,-130,-1070,-2008,-2650,-2986,-2844,-2464,-2176,-2073,-2104,-2201,-2361,-2519,-2653,-2617,-2422,-2121,-1709,-1233,-654,-48,481,1063,1611
2018-05-16,11:26:01.511,1978,2179,2255,2294,2321,2363,2346,2271,2155,2046,1876,1686,1507,1340,1172,1028,933,809,649,222,-126,-496,-1155,-1822,-2160,-2385,-2435,-2232,-1963,-1691,-1490,-1625,-2003,-1647,457,3329,2944,1038,-341,-1127,-1552,-1549,-1284,-869,-365,152,655,1130,1537,1781,2026,2151,2065,1886,1689,1464,1304,1222,1210,1245,1310,1377,1463,1575,1637,1648,1585,1447,1287,1068,745,151,-693,-1563,-2264,-2688,-2814,-2710,-2628,-2352,-1944,-1678,-1460,-1192,-973,-849,-760,-721,-739,-761,-881,-1401,-1511,-605,2039,3720,2929,2091,1944,2032,2284,2549,2694,2651,2506,2328,2141,1959,1794,1600,1346,1031,735,512,317,210,128,43,-76,-241,-590,-1294,-2060,-2446,-2578,-2633,-2591,-2483
2018-05-16,11:26:02.548,-2278,-2090,-2027,-1954,-1824,-1715,-1683,-1730,-1855,-2248,-2575,-2457,-2096,-1611,-950,-365,126,644,1234,1761,2117,2200,1745,1643,2359,4948,6215,4708,3111,2059,1362,1088,1042,1025,990,908,747,531,330,146,-46,-375,-981,-1988,-3105,-3918,-4357,-4516,-4396,-4117,-3674,-3244,-2787,-2311,-1753,-1256,-909,-708,-671,-780,-883,-980,-975,-870,-627,-273,172,743,1343,1761,2158,2522,2814,2992,3178,3309,3432,3512,3557,3511,3406,3048,2114,1642,2391,4744,4963,3438,1936,837,-298,-1518,-3054,-4431,-5179,-5384,-5292,-5117,-4769,-4279,-3788,-3372,-3021,-2702,-2352,-2036,-1795,-1648,-1534,-1513,-1554,-1524,-1310,-817,-118,617,1297,1845,2254,2666,3052,3314,3422,3431,3411,3366,3198,3039
2018-05-16,11:26:03.585,2881,2525,2402,2444,2423,2393,2348,2193,2029,1880,1704,1427,1038,303,-864,-1769,-1170,380,-381,-2061,-3320,-3983,-4100,-3820,-3502,-3254,-3079,-2885,-2693,-2502,-2356,-2217,-2152,-2168,-2187,-2141,-2023,-1835,-1543,-1132,-595,56,834,1614,2332,2956,3446,3794,3969,3966,3840,3645,3429,3207,2939,2663,2309,1973,1694,1418,1048,697,505,186,-319,-1031,-1932,-2680,-3224,-3554,-3687,-3693,-3726,-4128,-4108,-2894,337,1796,435,-935,-1845,-2469,-2668,-2713,-2726,-2625,-2376,-2003,-1546,-1029,-556,-200,205,685,1178,1595,1992,2315,2578,2871,3126,3290,3414,3451,3475,3461,3380,3251,3069,2859,2628,2352,2098,1802,1444,1035,396,-629,-1990,-3208,-4165,-4835,-5000,-4840,-4467,-3921,-3381,-2986
2018-05-16,11:26:04.622,-2630,-2236,-1883,-1596,-1454,-1768,-2176,-1954,2,2223,1482,-99,-866,-1009,-664,57,797,1397,1789,2117,2404,2592,2715,2745,2681,2543,2370,2198,2000,1805,1588,1461,1391,1344,1277,1232,1165,818,30,-1097,-2104,-2802,-3209,-3333,-3248,-2953,-2556,-2091,-1603,-1231,-1022,-767,-612,-568,-457,-436,-634,-898,-1168,-1348,-1374,-1194,-731,-93,567,886,1208,2094,4787,7208,6481,4903,3883,3233,2853,2704,2510,2284,2078,1862,1664,1454,1276,1062,805,533,158,-321,-962,-1790,-2685,-3402,-3841,-4026,-3924,-3621,-3140,-2563,-1998,-1546,-1301,-1228,-1230,-1265,-1291,-1284,-1274,-1289,-1308,-1293,-1256,-1115,-944,-837,-459,88,693,1372,2039,2522,2864,3069,3157,3188,3091,2618,1858,1744
2018-05-16,11:26:05.659,3458,5690,4861,3206,1877,952,357,109,-86,-351,-727,-1328,-2246,-3259,-4018,-4481,-4799,-4932,-4898,-4706,-4431,-4137,-3905,-3591,-3240,-2861,-2518,-2261,-2149,-2090,-1955,-1753,-1467,-1093,-552,176,1014,1794,2453,3046,3551,3953,4181,4302,4278,4026,3731,3625,3590,3558,3551,3437,3275,3071,2853,2596,2383,1981,1065,330,125,1304,1267,-887,-3062,-4412,-5159,-5255,-4906,-4461,-4037,-3642,-3290,-3001,-2746,-2570,-2377,-2290,-2323,-2359,-2445,-2479,-2323,-1951,-1416,-781,-48,810,1764,2612,3222,3616,3780,3830,3823,3759,3669,3523,3359,3229,3091,2918,2691,2444,2226,2032,1643,1426,1348,1111,560,-527,-1865,-2885,-3501,-3770,-3757,-3633,-3584,-3743,-3342,-1617,1579,2001,437,-791,-1514,-2078
2018-05-16,11:26:06.697,-2433,-2736,-2923,-2892,-2609,-2125,-1500,-818,-198,349,871,1392,1884,2264,2543,2769,2963,3067,3089,3114,3071,3079,3105,3093,3022,2879,2705,2538,2315,1974,1592,1118,420,-593,-1927,-3107,-3873,-4265,-4544,-4506,-4072,-3541,-3041,-2562,-2218,-1926,-1730,-1607,-1567,-1614,-1865,-2564,-2792,-1869,918,2256,1229,227,-106,35,635,1397,2029,2495,2812,2998,3045,2965,2809,2557,2228,1884,1546,1217,931,732,611,588,610,577,448,218,-353,-1285,-2214,-2910,-3370,-3586,-3619,-3526,-3302,-3006,-2768,-2512,-2231,-1965,-1761,-1677,-1899,-2226,-2265,-2189,-1985,-1483,-891,-216,448,1024,1558,2076,2468,2419,2435,3006,5355,6930,5515,3675,2579,1847,1461,1342,1250,1159,1112,1085,1032,973
2018-05-16,11:26:07.734,890,759,584,363,-171,-1275,-2558,-3615,-4331,-4691,-4754,-4572,-4168,-3574,-2951,-2464,-2077,-1742,-1480,-1274,-1092,-959,-998,-1053,-1056,-1015,-933,-772,-547,-204,251,666,1264,2053,2712,3199,3574,3793,3905,3915,3890,3837,3745,3552,2917,2291,2336,4626,6038,4710,3209,2279,1455,921,519,-361,-1876,-3347,-4321,-4920,-5205,-5184,-4973,-4609,-4171,-3711,-3341,-2963,-2459,-1953,-1519,-1209,-1058,-1134,-1312,-1361,-1170,-858,-455,-32,289,654,1076,1574,2091,2627,3091,3372,3453,3457,3418,3210,2902,2814,2776,2731,2771,2769,2760,2675,2463,2245,1977,1610,821,-48,-545,415,1243,-312,-2106,-3370,-4056,-4142,-3801,-3429,-3239,-3108,-3020,-2906,-2746,-2639,-2584,-2607,-2647,-2655,-2597,-2418
2018-05-16,11:26:08.771,-2087,-1615,-958,-152,799,1785,2697,3403,3969,4316,4450,4414,4216,3933,3609,3282,2946,2571,2179,1856,1547,1276,1041,750,269,-61,-430,-1119,-1971,-2701,-3251,-3620,-3830,-3886,-3763,-3500,-3541,-3937,-3611,-1479,1447,1279,-409,-1901,-2941,-3584,-3626,-3405,-3088,-2619,-1908,-1072,-253,443,1040,1744,2311,2612,2760,2831,2799,2694,2592,2549,2527,2552,2636,2704,2765,2781,2774,2651,2478,2289,2050,1664,1093,111,-1246,-2501,-3433,-4045,-4288,-4245,-4096,-3750,-3156,-2631,-2248,-1822,-1499,-1272,-1132,-1061,-1060,-1170,-1469,-2092,-2393,-1923,804,3066,2222,1077,882,1040,1438,1907,2234,2420,2570,2691,2742,2697,2579,2425,2265,2074,1820,1554,1346,1148,1027,1000,959,849,582,99
2018-05-16,11:26:09.808,-816,-1918,-2796,-3361,-3654,-3701,-3592,-3321,-2952,-2616,-2273,-1994,-1682,-1395,-1098,-963,-1131,-1367,-1527,-1615,-1553,-1180,-713,-195,288,743,1161,1601,1977,1936,2258,3490,6351,7281,5871,4389,3391,2710,2392,2178,1935,1695,1479,1259,1063,912,667,342,-108,-715,-1514,-2491,-3484,-4220,-4667,-4863,-4782,-4534,-4165,-3636,-3095,-2631,-2328,-2189,-2114,-1991,-1844,-1733,-1576,-1509,-1526,-1532,-1545,-1478,-1266,-936,-606,-6,788,1531,2248,2785,3144,3418,3647,3851,3995,4003,3581,2855,2734,4318,6401,5678,3976,2562,1557,833,487,237,-97,-539,-1206,-2243,-3224,-3906,-4313,-4482,-4476,-4349,-4118,-3819,-3500,-3202,-2912,-2555,-2184,-1809,-1602,-1590,-1636,-1620,-1499,-1218,-812,-268,281,727
2018-05-16,11:26:20.695,-2138,-291,3201,4513,3596,2632,2094,1788,1814,1968,2039,2017,1930,1853,1731,1569,1388,1196,1032,830,590,358,114,-126,-280,-401,-557,-716,-998,-1474,-2053,-2594,-2914,-3079,-3124,-3020,-2857,-2635,-2369,-2148,-2031,-1939,-1848,-1763,-1630,-1571,-1646,-1700,-1711,-1763,-1641,-1360,-884,-199,670,1682,2703,3479,3688,3661,4175,6280,8551,7752,5847,4499,3589,2990,2710,2440,2128,1818,1523,1236,953,658,326,-6,-443,-1119,-2312,-3776,-4807,-5097,-4910,-4563,-4059,-3428,-2660,-1884,-1270,-844,-507,-297,-236,-333,-539,-890,-1297,-1578,-1634,-1493,-1088,-435,340,889,1356,2038,2587,2930,3195,3340,3445,3615,3732,3636,3447,3228,2649,2016,2298,4414,6046,4719,3052,1868,1036,504
2018-05-16,11:26:21.733,251,-32,-442,-1087,-2041,-3091,-3879,-4347,-4591,-4640,-4611,-4467,-4260,-4095,-3948,-3785,-3545,-3203,-2845,-2450,-2088,-1807,-1602,-1450,-1291,-1078,-814,-425,59,698,1517,2327,3063,3669,4073,4296,4335,4077,3888,3731,3519,3344,3123,2846,2577,2288,2001,1772,1549,1019,226,28,1512,3542,2181,-423,-2659,-4035,-4679,-4796,-4650,-4330,-3892,-3401,-2947,-2630,-2450,-2375,-2329,-2299,-2342,-2440,-2568,-2701,-2679,-2431,-2025,-1439,-755,-108,598,1328,2010,2517,2815,2958,3082,3194,3286,3307,3179,3041,2863,2656,2446,2341,2184,1895,1784,1832,1781,1683,1570,1399,1194,924,542,-289,-1710,-3320,-4704,-5152,-3626,-1160,-1260,-2613,-3607,-4166,-4256,-3933,-3538,-3155,-2816,-2595,-2486,-2474,-2447,-2388
2018-05-16,11:26:22.644,-2248,-1998,-1643,-1116,-441,409,1333,2207,2959,3626,4110,4405,4575,4615,4556,4403,4173,3871,3527,3150,2738,2413,2129,1861,1584,1324,1081,807,415,-458,-1832,-3302,-4200,-4453,-4399,-4237,-3972,-3618,-3208,-2826,-2547,-2585,-2916,-2760,-1033,2194,2055,60,-1312,-2066,-2440,-2172,-1580,-765,-105,436,979,1486,1912,2239,2388,2382,2301,2208,2131,2082,2018,1936,1857,1824,1862,1927,1981,2016,2062,2034,1914,1795,1634,1321,872,89,-1090,-2209,-3138,-3759,-4066,-4116,-3933,-3663,-3336,-2784,-2326,-2033,-1670,-1335,-1073,-870,-748,-781,-939,-1223,-1790,-2263,-1896,566,3188,2946,2139,2074,2456,3102,3833,4226,4289,4120,3799,3434,3081,2747,2385,1998,1604,1181,788,445,192,-37
2018-05-16,11:26:23.681,-245,-459,-724,-1067,-1561,-2247,-2866,-3098,-3048,-2917,-2725,-2480,-2198,-1885,-1685,-1585,-1603,-1670,-1750,-1888,-1967,-2049,-2300,-2306,-2088,-1803,-1262,-511,272,847,1365,1853,2361,2791,2849,2638,3036,4933,7387,6944,5239,3846,2830,2069,1703,1465,1216,996,719,449,231,-7,-277,-596,-1176,-2333,-3650,-4633,-5219,-5456,-5404,-5048,-4495,-3878,-3326,-2816,-2287,-1798,-1404,-1169,-1149,-1360,-1692,-1992,-2122,-1995,-1686,-1223,-553,351,1373,2432,3366,3901,4239,4508,4581,4500,4318,4030,3712,3333,2943,2598,2207,1633,715,324,1169,3900,4114,2221,587,-746,-2400,-3834,-4822,-5325,-5476,-5504,-5370,-5097,-4728,-4352,-4078,-3850,-3586,-3356,-3206,-3103,-3032,-2925,-2775,-2558,-2188,-1611,-784,261
2018-05-16,11:26:24.718,1298,2093,2828,3497,4015,4387,4484,4459,4335,4234,3990,3658,3332,3050,2819,2642,2395,2092,2012,2085,2143,2139,1990,1752,1435,999,321,-666,-1971,-3499,-4662,-4733,-2717,-246,-503,-1749,-2476,-2737,-2593,-2181,-1736,-1369,-1101,-922,-857,-851,-915,-1035,-1120,-1202,-1243,-1274,-1242,-1198,-1081,-895,-760,-744,-749,-783,-800,-818,-699,-523,-334,-122,215,553,874,1165,1368,1495,1598,1687,1681,1540,1370,1386,1200,1110,1333,1542,1724,1881,1899,1812,1645,1424,1154,878,302,-680,-1201,-609,-376,-3702,-6668,-6761,-6058,-5599,-4779,-3876,-2808,-1511,-193,1010,2051,2778,3246,3515,3641,3571,3410,3131,2898,2739,2381,2148,1995,1643,1418,1206,937,465,95,-231,-699,-1091
2018-05-16,11:26:25.756,-1026,-934,-539,-143,165,462,696,855,808,566,111,-873,-2244,-3547,-4585,-5055,-4757,-4122,-3567,-2978,-2238,-1496,-741,-82,68,-360,-25,2045,5073,4536,2708,1428,742,481,746,1102,1379,1499,1573,1914,1979,2085,1989,1956,1861,1633,1378,1235,1172,960,886,943,1040,1251,1441,1604,650,-1951,-3803,-4438,-4331,-4265,-3885,-3218,-2802,-2380,-1890,-1492,-1163,-938,-910,-876,-736,-602,-723,-512,-62,429,892,1288,1586,1884,2396,2959,3092,3307,3059,2607,3282,5656,7374,5984,4159,2730,1614,896,660,469,122,-1626,-4083,-5264,-5867,-6485,-6575,-5884,-5197,-4590,-3918,-3397,-2853,-2366,-1758,-929,-253,417,904,1205,1620,1785,1790,1999,2667,3684,4226,4485,4735,4658
2018-05-16,11:26:26.793,4627,4516,4237,3817,3357,2946,2562,1934,1428,1075,793,680,583,318,-837,-4301,-7767,-8829,-7670,-6693,-6519,-5384,-2867,715,1540,288,-954,-1728,-2124,-2008,-1642,-1245,-814,-677,-521,-107,317,659,1081,1445,1613,1746,1735,1699,1757,1672,1508,1651,1721,1876,1967,1824,1844,1740,1581,1407,1238,1026,867,204,-1457,-2993,-4727,-6049,-6268,-5537,-4852,-4305,-3752,-3313,-2908,-2366,-1757,-1413,-1145,-1025,-822,-443,-93,448,812,1037,950,740,1386,4269,7810,7683,6197,5119,4206,3542,3307,3075,2700,2346,1982,1599,1223,1011,760,310,-899,-4348,-7039,-7860,-7611,-6768,-5808,-4723,-3663,-2843,-2162,-1554,-983,-548,-294,-155,-123,-227,-355,-275,-41,445,992,1735,2616,3358
2018-05-16,11:26:27.830,3854,4159,4292,4170,4048,3976,3779,3510,3810,3788,3438,3061,2724,2351,1950,1660,914,-594,-2522,-2766,-1607,-3252,-5197,-6086,-6181,-5926,-5292,-4607,-4019,-3488,-3092,-2882,-2554,-2480,-2430,-2389,-2411,-2318,-2094,-1735,-1366,-1014,-251,517,988,1892,2446,2941,3360,3485,3357,3405,3454,3231,2936,2574,2284,2009,1685,529,-2605,-5676,-6308,-4925,-3370,-2305,-1261,-191,560,755,848,911,890,752,753,669,500,428,-4,-315,568,3366,5710,5255,4328,3589,2983,2677,2512,2284,2561,2485,2346,2145,1659,1326,1169,647,387,417,357,217,-151,-1751,-3711,-5143,-6555,-6756,-6290,-5596,-4652,-3506,-2459,-1609,-1185,-1193,-918,-528,-535,-798,-868,-742,-606,-450,-446,-302,627,1105
2018-05-16,11:26:28.867,1636,2372,3143,3821,4200,4417,4441,4243,4171,4084,3732,3081,2029,1533,2339,3918,1087,-3244,-5180,-5010,-4525,-3917,-2902,-2133,-1769,-1468,-1350,-1376,-1318,-1140,-1109,-1148,-1212,-1281,-1050,-610,-176,287,793,1494,2142,2478,2703,2825,3376,3466,3305,3051,2948,2766,2590,2379,2210,1968,1776,1808,1713,1632,1282,-629,-2707,-4565,-5997,-6467,-5927,-5153,-4334,-3461,-2594,-1998,-1603,-1191,-495,-21,-66,102,1011,3967,5813,4373,2671,1446,625,918,1067,1139,1583,1724,1577,1542,1630,1611,1477,1357,1320,1067,692,352,-243,-2644,-6296,-7593,-5971,-4840,-3829,-2378,-1456,-942,-628,-322,98,521,748,791,637,156,285,687,821,836,996,1121,990,1406,2020,2026,1896,2155
2018-05-16,11:26:29.904,2175,2103,1953,1877,1770,1690,1136,330,-30,710,3034,4994,4251,2663,-192,-3352,-5236,-6126,-6204,-5705,-4988,-4197,-3423,-2849,-2546,-2135,-1846,-2170,-2224,-2059,-1923,-1661,-1378,-1081,-814,-62,960,1766,2317,2934,3078,3125,3205,3090,2818,2736,2806,2584,2392,2202,1929,1845,1718,1615,1326,-1447,-4480,-4801,-4072,-3878,-3387,-2775,-2239,-1525,-765,-154,213,332,5,-539,-185,1102,3783,5130,3780,2125,1282,767,392,465,610,465,193,136,133,257,224,232,78,-28,-27,23,-118,-142,73,164,266,-149,-1563,-2536,-3452,-4553,-4469,-3774,-3239,-2667,-1981,-1364,-1027,-797,-648,-74,190,-25,-521,-953,-1173,-1304,-1371,-1125,-579,-276,284,1071,1528,1460,1457,1959
2018-05-16,11:26:30.942,2113,2092,1472,1049,2250,5431,7223,5464,3471,1909,572,-2246,-4882,-4930,-4177,-4356,-4198,-3516,-2843,-2428,-2056,-1797,-1602,-1569,-1753,-1992,-1976,-1743,-1554,-1242,-667,12,429,739,1239,1711,2055,2279,2302,2191,2233,2320,2344,2290,2168,1937,2186,2155,1929,2170,2139,1924,2003,736,-1175,-3037,-4339,-4984,-5368,-5223,-4773,-4322,-4004,-4364,-4780,-3558,-257,2491,1740,168,-988,-1709,-2002,-1910,-1891,-1464,-1041,-510,-78,65,33,55,225,403,508,678,978,1290,1458,1642,1884,2266,2622,2005,-366,-1927,-2329,-2076,-1269,-172,544,980,1443,1700,1645,1511,1502,1820,2127,2279,2461,2556,2483,2785,3095,3180,3367,3701,4129,4413,4530,4724,4771,4505,4749,4696,4860,6681
2018-05-16,11:26:31.979,8798,7730,4967,2088,-374,-2204,-3096,-3440,-3852,-4637,-5290,-5255,-4627,-4039,-3394,-3144,-3071,-2837,-2330,-1856,-1871,-2041,-2342,-2764,-3041,-3056,-2769,-2410,-1908,-1310,-703,-252,225,669,901,1093,1387,1770,2504,3085,3246,3320,3259,3047,2767,2672,2620,2260,1587,1362,1306,-137,-1717,-2347,-3228,-3782,-4015,-4169,-3529,-1271,1384,1318,-394,-2106,-3013,-2853,-2457,-2185,-1880,-1686,-1486,-1104,-750,-606,-79,296,592,657,491,927,1132,1008,1125,1271,1054,1018,1361,1778,2144,2348,1534,-562,-2366,-3568,-4312,-4483,-4559,-4059,-3513,-3127,-2709,-2478,-2474,-2503,-2131,-1441,-892,-527,-354,-132,156,383,532,607,850,1315,1477,981,522,627,3293,6370,5765,4450,3054,2069,1671,1688
2018-05-16,11:26:33.016,1733,1617,1557,1630,1761,281,-2866,-4323,-4003,-3363,-3498,-3479,-3110,-2679,-2084,-1480,-1019,-815,-599,-476,-284,-33,222,322,626,570,196,285,557,795,1359,1901,1934,2137,2247,1997,1952,1870,1832,1747,1583,1645,1914,2095,2195,1844,10,-2137,-3755,-4849,-5681,-5031,-1864,1169,908,-380,-1248,-1651,-1605,-1497,-1477,-1339,-1103,-1077,-974,-837,-529,-109,253,704,1144,1283,1702,2103,2161,2263,2368,2487,2669,2829,3173,3505,3681,3875,3876,3918,3700,1547,-1466,-2638,-2519,-2547,-2773,-2622,-2255,-1968,-1825,-1316,-952,-974,-1657,-1899,-1541,-2051,-2267,-2076,-1431,-684,-420,-633,145,2555,5452,5506,3699,2554,1698,1114,1095,1320,1539,1406,1321,1476,1622,1464,1178,187
2018-05-16,11:26:34.053,-2018,-3801,-5248,-5934,-6059,-5863,-5317,-4357,-3435,-2513,-1830,-1179,-687,-410,83,642,785,814,969,1128,1403,1764,2027,2186,2235,2637,2838,3148,3011,2829,2876,3004,2946,2789,2869,2768,2528,2412,2331,2345,2761,2768,1519,1303,1482,-153,-2000,-3295,-3907,-3663,-3179,-2523,-1495,-386,-176,-404,-1246,-2025,-2241,-2307,-2195,-2046,-1842,-1603,-1210,-562,104,578,1044,1799,2023,2142,2315,2864,3262,3069,2959,2868,2882,2963,2831,2518,1574,-517,-2550,-4443,-5550,-5370,-4610,-3840,-3191,-2526,-1873,-1388,-1035,-617,-308,-485,-807,-1483,-1302,865,4425,4272,2356,1035,416,-10,-164,28,310,525,716,764,799,801,792,760,664,750,1190,1812,1322,-900,-3704,-5092,-5026,-3941
