2018-05-17,13:29:43.170,-265,-239,-236,-212,-183,-169,-163,-140,-138,-142,-130,-127,-139,-120,-117,-138,-107,-81,-93,-88,-54,-39,-37,29,468,1077,1143,-685,-2865,-2652,-1238,-214,362,551,567,587,598,582,576,562,547,562,549,544,569,574,576,603,611,577,512,427,320,238,188,122,76,32,1,-39,-65,-69,-49,-32,-22,-10,0,17,28,11,30,56,56,48,40,46,59,54,28,27,9,-30,-36,9,-9,-69,-82,-46,-22,-5,268,880,1292,251,-2617,-3423,-1852,-455,332,522,515,526,544,553,540,509,496,509,494,463,458,462,479,510,517,484,421,318,214,119,49,-12,-68,-127,-189,-224,-241,-236
2018-05-17,13:29:44.619,-251,-240,-204,-194,-196,-162,-168,-163,-131,-123,-105,-87,-91,-79,-65,-49,-42,-74,-101,-118,-142,-127,-92,-101,-103,-83,-72,-79,21,497,1143,1278,-986,-3613,-2949,-1236,-64,418,486,462,473,464,432,417,386,374,361,339,328,324,333,353,336,312,267,232,183,77,-34,-117,-185,-246,-295,-350,-401,-413,-429,-435,-372,-333,-341,-339,-315,-298,-285,-260,-269,-267,-244,-239,-242,-222,-196,-207,-220,-223,-241,-250,-185,-153,-193,-193,-168,-175,-174,-28,473,1070,1065,-1295,-3702,-2805,-1143,-56,390,449,470,506,499,464,442,428,413,404,403,394,418,416,412,419,412,376,322,241,158,80,16,-75
2018-05-17,13:29:45.656,-125,-182,-221,-251,-268,-268,-253,-241,-229,-211,-210,-181,-159,-148,-164,-173,-180,-181,-191,-212,-199,-182,-158,-177,-191,-226,-251,-229,-183,-178,-214,-206,-173,-145,-111,145,742,1177,390,-2072,-3077,-1878,-684,99,453,515,515,521,519,511,517,494,530,520,480,479,479,471,481,488,450,377,281,204,109,34,-32,-58,-81,-67,-98,-163,-184,-181,-153,-152,-121,-64,-62,-91,-78,-18,-69,-62,-8,-45,-61,-32,-32,-47,-63,-98,-132,-157,-128,-105,-97,-132,-143,-143,-80,-61,52,578,1216,1064,-1550,-3523,-2525,-1000,0,434,473,461,442,446,468,422,427,450,399,392,417,446,423,418,432,409
2018-05-17,13:29:46.693,372,297,187,73,-22,-94,-155,-213,-265,-299,-332,-357,-352,-365,-378,-363,-374,-361,-347,-353,-336,-325,-308,-274,-270,-244,-248,-248,-225,-198,-211,-210,-210,-212,-168,-126,-126,-135,-121,-88,-59,28,445,1049,1172,-738,-3036,-2600,-1102,-39,475,547,536,549,572,580,558,531,521,498,516,541,520,530,529,522,509,458,377,288,203,112,43,16,9,-22,-25,-35,-50,-35,-29,-32,-40,-6,46,46,14,35,74,99,88,79,84,118,165,168,133,125,77,67,37,58,93,88,62,78,72,66,73,333,874,1254,316,-2058,-2876,-1664,-542,195,492,525,505,507,497,494,473,446,445,422
2018-05-17,13:29:47.731,422,420,415,394,400,378,346,300,207,107,29,-56,-150,-199,-218,-243,-289,-325,-337,-322,-320,-310,-302,-302,-289,-264,-258,-246,-231,-196,-181,-170,-161,-143,-128,-122,-129,-148,-183,-209,-167,-101,-98,-109,-99,-80,-53,-3,269,862,1231,317,-2122,-2833,-1563,-480,202,494,531,515,513,530,539,499,470,477,462,443,433,438,423,423,414,362,310,205,64,5,-81,-184,-206,-201,-227,-247,-256,-254,-250,-231,-192,-172,-187,-175,-160,-155,-145,-153,-106,-141,-166,-143,-118,-125,-128,-131,-175,-190,-201,-219,-194,-191,-196,-200,-196,-171,-149,-1,524,1104,926,-1303,-3189,-2478,-1178,-268,230,312,320,340
2018-05-17,13:29:48.768,329,313,306,317,330,289,284,294,300,299,308,315,295,262,213,129,41,-37,-104,-142,-153,-168,-184,-183,-198,-213,-212,-191,-155,-135,-135,-111,-79,-68,-55,-45,-34,-30,-37,-34,-25,-12,-9,-8,-22,-26,-38,-48,-17,7,-15,-20,5,14,28,137,624,1264,1436,-546,-3001,-2617,-1193,-197,351,493,493,502,507,506,496,474,443,428,438,438,439,440,453,459,440,414,353,279,183,72,0,-61,-113,-165,-195,-204,-212,-229,-224,-219,-183,-176,-189,-161,-130,-140,-132,-110,-98,-81,-79,-95,-86,-79,-66,-75,-89,-83,-107,-135,-115,-69,-54,-71,-81,-53,-35,-5,315,981,1443,479
2018-05-17,13:29:49.805,-2373,-3115,-1669,-538,133,417,456,462,465,464,455,434,418,400,389,394,387,363,395,421,418,393,361,301,179,76,-33,-109,-158,-208,-233,-261,-272,-270,-291,-283,-259,-239,-211,-184,-161,-151,-134,-99,-112,-121,-111,-104,-98,-76,-58,-67,-65,-86,-80,-113,-133,-90,-69,-84,-67,-39,-21,-10,140,689,1315,1316,-895,-3290,-2671,-1125,-121,352,452,480,492,484,477,473,458,429,419,430,428,423,439,455,455,454,434,380,279,177,62,-39,-101,-139,-196,-227,-248,-293,-322,-300,-284,-254,-218,-191,-161,-122,-96,-90,-68,-44,-46,-48,-39,-41,-17,-4,-22,-46,-66,-78,-95,-72,-40,-54
2018-05-17,13:29:50.842,-65,-49,-42,-24,39,485,1221,1593,-60,-3166,-3249,-1550,-303,304,436,452,475,477,468,464,449,427,417,417,423,426,439,465,464,470,455,413,338,247,162,73,12,-33,-89,-125,-167,-179,-194,-193,-169,-146,-119,-82,-47,-24,-18,-4,15,37,37,32,32,35,38,66,63,57,49,37,29,18,27,57,53,45,68,77,63,92,412,1108,1636,662,-2574,-3374,-1789,-493,246,467,475,486,476,455,436,425,413,380,358,367,374,369,381,378,350,332,288,194,124,39,-61,-141,-219,-267,-296,-338,-391,-422,-418,-401,-384,-390,-377,-362,-340,-338,-351,-363,-331,-330,-336,-344,-364,-342
2018-05-17,13:29:51.879,-326,-315,-301,-317,-349,-361,-390,-402,-350,-331,-341,-319,-305,-285,-279,-167,303,940,1041,-818,-3165,-2892,-1462,-492,71,219,208,236,276,256,260,259,232,222,240,244,261,274,286,291,285,259,205,133,47,-47,-122,-174,-200,-221,-251,-262,-267,-267,-257,-221,-193,-165,-125,-97,-94,-73,-57,-41,-29,-44,-33,-27,-23,-17,0,23,20,-5,7,23,4,10,47,36,34,67,90,99,143,514,1199,1641,567,-2326,-3117,-1632,-343,418,650,649,661,668,649,644,638,631,597,580,573,570,590,605,605,601,588,533,461,372,298,218,143,89,42,-8,-47,-99,-115,-108,-91,-75,-63,-42
2018-05-17,13:29:52.916,-37,-28,-19,-3,1,6,5,-6,-15,-5,10,27,39,54,43,14,-14,-24,6,34,16,2,2,16,25,58,398,1088,1612,559,-2678,-3405,-1788,-430,286,484,497,519,547,532,501,465,447,446,436,434,456,468,472,483,490,457,401,315,232,140,74,6,-57,-115,-179,-231,-251,-256,-259,-241,-222,-201,-189,-169,-165,-152,-131,-116,-126,-132,-127,-128,-124,-132,-124,-97,-75,-74,-98,-103,-122,-150,-110,-83,-109,-115,-112,-96,-88,-1,456,1125,1426,-431,-3370,-3091,-1410,-292,244,363,373,382,379,358,336,323,291,281,274,264,250,230,228,245,252,212,170,123,72,-11,-114,-172
2018-05-17,13:29:53.954,-215,-259,-317,-353,-379,-381,-366,-355,-335,-315,-287,-260,-231,-237,-233,-209,-211,-198,-187,-176,-151,-146,-116,-109,-75,-58,-86,-82,-105,-99,-41,-24,-44,-41,-23,16,20,205,772,1312,921,-1471,-3054,-2094,-772,98,479,566,577,569,550,533,539,524,515,512,504,510,497,518,501,505,516,456,400,356,268,215,157,90,48,6,-29,-61,-66,-62,-62,-57,-60,-39,-31,-38,-50,-43,-27,-20,2,-6,5,0,0,-7,4,11,13,12,16,-33,-47,0,33,9,10,23,31,45,260,868,1346,805,-1575,-2989,-1998,-752,68,464,536,540,547,548,536,516,492,478,466,458,458,445
2018-05-17,13:29:54.991,444,444,446,425,378,310,254,158,62,-9,-70,-109,-142,-208,-259,-263,-286,-287,-266,-245,-231,-216,-206,-209,-215,-214,-198,-194,-208,-198,-173,-142,-148,-142,-140,-174,-197,-207,-184,-137,-104,-129,-135,-110,-98,-79,108,735,1393,1160,-1702,-3692,-2409,-854,110,443,475,495,520,521,517,504,475,455,436,428,442,454,454,448,453,442,392,346,268,153,54,-11,-60,-125,-188,-232,-275,-297,-307,-311,-293,-267,-260,-255,-240,-212,-201,-209,-215,-217,-224,-226,-213,-201,-196,-186,-193,-232,-239,-259,-252,-199,-197,-232,-237,-220,-200,-179,43,642,1268,860,-2074,-3741,-2372,-864,22,299,317,335,326,319
2018-05-17,13:29:56.028,313,293,284,289,309,304,298,303,322,339,333,324,299,234,148,83,7,-48,-116,-193,-244,-292,-306,-303,-312,-302,-288,-261,-226,-207,-185,-193,-181,-166,-156,-139,-107,-117,-127,-98,-60,-61,-101,-113,-94,-131,-116,-70,-80,-94,-78,-73,-60,-39,265,869,1347,489,-2299,-3199,-1802,-535,226,437,461,507,504,507,487,444,434,451,465,454,454,463,459,458,469,492,455,384,252,172,110,36,-16,-69,-138,-187,-205,-218,-218,-228,-242,-212,-175,-163,-151,-164,-156,-104,-93,-128,-125,-98,-106,-106,-86,-85,-112,-128,-137,-152,-113,-88,-115,-105,-104,-92,-81,-10,446,1036,1126,-638,-2912,-2730
2018-05-17,13:29:57.065,-1269,-350,206,399,422,434,434,431,424,424,436,429,429,431,418,422,440,449,442,435,377,277,188,95,16,-41,-78,-114,-138,-163,-200,-201,-180,-155,-129,-109,-89,-96,-110,-99,-93,-82,-68,-55,-61,-65,-69,-45,-34,-64,-75,-104,-120,-105,-58,-64,-68,-64,-61,-46,54,512,1175,1405,-643,-3349,-2934,-1266,-127,386,467,455,463,450,437,420,406,401,390,392,380,381,396,405,422,413,371,312,228,142,50,-50,-114,-170,-212,-255,-300,-322,-306,-311,-290,-275,-266,-245,-217,-201,-188,-160,-136,-132,-138,-141,-129,-102,-90,-93,-105,-119,-133,-155,-136,-107,-118,-124,-113,-98,-84,-9
2018-05-17,13:29:58.102,442,1128,1474,-611,-3434,-2935,-1268,-150,345,424,447,461,475,485,464,442,426,419,409,406,434,436,454,479,474,449,391,331,260,168,87,31,-8,-49,-99,-136,-149,-157,-141,-120,-112,-93,-73,-57,-48,-36,-17,-18,-25,-28,-19,-19,-24,-19,-13,-39,-70,-84,-111,-109,-86,-98,-109,-109,-111,-116,-79,151,727,1299,596,-2424,-3557,-2013,-647,103,313,321,337,343,333,317,289,262,242,258,249,230,242,246,244,263,239,190,137,38,-37,-96,-165,-227,-238,-284,-327,-335,-346,-349,-311,-306,-299,-271,-233,-218,-205,-176,-169,-167,-182,-178,-157,-136,-124,-105,-92,-86,-87,-82,-77,-107
2018-05-17,13:29:59.140,-102,-64,-72,-69,-38,-7,-11,39,433,1060,1398,77,-2482,-2861,-1427,-372,283,535,558,567,582,579,567,542,551,558,544,548,575,565,564,586,597,586,548,477,377,283,200,148,110,79,38,-1,-43,-48,-40,-39,-39,-13,15,47,47,26,37,62,64,86,102,74,70,89,93,83,85,56,42,21,27,73,108,58,54,84,88,106,282,844,1446,1222,-1366,-3215,-2177,-771,112,512,571,562,553,550,545,542,527,523,536,539,525,522,521,547,559,549,492,412,319,215,102,18,-40,-95,-143,-194,-233,-277,-284,-257,-254,-230,-203,-190,-197,-188,-174,-161,-157,-150,-143,-147
2018-05-17,13:30:00.177,-157,-157,-151,-133,-110,-110,-129,-156,-154,-176,-169,-127,-127,-143,-129,-111,-106,-67,326,1049,1545,268,-3069,-3570,-1795,-439,255,403,388,402,426,407,393,361,347,340,328,317,337,354,342,355,373,361,338,270,201,100,-15,-97,-161,-218,-268,-327,-380,-419,-411,-404,-384,-343,-326,-317,-284,-253,-241,-248,-235,-215,-203,-198,-207,-209,-194,-176,-156,-147,-145,-152,-174,-176,-201,-192,-160,-162,-170,-162,-159,-161,-118,237,938,1487,388,-2814,-3552,-1885,-555,148,355,366,394,410,392,378,372,352,350,347,339,345,345,351,361,364,351,319,251,163,87,4,-72,-119,-176,-239,-264,-300,-337,-334
2018-05-17,13:30:01.214,-295,-265,-240,-237,-234,-206,-197,-192,-180,-167,-150,-144,-168,-184,-168,-157,-167,-170,-139,-115,-125,-120,-121,-124,-145,-149,-124,-126,-125,-94,-116,-103,-67,152,772,1370,904,-1791,-3394,-2243,-862,-9,360,404,431,454,417,411,411,404,410,410,382,400,416,387,389,403,399,351,289,217,148,56,-29,-103,-137,-174,-223,-250,-267,-270,-258,-225,-229,-223,-178,-157,-169,-165,-142,-127,-138,-154,-130,-120,-105,-109,-120,-119,-119,-112,-92,-84,-69,-88,-102,-132,-131,-78,-77,-93,-66,-51,-33,-7,292,950,1398,526,-2130,-3147,-1868,-643,117,437,481,483,500,514,518,492,484,479,475,493,498,509
2018-05-17,13:30:02.251,516,517,509,514,475,404,315,220,128,47,-15,-46,-79,-123,-142,-151,-170,-173,-141,-121,-102,-97,-92,-73,-62,-58,-55,-58,-66,-71,-65,-66,-76,-78,-59,-42,-33,-22,-11,-44,-69,-89,-96,-68,-61,-108,-110,-81,-60,-52,161,849,1465,1056,-1979,-3722,-2391,-865,43,342,373,381,394,396,375,360,343,324,308,306,315,316,329,346,357,349,310,256,183,93,0,-92,-160,-218,-281,-324,-346,-365,-374,-372,-352,-325,-307,-298,-279,-258,-245,-234,-203,-183,-170,-156,-143,-124,-137,-138,-122,-100,-87,-88,-111,-121,-128,-168,-164,-120,-140,-160,-133,-114,-100,-61,280,982,1517,469,-2829,-3550
2018-05-17,13:30:03.288,-1812,-488,243,434,434,454,451,452,438,432,429,415,410,411,402,400,400,415,439,426,380,318,244,165,85,6,-56,-97,-152,-193,-225,-244,-229,-198,-189,-159,-141,-128,-127,-112,-87,-63,-50,-54,-45,-29,-36,-26,-22,-15,-15,-19,2,-11,-47,-50,-80,-63,-5,-37,-58,-28,4,8,20,259,851,1380,862,-1770,-3228,-2043,-707,130,472,508,490,511,490,479,493,480,450,433,427,402,396,435,456,435,423,399,351,286,185,77,6,-44,-84,-119,-161,-210,-203,-193,-194,-199,-171,-152,-162,-137,-110,-107,-107,-112,-98,-96,-98,-107,-118,-118,-109,-89,-68,-74,-96,-96,-114,-141
2018-05-17,13:30:04.325,-113,-93,-110,-112,-106,-74,-59,42,529,1103,1118,-690,-2790,-2560,-1204,-259,289,464,495,505,494,495,484,468,449,433,437,434,432,451,468,463,463,439,386,307,230,148,71,11,-19,-59,-85,-116,-139,-149,-149,-128,-100,-92,-68,-50,-47,-42,-27,-13,-17,-28,-19,-22,-27,-16,-2,10,22,5,-23,-40,-58,-58,-24,-35,-64,-67,-42,-34,-25,338,1033,1470,154,-2878,-3311,-1706,-428,230,404,399,396,397,382,365,352,334,309,298,294,273,268,276,282,283,266,232,160,60,-16,-103,-174,-234,-289,-342,-381,-392,-411,-417,-407,-387,-371,-350,-327,-298,-267,-251,-242,-237,-227,-230
2018-05-17,13:30:05.363,-226,-206,-190,-154,-152,-159,-155,-145,-162,-145,-103,-83,-101,-84,-58,-35,-13,209,809,1406,951,-1997,-3516,-2077,-628,221,479,502,499,517,527,515,505,499,476,473,482,475,481,478,489,504,491,453,399,320,235,152,77,19,-32,-74,-114,-139,-169,-171,-156,-133,-103,-79,-74,-74,-48,-25,-16,-18,-18,-5,7,13,27,24,23,1,-26,-36,-34,-26,6,-5,-12,-5,20,28,58,360,968,1409,277,-2519,-3078,-1540,-311,327,487,490,502,521,489,472,458,430,429,423,411,416,410,426,429,415,413,356,268,180,72,-13,-75,-116,-166,-215,-252,-285,-311,-301,-290,-262,-260,-245
2018-05-17,13:30:06.400,-241,-227,-209,-228,-216,-201,-174,-176,-188,-196,-179,-163,-190,-202,-195,-206,-207,-176,-173,-174,-189,-164,-118,-59,297,867,1148,-173,-2631,-2895,-1485,-440,195,413,446,463,465,455,453,441,441,425,418,420,418,429,437,438,431,409,359,283,180,87,8,-68,-99,-119,-141,-163,-195,-219,-210,-201,-172,-146,-135,-117,-99,-97,-98,-79,-66,-67,-59,-50,-36,-39,-31,-65,-73,-86,-83,-48,-42,-53,-43,-23,-17,-19,127,651,1264,1139,-1310,-3371,-2425,-895,81,470,520,526,521,503,480,466,442,447,446,429,421,427,437,454,459,452,417,351,261,166,72,-20,-89,-129,-170,-209,-234,-233
2018-05-17,13:30:07.437,-246,-238,-219,-198,-182,-175,-152,-139,-127,-117,-113,-101,-102,-102,-107,-86,-71,-68,-90,-90,-105,-116,-81,-66,-91,-83,-81,-72,-54,127,696,1342,1123,-1757,-3628,-2355,-799,107,411,447,462,459,451,436,409,399,382,360,369,384,390,395,389,390,373,333,272,186,97,9,-70,-129,-180,-229,-265,-296,-331,-349,-326,-297,-289,-278,-249,-235,-223,-202,-197,-180,-170,-171,-162,-156,-152,-151,-149,-161,-171,-174,-186,-162,-131,-126,-136,-129,-122,-103,-46,310,965,1390,-120,-3220,-3216,-1496,-290,294,418,419,432,433,409,402,399,395,376,369,376,378,388,386,377,395,368,314,246,173,91,7
2018-05-17,13:30:08.474,-51,-103,-131,-165,-176,-219,-250,-246,-233,-212,-217,-208,-172,-151,-116,-97,-100,-96,-90,-96,-99,-105,-107,-76,-43,-42,-31,-47,-68,-98,-124,-100,-64,-89,-94,-66,-69,-54,92,597,1199,1179,-1090,-3188,-2450,-1023,-84,380,468,465,452,462,477,467,434,410,423,401,385,385,386,399,413,414,353,305,267,153,39,-37,-91,-130,-170,-217,-247,-263,-265,-252,-256,-244,-216,-192,-188,-178,-153,-134,-131,-142,-138,-129,-134,-137,-121,-117,-100,-85,-95,-113,-112,-153,-138,-77,-84,-108,-88,-81,-79,-41,302,938,1328,196,-2409,-3062,-1679,-523,159,432,463,465,462,445,437,444,436,428,433,438
2018-05-17,13:30:09.511,427,454,478,489,492,490,447,369,267,165,77,26,-14,-51,-72,-95,-112,-120,-126,-123,-106,-89,-71,-57,-42,-14,10,16,25,17,5,14,11,21,42,52,45,18,-16,-20,-46,-56,-32,-18,-46,-51,-49,-44,-14,247,926,1519,828,-2379,-3598,-2062,-659,128,361,360,366,374,361,357,328,298,289,299,298,278,278,298,295,306,280,228,161,81,-24,-120,-201,-275,-314,-341,-375,-402,-427,-440,-437,-434,-420,-399,-369,-329,-302,-283,-264,-258,-255,-241,-221,-224,-233,-237,-214,-191,-179,-186,-204,-189,-215,-223,-177,-146,-156,-153,-135,-123,-95,162,801,1425,924,-2153,-3630,-2126,-692,132
2018-05-17,13:30:10.549,395,417,445,454,440,431,433,427,413,395,401,401,416,429,433,442,437,403,347,262,189,110,29,-24,-69,-102,-139,-171,-197,-190,-156,-143,-129,-110,-101,-80,-71,-62,-48,-41,-43,-32,-15,-10,1,21,22,5,10,22,-4,-18,-28,-41,-26,16,-1,-28,-12,2,26,125,604,1261,1471,-533,-3140,-2776,-1186,-127,379,483,495,514,489,470,455,461,441,436,454,442,438,442,455,460,440,421,396,339,258,146,68,15,-22,-89,-153,-179,-184,-195,-221,-219,-201,-175,-163,-143,-138,-130,-122,-100,-90,-78,-66,-83,-88,-85,-89,-89,-82,-77,-97,-104,-102,-132,-120,-103,-113,-134
2018-05-17,13:30:11.586,-129,-91,-79,-82,160,774,1247,629,-1847,-3085,-1954,-770,-13,354,445,446,450,461,447,431,432,429,416,398,394,405,409,423,429,426,390,336,256,144,54,-9,-49,-91,-118,-133,-153,-178,-177,-159,-148,-145,-137,-126,-107,-98,-83,-91,-89,-67,-68,-68,-56,-52,-44,-44,-44,-22,-7,-32,-45,-58,-81,-79,-55,-50,-65,-64,-47,-43,11,449,1182,1570,-72,-3180,-3232,-1562,-332,295,433,440,449,445,425,404,391,388,369,365,374,371,372,381,410,405,384,342,282,195,103,0,-72,-138,-194,-241,-282,-298,-313,-316,-323,-310,-287,-268,-239,-218,-207,-184,-175,-161,-154,-143,-133,-131
2018-05-17,13:30:27.907,521,454,361,260,132,0,-103,-188,-231,-258,-292,-265,-299,-276,-271,-233,-201,-162,-97,-59,-12,14,5,3,-1,-4,9,34,60,53,51,28,37,21,30,68,26,14,19,19,15,20,244,787,1271,1043,-1290,-3070,-2090,-964,-285,66,217,181,170,179,125,97,83,24,-20,-76,-147,-210,-226,-236,-176,-130,-103,-70,-50,-76,-119,-156,-159,-190,-182,-177,-143,-100,-91,-85,-65,-31,12,58,92,121,159,188,188,194,188,192,188,212,741,946,815,687,588,484,385,363,347,336,291,288,270,223,220,342,855,1395,1235,-520,-2491,-2282,-1128,-317,193,369,424,437,385,401,428,413
2018-05-17,13:30:28.395,394,361,341,323,247,245,305,280,276,277,265,190,168,71,-73,-122,-154,-201,-262,-235,-211,-239,-222,-211,-247,-238,-218,-162,-111,-130,-105,-99,-107,-112,-127,-140,-135,-138,-146,-188,-236,-279,-334,-315,-290,-302,-305,-244,-314,-343,-337,-226,291,950,1102,-647,-3182,-3097,-1766,-916,-335,-65,15,82,179,275,332,374,410,433,420,413,420,449,430,425,365,330,248,194,107,52,-39,-110,-120,-138,-111,-96,-97,-112,-143,-153,-173,-184,-194,-201,-200,-180,-173,-181,-199,-175,-135,-135,-120,-123,-89,-15,-2,-34,-15,-45,-82,-32,0,-15,-8,44,96,140,204,498,1157,1569,983,-1530,-3062,-1954
2018-05-17,13:30:29.432,-660,87,357,413,429,464,460,387,458,486,426,381,410,452,470,484,477,472,464,419,356,281,192,104,-35,-111,-144,-168,-164,-167,-201,-226,-222,-218,-229,-240,-242,-254,-251,-229,-207,-213,-212,-195,-180,-239,-279,-255,-248,-282,-327,-440,-488,-551,-569,-490,-429,-375,-286,-176,-90,-25,56,424,1078,1431,584,-2048,-2931,-1655,-570,70,329,380,418,435,420,436,469,479,465,457,446,424,412,390,372,335,284,209,119,95,-40,-165,-248,-290,-246,-217,-245,-221,-189,-186,-175,-142,-85,-71,-82,-83,-78,-69,-37,28,57,65,101,119,138,158,151,97,31,-48,-11,-6,-46,20,70,84
2018-05-17,13:30:30.469,145,126,85,88,140,519,1132,1322,145,-2165,-2668,-1465,-525,137,434,464,493,472,445,403,383,336,322,348,300,285,283,264,288,295,266,239,164,78,2,-81,-194,-272,-304,-290,-287,-294,-283,-277,-299,-314,-300,-351,-395,-404,-399,-509,-539,-512,-483,-454,-409,-340,-286,-248,-130,-124,-159,-177,-168,-138,-103,-83,-13,29,41,21,48,88,128,502,1135,1403,543,-1993,-2801,-1607,-582,101,363,405,388,460,411,369,372,344,365,397,402,405,395,434,443,452,431,399,330,273,204,125,48,1,-24,-52,-49,-41,-60,-95,-149,-209,-229,-199,-216,-203,-140,-146,-111,-53,42,16,-37,-11
2018-05-17,13:30:31.507,30,27,4,-2,9,-10,37,37,24,62,84,54,46,63,60,42,125,521,1102,1368,398,-2088,-2745,-1515,-587,5,249,312,256,264,284,259,221,218,219,201,222,177,164,181,128,92,49,-12,-75,-150,-228,-270,-290,-280,-223,-159,-106,-63,-36,-53,-39,-59,-82,-69,-32,-9,33,68,93,90,106,90,106,127,75,48,5,-30,-63,-115,-149,-226,-243,-144,-198,-175,-163,-158,-83,-42,69,601,1130,911,-990,-2784,-2332,-1191,-436,102,342,374,397,399,393,384,379,386,385,373,320,245,206,183,173,215,171,95,79,45,-24,-95,-168,-265,-279,-192,-156,-145,-164,-183,-170,-216
2018-05-17,13:30:32.544,-178,-122,-107,-142,-96,-120,-73,-82,-69,-59,-63,-1,38,64,68,47,42,22,-29,-17,58,25,-56,-42,-65,-82,-86,-18,484,1019,921,-1175,-3496,-3002,-1663,-734,-203,-8,114,241,328,378,402,420,428,420,411,419,413,412,386,432,414,373,345,312,270,163,83,37,-10,-49,-49,-34,-14,-111,-144,-151,-194,-193,-183,-123,-115,-89,-33,-75,-54,-51,-7,-62,46,48,20,-27,-48,-70,-85,-52,17,68,100,133,164,219,251,276,555,1121,1381,571,-1928,-2777,-1583,-623,-22,358,455,399,386,466,440,400,383,388,417,403,411,451,459,456,444,405,354,332,264,164,67,-41
2018-05-17,13:30:33.581,-154,-230,-154,-134,-167,-142,-138,-146,-148,-163,-177,-195,-156,-172,-166,-198,-250,-210,-203,-255,-268,-286,-332,-402,-476,-616,-734,-811,-792,-806,-799,-677,-543,-380,-186,22,623,1318,1428,-29,-2052,-1975,-797,4,541,774,769,758,735,708,693,576,593,583,497,444,439,411,367,322,313,317,239,212,165,43,-91,-74,-61,-115,-120,-129,-118,-125,-181,-192,-163,-163,-164,-147,-91,-83,-81,-16,45,70,88,98,120,145,67,-29,-55,-165,-199,-156,-153,-179,-148,-62,-66,-37,88,581,1204,1359,-235,-2654,-2574,-1232,-326,200,405,433,444,482,526,492,482,468,451,455,481,463,466,495,483,391
2018-05-17,13:30:34.618,370,299,211,126,8,-108,-137,-223,-283,-279,-327,-338,-321,-333,-358,-379,-369,-354,-362,-371,-346,-362,-406,-404,-412,-427,-402,-368,-380,-343,-314,-291,-253,-185,-98,-58,-80,-110,-49,-82,-82,112,670,1169,993,-963,-2747,-2077,-873,-73,315,445,436,385,379,388,335,287,271,243,274,260,256,314,343,386,376,347,282,220,140,62,-22,-112,-103,-80,-87,-46,11,60,100,112,139,154,113,62,50,53,33,10,22,47,42,35,99,126,148,176,65,60,94,113,115,107,39,-47,-30,86,605,1188,1345,-139,-2419,-2523,-1271,-419,120,382,423,428,374,304,291,283,230,187,167,163
2018-05-17,13:30:35.655,177,148,182,180,164,186,158,46,-39,-144,-263,-377,-480,-520,-555,-575,-574,-606,-612,-550,-484,-402,-357,-280,-224,-141,-57,-6,14,-15,-9,7,-14,-27,-14,-48,-62,-70,-28,25,73,29,17,5,10,259,853,1258,832,-1386,-2751,-1867,-886,-169,287,420,453,457,437,495,518,442,437,418,413,426,393,391,454,517,546,552,529,467,315,182,55,-17,-74,-114,-143,-162,-151,-144,-141,-123,-77,-56,-1,23,27,26,8,-24,25,40,-66,-42,-36,-35,-34,-88,-119,-93,-51,-24,-99,-36,-64,-55,167,749,1241,1201,-828,-2930,-2377,-1130,-314,126,254,266,292,262,244,234,241,235
2018-05-17,13:30:36.692,180,187,182,204,205,189,152,114,70,-13,-109,-213,-336,-392,-434,-474,-453,-410,-432,-370,-284,-376,-383,-343,-280,-267,-273,-262,-209,-223,-182,-119,-77,-46,26,43,-16,-13,-27,-60,-67,-72,-74,-81,-84,-80,-63,108,680,1167,966,-1248,-2995,-2119,-883,-90,349,500,493,470,467,459,470,469,489,536,604,658,685,683,683,698,674,592,547,374,257,94,-58,-94,-93,-95,-62,-24,-7,-44,47,75,-25,-15,45,-19,-42,-58,-61,-83,-83,-96,-43,-66,-102,-75,-139,-132,-102,-81,-92,-126,-108,-111,-100,-38,391,982,1205,-130,-2493,-2742,-1470,-616,-57,233,260,237,253,236,206,185
2018-05-17,13:30:37.730,129,66,7,-36,-47,-64,-71,-60,-52,-8,22,-20,-44,-56,-89,-170,-194,-181,-212,-190,-193,-199,-220,-212,-154,-96,-109,-87,-34,-11,-21,8,45,57,37,29,-1,-36,-70,-108,-65,-43,-83,-111,-97,-84,-34,72,521,1159,1326,-71,-2347,-2626,-1415,-603,22,340,445,526,593,647,671,681,648,653,606,530,426,441,438,370,402,454,414,354,307,210,121,40,-32,-76,-134,-191,-131,-208,-236,-214,-190,-181,-173,-132,-105,-125,-146,-101,-61,-36,-15,-55,-93,-136,-187,-207,-178,-141,-161,-172,-143,-138,-137,-49,460,1106,1216,-411,-2980,-2908,-1514,-616,-50,106,68,18,5,-11,-37,-53
2018-05-17,13:30:38.767,-28,0,30,71,132,199,248,283,290,266,226,144,59,-34,-130,-204,-220,-176,-83,-55,-52,-46,-24,-24,-20,-11,12,17,-34,-12,-10,-14,-41,-22,-28,-33,-50,-58,-38,-42,-21,-9,-10,-20,11,66,89,233,859,1402,1179,-1025,-3020,-2175,-814,91,604,749,760,738,700,659,637,601,523,459,451,467,416,472,468,466,466,480,379,262,178,74,-40,-123,-195,-216,-167,-179,-204,-191,-179,-168,-166,-121,-99,-135,-100,-56,-75,-92,-107,-124,-134,-176,-221,-264,-303,-283,-245,-237,-252,-237,-228,-200,-85,398,983,1006,-880,-3033,-2688,-1495,-749,-263,-76,-76,-72,-32,21,114,208,261
2018-05-17,13:30:39.804,311,341,404,451,480,511,525,544,533,483,401,370,246,114,43,6,21,22,-9,-62,-64,-55,-58,-70,-74,-68,-79,-48,-67,-92,-39,-44,-66,-65,-67,-51,-3,36,71,18,-79,-119,-126,-93,-6,270,1009,1565,1162,-1233,-2895,-2009,-828,-79,342,466,473,460,485,518,498,520,536,503,485,490,485,501,478,451,388,356,363,183,86,-43,-161,-236,-324,-314,-268,-289,-313,-275,-271,-288,-271,-234,-256,-216,-218,-218,-198,-186,-173,-186,-184,-221,-203,-252,-286,-242,-241,-252,-310,-349,-381,-387,-67,627,1067,333,-2410,-3497,-2098,-875,-118,224,284,315,326,307,292,265,246,227,260,349
2018-05-17,13:30:40.841,287,312,371,420,435,425,451,380,283,190,59,-46,-99,-109,-177,-195,-170,-165,-176,-160,-107,-64,-56,9,83,84,66,98,135,151,160,123,109,102,79,80,122,184,221,286,344,409,495,900,1515,1672,365,-2247,-2574,-1174,-192,412,623,650,642,628,634,589,555,514,469,438,446,384,360,384,399,368,361,344,298,224,112,-10,-39,-118,-164,-208,-229,-232,-284,-286,-285,-323,-324,-305,-311,-265,-269,-284,-263,-205,-217,-268,-329,-354,-403,-399,-385,-441,-493,-522,-536,-589,-590,-285,363,741,58,-2302,-3229,-2030,-981,-247,171,334,404,434,437,437,469,447,432,484,502,442,408,411
2018-05-17,13:30:41.878,423,446,409,372,303,185,62,-16,-107,-206,-229,-252,-252,-210,-225,-229,-182,-125,-54,-56,-94,-109,-100,-55,-48,-32,-21,-25,-31,2,39,95,142,191,196,132,94,82,40,111,536,1113,1415,316,-2353,-2818,-1411,-438,237,504,525,590,562,498,470,431,395,385,300,277,325,290,284,245,242,227,183,141,63,-55,-144,-231,-291,-328,-357,-351,-366,-404,-414,-396,-408,-387,-344,-320,-311,-307,-328,-349,-310,-272,-283,-350,-436,-470,-554,-527,-477,-525,-534,-503,-471,-435,-297,293,999,1223,-390,-2756,-2537,-1224,-348,159,342,408,416,469,494,503,520,538,521,543,538,513,481,445,433,389
2018-05-17,13:30:42.916,348,282,178,86,13,-66,-143,-86,-72,-74,-42,-49,-27,-1,20,9,56,76,99,86,35,10,47,89,151,220,234,221,199,127,118,109,115,173,126,80,70,165,508,1120,1502,713,-1796,-2782,-1575,-599,88,410,475,473,444,397,427,427,419,369,397,372,349,344,359,324,290,274,254,197,113,22,-92,-204,-284,-325,-358,-363,-335,-343,-336,-318,-264,-282,-346,-347,-294,-316,-338,-380,-433,-476,-506,-533,-563,-584,-580,-536,-484,-368,-280,-212,-142,-79,22,515,1163,1389,80,-2329,-2553,-1304,-455,156,462,535,558,522,533,508,489,465,434,417,424,379,362,384,377,346,349,292
2018-05-17,13:30:43.953,242,154,34,-19,-64,-23,-81,-98,-87,-126,-160,-121,-113,-107,-76,-52,12,72,117,163,198,236,243,247,202,148,164,72,15,55,54,19,17,44,89,157,448,1088,1570,1028,-1620,-3015,-1811,-665,18,334,373,402,462,464,425,401,369,339,314,287,286,302,311,311,274,246,185,111,11,-97,-190,-306,-373,-384,-385,-391,-411,-436,-431,-451,-481,-443,-460,-463,-490,-543,-588,-589,-596,-584,-580,-546,-486,-416,-389,-345,-253,-180,-165,-128,-80,-67,-53,50,545,1170,1315,-251,-2554,-2334,-1049,-134,419,620,688,691,636,615,572,533,505,472,429,408,397,364,391,414,385,399,377,278
2018-05-17,13:30:44.990,242,176,89,17,-7,-2,39,24,-1,-23,10,43,84,141,173,188,215,254,240,201,189,100,95,63,-22,-48,-43,-32,20,22,60,61,41,34,55,208,812,1325,1029,-1171,-2954,-2226,-1076,-369,94,255,258,365,320,271,298,239,198,221,203,152,157,139,134,131,157,136,62,-19,-79,-145,-240,-347,-408,-401,-419,-465,-455,-432,-464,-485,-466,-486,-513,-507,-509,-489,-503,-451,-400,-347,-307,-284,-251,-241,-238,-171,-77,-31,13,14,19,36,139,600,1215,1430,194,-2251,-2548,-1295,-440,243,540,558,550,519,478,453,445,417,431,444,415,415,397,395,367,435,450,357,292,248
2018-05-17,13:30:46.027,225,89,1,-58,-29,-38,-18,13,73,138,222,275,233,290,326,275,222,170,156,116,86,64,69,27,0,-5,-7,18,58,61,39,83,57,18,152,618,1208,1367,-268,-2805,-2762,-1431,-510,101,263,294,332,304,327,311,244,215,259,239,196,168,140,149,147,154,120,49,4,-71,-176,-279,-350,-405,-445,-460,-449,-481,-562,-574,-585,-639,-654,-650,-635,-618,-589,-554,-510,-413,-375,-318,-260,-238,-166,-159,-199,-152,-98,-70,-76,-36,16,49,227,779,1359,1336,-519,-2768,-2285,-1029,-155,341,446,430,468,430,388,381,363,373,412,393,352,368,381,347,408,450,393,339,248,176
2018-05-17,13:30:47.064,88,-11,-48,-35,22,90,145,183,202,213,248,277,238,165,115,108,77,62,66,56,109,146,60,26,0,0,-16,-1,1,3,-13,-54,-86,-75,115,646,1157,994,-1065,-2852,-2274,-1119,-321,172,328,351,341,318,302,289,238,202,187,173,143,128,182,155,153,112,88,42,-38,-171,-247,-356,-452,-476,-500,-530,-571,-518,-532,-560,-539,-531,-501,-444,-379,-360,-301,-222,-151,-47,12,67,77,56,62,36,27,78,143,152,156,166,176,269,508,1167,1606,1139,-1537,-3053,-1920,-682,84,395,496,515,589,631,625,579,553,527,492,491,516,494,483,496,519,418,306,214,96,0
2018-05-17,13:30:48.101,-53,-83,-86,-46,-9,5,-13,2,47,33,14,5,-26,-35,-73,-45,-37,-32,-26,-48,-49,-38,-49,-66,-68,-96,-118,-142,-162,-126,-44,-74,-121,-49,309,913,1251,359,-2093,-2827,-1677,-673,-57,231,261,259,264,265,238,196,177,174,173,159,154,149,127,111,92,60,14,-67,-154,-278,-424,-576,-668,-719,-748,-736,-692,-658,-570,-513,-466,-373,-258,-221,-194,-117,-67,-67,-30,5,2,41,66,53,84,124,172,226,251,211,172,207,242,340,817,1337,1252,-611,-2491,-2071,-960,-200,300,500,512,519,525,566,523,499,531,519,501,462,463,426,427,399,393,376,368,304,219,150
2018-05-17,13:30:49.139,74,34,37,66,64,10,-14,-33,-30,-1,-2,37,78,93,101,76,89,76,70,44,-5,-123,-151,-93,-97,-110,-113,-141,-134,-120,-134,-154,33,649,1152,992,-1016,-2804,-2264,-1187,-444,46,207,211,188,178,174,157,130,139,107,125,124,73,53,34,73,34,-44,-140,-261,-361,-480,-558,-643,-666,-586,-506,-504,-423,-341,-288,-220,-157,-120,-104,-93,-77,-75,-70,-42,13,16,45,58,82,79,74,111,130,121,107,91,82,89,207,746,1278,1163,-795,-2768,-2280,-1056,-231,302,499,521,538,609,635,615,557,498,445,395,359,344,370,429,497,555,544,482,419,336,210,74,-28
2018-05-17,13:30:50.176,-52,-70,-100,-84,-77,-46,-6,0,-16,-2,13,66,67,12,21,57,29,39,74,43,22,16,1,25,53,16,-3,-30,-7,35,304,898,1301,777,-1626,-2867,-1880,-800,-103,235,312,311,318,325,310,299,281,224,202,182,177,120,57,12,-61,-110,-160,-223,-288,-323,-348,-364,-333,-300,-249,-231,-224,-217,-199,-198,-178,-156,-137,-131,-77,-28,-20,-37,5,41,20,19,-24,-22,-72,-67,-71,-103,-113,-99,-109,-119,-15,507,1111,1128,-507,-2625,-2524,-1270,-398,222,458,488,482,497,494,444,370,324,352,366,415,459,517,489,482,501,472,451,327,163,11,-125,-216,-189,-202,-166
2018-05-17,13:30:51.213,-155,-129,-122,-122,-74,-120,-111,-66,-51,-99,-150,-148,-146,-141,-184,-250,-214,-219,-283,-214,-203,-191,-187,-184,-153,-210,-137,393,993,1200,-373,-2780,-2756,-1474,-599,-27,209,281,298,292,262,215,235,218,208,163,98,48,6,5,27,-2,-72,-140,-234,-261,-342,-431,-426,-394,-323,-260,-222,-177,-154,-100,-67,-61,-34,10,46,103,90,125,108,142,137,94,90,41,-26,-43,-18,-25,-64,-76,-41,-32,-17,295,926,1310,643,-1815,-2970,-1770,-599,149,483,525,556,530,480,467,476,497,527,564,604,631,664,690,697,698,639,530,435,298,123,36,-39,-99,-115,-79,-48,-29,-32,-42
2018-05-17,13:30:52.250,-47,-40,4,20,-30,8,29,2,19,20,-2,25,36,20,1,0,28,35,45,76,88,88,83,171,647,1273,1474,-152,-2677,-2513,-1179,-314,181,326,367,372,329,282,249,207,191,161,108,66,4,-40,-22,-36,-40,-35,-79,-91,-87,-127,-185,-193,-168,-158,-172,-135,-153,-191,-197,-189,-184,-140,-106,-93,-108,-89,-71,-48,-69,-77,-125,-166,-219,-244,-270,-278,-215,-257,-255,-220,-181,-160,87,781,1225,743,-1528,-2999,-2049,-937,-155,291,369,368,360,340,344,320,364,439,484,461,414,378,363,353,323,275,251,102,-26,-115,-165,-220,-197,-191,-174,-138,-70,-129,-139,-124,-169,-184
2018-05-17,13:30:53.287,-111,-123,-164,-209,-178,-164,-147,-136,-97,-140,-155,-138,-118,-122,-81,-36,-46,-51,-28,-9,29,348,984,1370,714,-1920,-2951,-1643,-560,100,426,461,461,422,358,360,253,156,100,62,23,-25,-28,-25,-27,-16,-10,-18,-64,-116,-162,-223,-258,-240,-202,-175,-162,-161,-125,-131,-81,6,16,66,141,119,111,115,95,94,69,98,65,46,4,-50,5,94,68,76,128,84,52,139,435,1057,1497,742,-1676,-2645,-1535,-466,223,538,594,620,630,665,728,803,791,786,786,755,693,613,531,426,402,432,373,302,239,188,116,41,-20,-112,-126,-153,-205,-281,-321,-335,-399,-435,-390,-351
2018-05-17,13:30:54.325,-337,-316,-197,-212,-222,-174,-154,-210,-239,-260,-288,-256,-200,-189,-210,-197,-178,-151,-74,353,994,1234,106,-2372,-2831,-1518,-661,-31,298,231,173,158,64,12,-15,-46,-87,-84,-105,-77,-7,37,60,93,138,159,112,23,-36,-105,-181,-203,-188,-189,-168,-114,-91,-85,-21,27,34,16,51,45,10,31,59,16,46,52,14,2,104,30,-6,38,109,110,92,99,136,164,514,1183,1514,610,-1794,-2739,-1577,-489,222,577,702,751,748,749,743,724,699,634,540,436,371,305,289,291,289,277,277,244,180,62,-66,-160,-244,-294,-333,-378,-361,-367,-429,-415,-356,-294,-306,-256,-204,-203
2018-05-17,13:30:55.362,-180,-132,-141,-166,-180,-125,-162,-166,-202,-177,-118,-102,-67,-48,-46,-76,-69,122,677,1257,1169,-979,-3176,-2478,-1175,-331,76,150,87,62,28,-1,-1,28,49,73,133,178,205,213,216,236,240,222,155,70,0,-65,-115,-99,-78,-55,-27,-1,8,7,79,76,47,16,78,82,86,74,59,70,56,22,86,58,30,-9,-35,45,81,101,107,99,100,127,105,286,860,1326,967,-1164,-2558,-1660,-496,276,716,812,778,662,573,499,418,365,366,362,423,425,423,408,367,361,318,211,63,-45,-241,-389,-521,-608,-608,-542,-460,-440,-431,-450,-391,-359,-353,-338,-322,-329,-301,-285
2018-05-17,13:30:56.399,-198,-187,-200,-176,-205,-255,-240,-253,-282,-224,-221,-198,-166,-261,-231,-251,-254,178,771,834,-810,-3358,-3247,-1756,-777,-179,71,145,192,245,289,283,306,302,293,287,287,286,304,330,354,337,347,334,248,189,91,12,-37,-69,-34,-19,-15,7,44,13,41,69,76,73,140,142,142,150,148,183,184,241,203,145,131,118,137,122,111,78,141,209,219,208,553,1268,1669,805,-1830,-2610,-1366,-349,257,510,561,576,578,565,520,477,440,444,406,386,367,351,274,286,356,228,111,96,34,-45,-113,-165,-188,-154,-105,-86,-96,-93,-94,-103,-93,-94,-98,-88,-85,-101,-137,-157
2018-05-17,13:30:57.436,-176,-158,-144,-178,-231,-249,-309,-297,-283,-336,-381,-415,-412,-458,-390,39,745,1032,-50,-2323,-2739,-1507,-589,52,399,446,417,399,332,285,285,320,335,363,403,392,339,365,384,335,283,232,133,63,1,-100,-153,-200,-249,-260,-237,-232,-238,-186,-157,-141,-52,-42,-78,-33,-22,-25,21,4,-11,-11,-19,1,29,49,164,191,199,277,294,243,253,299,822,1326,1231,-836,-2931,-2427,-1128,-268,236,425,447,455,406,323,297,246,233,266,181,162,202,146,135,138,155,142,107,34,-55,-115,-203,-284,-315,-347,-362,-358,-341,-296,-250,-237,-207,-195,-222,-212,-166,178,966,1344,-469,-3486
2018-05-17,13:30:58.473,-3370,-1649,-571,-23,81,124,180,231,281,367,431,417,419,452,497,552,600,622,593,534,460,363,264,169,118,79,50,-17,-8,14,35,-22,-102,-126,-135,-171,-182,-211,-244,-285,-258,-226,-201,-193,-171,-169,-167,-114,-74,-33,-43,-116,-27,-10,2,-7,23,28,-13,13,116,197,226,255,288,279,267,568,1150,1357,391,-2036,-2705,-1459,-467,179,460,498,499,495,447,411,431,400,338,354,373,333,322,289,249,279,265,226,171,105,84,38,-37,-106,-117,-127,-128,-124,-110,-111,-85,-92,-101,-72,-97,-104,-84,-104,-121,-154,-150,-106,-113,-184,-200,-256,-318,-371,-304,-299,-369,-335
2018-05-17,13:30:59.510,-242,-231,-138,282,916,1238,270,-1987,-2632,-1537,-625,41,405,512,507,523,544,514,487,490,478,457,442,429,432,429,387,373,350,225,200,81,-55,-200,-269,-250,-212,-107,-104,-107,-22,6,20,10,-15,-14,-30,-65,-73,-74,-55,-21,65,140,176,177,121,31,-21,-14,-24,-62,-69,-74,-47,-30,196,711,1289,1271,-525,-2806,-2475,-1207,-368,121,303,339,299,317,335,269,267,299,271,255,259,256,288,262,251,284,239,145,50,-35,-155,-210,-308,-376,-318,-309,-313,-274,-269,-272,-254,-270,-293,-280,-286,-275,-262,-268,-293,-316,-328,-342,-377,-415,-412,-425,-412,-332,-260,-259,-234,-215
2018-05-17,13:31:00.548,-189,-154,46,646,1210,1020,-1131,-2898,-2097,-869,-25,431,545,551,603,573,500,445,437,392,314,250,216,200,145,148,155,156,135,109,47,-18,-45,-104,-135,-87,-58,-94,-77,-65,-46,-11,12,32,67,141,216,205,212,217,226,242,207,187,141,80,111,24,-22,54,104,23,7,24,49,64,250,765,1263,1162,-850,-2866,-2238,-1038,-191,267,345,298,308,352,375,358,375,369,327,300,288,266,237,212,224,212,183,172,61,-58,-125,-157,-188,-225,-268,-236,-284,-302,-276,-281,-277,-305,-309,-297,-340,-354,-353,-327,-271,-229,-173,-144,-123,-100,-90,-105,-74,-19,24,-4,2,18
2018-05-17,13:31:01.585,62,105,444,1088,1417,642,-1630,-2635,-1551,-501,158,497,576,532,517,493,436,387,373,408,371,371,398,381,333,370,353,373,385,275,166,65,-22,-129,-196,-214,-207,-172,-128,-36,28,24,66,109,88,67,39,-1,-27,-16,-17,-27,-4,-1,-7,-37,-122,-157,-127,-135,-156,-167,-161,-170,-203,-134,251,872,1238,478,-2126,-3106,-1829,-861,-145,196,221,220,236,238,236,209,178,192,193,173,147,137,132,158,170,153,93,12,-77,-194,-316,-380,-418,-493,-503,-547,-581,-553,-538,-508,-449,-363,-293,-220,-163,-119,-82,-64,-35,-16,7,2,-22,-15,-22,-16,49,133,156,150,180,223
2018-05-17,13:31:02.622,235,293,765,1416,1585,76,-2404,-2451,-1173,-236,322,499,512,507,502,489,473,439,421,444,496,480,501,514,454,415,420,419,341,274,197,129,86,85,120,154,175,200,222,211,204,184,199,206,149,104,97,112,146,119,99,133,159,62,-5,18,-38,-125,-29,34,-35,-50,-57,-67,-49,59,556,1147,1293,-336,-2746,-2581,-1291,-457,18,230,281,209,210,216,228,210,221,204,179,174,169,137,148,137,95,77,4,-62,-125,-268,-357,-406,-453,-427,-399,-373,-354,-304,-241,-188,-189,-176,-164,-127,-142,-161,-144,-134,-100,-93,-101,-113,-138,-141,-141,-156,-125,-65,-64,-92,-74,-55
2018-05-17,13:31:03.659,-95,104,785,1198,838,-1490,-3071,-2169,-1039,-255,199,330,342,362,373,350,340,357,363,355,299,239,219,200,207,212,215,230,199,126,39,-58,-134,-193,-241,-271,-272,-262,-248,-245,-228,-166,-138,-82,-49,-36,-13,50,34,20,15,13,31,-29,-20,-35,-72,-46,-8,-8,-13,-49,-25,41,109,494,1121,1461,478,-2199,-2846,-1581,-593,0,244,279,275,265,259,261,243,236,217,184,153,78,111,27,-39,-87,-119,-146,-194,-229,-283,-330,-328,-253,-188,-128,-101,-100,-125,-151,-124,-126,-143,-137,-113,-89,-58,-22,45,92,92,114,115,98,67,29,10,54,72,10,-17,-27,-25,-37
2018-05-17,13:31:14.458,-500,-460,-414,-341,-344,-331,-297,-233,-270,-299,-246,-177,-125,-42,272,932,1407,984,-1301,-2775,-1804,-683,97,520,639,640,645,624,580,574,575,524,412,378,335,289,234,225,261,214,109,160,76,-115,-244,-257,-217,-83,40,185,198,135,177,184,181,218,295,413,447,439,420,392,385,370,340,298,260,180,99,23,-20,-80,-140,-189,-218,-254,-260,-258,-226,-275,-204,-130,250,900,1354,424,-2345,-3084,-1790,-715,-111,195,287,256,218,182,108,96,59,20,18,58,139,103,202,230,267,273,209,107,-37,-290,-495,-630,-676,-638,-501,-373,-269,-192,-93,-17,-22,2,69,147,169,176
2018-05-17,13:31:15.495,185,163,222,253,268,257,214,189,122,68,2,-151,-231,-265,-253,-192,-292,-292,-234,-275,-257,-79,595,1299,1258,-680,-2627,-1974,-712,200,712,874,920,907,863,777,709,678,671,627,519,425,345,243,181,158,42,-25,-91,-176,-387,-588,-517,-720,-835,-800,-758,-750,-735,-695,-657,-660,-600,-591,-601,-568,-489,-428,-452,-467,-487,-531,-587,-652,-678,-589,-640,-455,-414,-370,-356,-231,-207,-199,-205,-195,-157,-136,-3,573,1126,922,-1006,-2713,-2059,-899,-135,430,647,640,694,750,817,890,881,920,930,896,873,869,872,825,868,857,821,753,657,482,249,67,-67,-80,-88,-79,-62,-14,45,203
2018-05-17,13:31:16.982,346,535,568,599,587,542,538,589,592,619,622,587,569,525,469,444,421,355,237,180,174,53,39,7,-37,44,-123,136,745,1164,943,-1564,-3363,-2379,-1246,-541,-11,80,13,21,31,36,31,2,-38,-44,-19,-76,-131,-180,-191,-190,-155,-89,-40,-84,-152,-249,-352,-465,-406,-499,-617,-550,-601,-659,-737,-727,-628,-517,-357,-158,-68,2,125,216,111,-12,-9,91,108,72,72,105,136,156,191,214,262,176,202,114,101,96,94,549,1145,1235,-390,-2677,-2392,-1187,-417,51,336,521,650,831,947,969,952,945,950,963,989,942,886,867,827,790,740,650,482,304,144,-12,-176,-268
2018-05-17,13:31:18.019,-280,-275,-285,-341,-466,-471,-406,-492,-477,-547,-540,-471,-479,-487,-472,-448,-409,-406,-372,-329,-360,-351,-390,-473,-513,-518,-520,-502,-616,-655,-602,-482,-423,-311,214,939,1153,-297,-2813,-3019,-1758,-841,-335,3,205,331,424,444,433,466,530,582,576,593,653,654,693,698,627,600,567,455,383,205,97,-83,-144,-125,-134,-151,-173,-158,-69,-61,-118,-133,-120,-72,-17,83,207,321,344,296,300,283,329,346,361,338,248,217,307,364,373,332,267,218,114,36,208,720,1103,650,-1898,-3496,-2390,-1245,-609,-318,-165,-118,-124,-76,-56,-34,-22,-6,-19,80,68,-13,35,103,26,28,-10,-120
2018-05-17,13:31:19.057,-279,-431,-558,-612,-654,-592,-520,-517,-476,-430,-378,-379,-295,-282,-349,-383,-382,-412,-446,-401,-300,-111,-76,-44,89,190,178,227,238,196,218,232,220,245,242,161,181,222,298,800,1356,1228,-821,-2935,-2367,-1137,-344,199,327,311,412,358,309,289,309,446,574,670,711,717,750,835,910,948,926,807,665,535,442,373,284,212,161,157,125,50,-6,-21,-35,-78,-124,-183,-222,-201,-250,-314,-331,-252,-235,-310,-316,-311,-291,-258,-363,-419,-324,-320,-325,-366,-366,-348,-355,-394,-285,150,612,617,-1216,-3212,-2723,-1475,-608,-73,188,182,127,154,83,-3,67,11,-31,56,175,237,297,337
2018-05-17,13:31:20.094,345,332,378,421,414,422,380,302,206,180,173,145,160,165,125,105,101,79,18,-56,-74,-76,-47,-85,-196,-5,56,-98,-10,78,167,228,287,328,381,425,412,399,449,525,543,539,822,1393,1549,446,-1713,-2329,-1215,-328,290,500,454,387,343,320,238,150,60,-64,30,-8,-46,-10,29,16,51,5,57,142,55,-168,-300,-321,-426,-504,-483,-478,-495,-506,-590,-673,-729,-705,-663,-583,-540,-525,-515,-539,-394,-364,-403,-302,-358,-390,-330,-248,-167,-16,78,141,197,168,124,53,190,633,1332,1706,1009,-1539,-2600,-1387,-284,249,479,511,558,528,423,352,355,242,322,288,324,334
2018-05-17,13:31:21.131,162,92,177,237,292,443,479,495,465,437,408,372,377,489,605,645,643,645,592,470,439,459,461,464,436,367,307,225,132,115,68,16,-33,-93,-201,-267,-263,-280,-309,-269,-314,-281,-210,-312,-62,527,1019,887,-1513,-3191,-2185,-1146,-427,-17,65,30,-27,-135,-189,-304,-331,-335,-238,-180,-70,-47,-5,147,147,88,61,-35,-173,-287,-438,-524,-544,-471,-395,-278,-223,-149,-35,85,105,23,-11,8,19,27,49,35,31,62,34,21,44,-20,-61,-160,-331,-295,-273,-261,-190,-216,-268,-256,-199,41,667,1294,1134,-617,-2314,-1837,-767,38,592,810,856,848,781,714,697,662,646,665
2018-05-17,13:31:22.168,645,533,466,381,303,169,95,82,27,-95,-261,-401,-487,-553,-594,-572,-536,-487,-478,-418,-363,-432,-378,-258,-294,-248,-135,-225,-295,-274,-310,-386,-482,-554,-629,-646,-576,-499,-375,-234,-231,-205,-206,-131,-68,61,754,1246,1232,-910,-3014,-2325,-1023,-199,304,542,589,600,581,637,654,694,742,736,739,766,754,725,742,736,655,496,346,148,-48,-123,-183,-335,-314,-270,-204,-150,-178,-204,-185,-41,69,94,140,234,257,271,332,373,335,350,393,406,356,262,221,177,178,179,190,164,130,107,106,92,269,839,1358,1144,-1204,-3226,-2354,-1089,-429,24,139,123,152,83,139,121,129,132
2018-05-17,13:31:23.205,113,180,170,173,175,198,191,91,-28,-160,-314,-476,-543,-509,-424,-393,-279,-251,-198,-174,-149,-160,-145,-251,-382,-436,-468,-516,-530,-475,-459,-442,-237,-33,101,126,130,140,121,188,315,349,324,288,341,375,436,823,1437,1667,535,-2028,-2441,-1297,-495,54,255,208,233,235,261,268,356,462,537,610,717,720,704,720,780,852,907,886,762,562,407,280,280,332,352,317,231,44,-135,-114,-166,-306,-345,-338,-377,-431,-485,-483,-541,-550,-615,-572,-474,-510,-497,-583,-539,-473,-456,-450,-426,-442,-398,-356,-356,-68,464,758,-28,-2502,-3333,-2139,-1115,-369,25,142,132,244,263,261,223,177
2018-05-17,13:31:24.242,255,213,163,178,177,164,144,226,298,388,443,417,277,134,103,103,87,92,112,132,71,120,183,82,67,41,-122,-57,12,-78,-82,-18,-3,-69,-172,-120,-100,-47,18,67,163,198,233,276,291,342,405,860,1646,1951,882,-1695,-2474,-1226,-222,448,754,749,662,508,359,251,196,211,178,105,66,52,4,-82,-131,-70,22,-79,-259,-255,-202,-275,-441,-415,-359,-372,-365,-356,-358,-375,-429,-485,-522,-563,-613,-639,-612,-491,-385,-257,-215,-175,-261,-167,-61,-102,-108,-16,-124,-297,-249,-298,-333,-375,-411,-288,-150,-18,66,178,310,348,334,351,367,361,343,369,452,327,320,466
2018-05-17,13:31:25.280,342,238,188,122,105,82,-33,-111,-87,-156,-148,-141,-177,-117,-15,-1,66,178,239,292,389,471,463,446,484,568,599,753,1370,1765,1274,-923,-2483,-1619,-488,210,531,544,481,459,376,330,289,216,222,155,191,183,122,59,88,94,47,70,81,-21,-80,-146,-225,-280,-349,-365,-350,-395,-464,-473,-518,-571,-513,-429,-360,-315,-271,-208,-194,-202,-244,-221,-212,-322,-460,-537,-542,-575,-542,-457,-375,-319,-288,-160,-27,42,248,764,1387,1552,78,-2215,-2380,-1174,-264,357,622,577,443,424,356,298,292,296,270,263,257,123,113,79,170,328,358,439,454,376,240,72,-28,-144,-110,7
2018-05-17,13:31:26.317,128,192,204,187,106,121,219,229,221,195,111,13,-85,-147,-216,-270,-270,-311,-375,-417,-396,-355,-303,-277,-348,-379,-230,-87,-24,488,1133,1315,-1039,-3193,-2316,-1124,-434,-25,181,184,80,8,-67,-131,-179,-209,-164,-30,22,140,180,217,292,388,343,333,225,-36,-207,-327,-392,-374,-348,-284,-179,-202,-228,-172,-40,97,152,254,289,302,288,248,212,319,224,175,167,101,49,-10,-15,6,-79,-49,-5,-63,-98,-48,503,1176,1307,-70,-2147,-2021,-723,205,806,1002,1015,1028,1067,1134,1140,1035,847,708,553,489,542,548,517,475,403,328,233,60,-78,-162,-296,-442,-579,-542,-336,-447
2018-05-17,13:31:27.354,-573,-485,-438,-467,-461,-366,-321,-319,-353,-320,-307,-324,-329,-342,-316,-361,-477,-584,-684,-728,-758,-730,-667,-492,-332,-246,-8,625,1153,686,-1873,-3491,-2573,-1439,-635,-185,20,127,205,299,381,451,507,568,629,697,699,718,743,749,718,700,615,432,430,417,151,-1,-137,-206,-163,-154,-229,-256,-314,-231,-120,-202,-120,-206,-160,-133,-116,39,193,192,216,94,3,-2,-10,72,236,318,309,350,410,444,468,719,1311,1659,636,-1922,-2666,-1465,-497,125,406,422,351,299,253,315,194,280,239,212,333,277,254,194,212,287,208,96,51,-84,-285,-410,-483,-474,-395,-273,-346,-244,-241,-348
2018-05-17,13:31:28.391,-420,-297,-153,-377,-469,-600,-727,-734,-655,-548,-432,-360,-312,-208,-147,-45,55,104,157,258,302,323,307,506,1168,1635,1411,-1076,-2905,-2039,-928,-164,238,271,382,415,336,407,280,264,207,189,253,398,371,344,352,297,294,267,213,184,180,139,141,146,144,133,163,206,178,196,230,267,234,176,116,69,-2,-123,-168,-284,-348,-381,-469,-487,-509,-566,-546,-511,-408,-339,-269,-173,-172,-181,129,712,1117,771,-1345,-2711,-1848,-842,-191,167,341,359,390,388,391,320,250,281,220,257,116,-115,-255,-306,-243,-101,-18,50,75,8,-34,-64,-65,32,157,249,323,363,375,442,416,444
2018-05-17,13:31:29.429,591,472,396,343,343,273,228,215,109,21,50,-38,-90,-11,112,196,210,281,387,420,483,695,1307,1834,1532,-845,-2644,-1655,-380,485,989,1154,1173,1162,1118,964,762,592,401,238,179,213,90,-21,19,76,36,-65,-111,-131,-121,-211,-331,-364,-364,-373,-341,-297,-328,-256,-225,-251,-252,-243,-259,-310,-375,-463,-535,-574,-533,-458,-353,-239,-285,-332,-270,-257,-200,-186,-201,-194,-218,-269,-251,145,834,1191,153,-2418,-2876,-1495,-503,99,382,469,534,531,529,559,602,613,644,670,658,558,554,458,377,279,217,116,-40,-141,-272,-445,-419,-443,-274,26,182,184,150,209,261,235,236,299
2018-05-17,13:31:30.466,366,469,478,451,447,382,372,413,318,191,70,14,-193,-286,-244,-268,-327,-322,-343,-344,-383,-197,341,886,945,-1271,-3477,-2526,-1342,-530,-61,32,88,123,105,98,67,-23,26,32,73,108,-79,-99,-88,-143,-60,-140,-157,-125,-142,-273,-438,-568,-602,-623,-618,-552,-421,-364,-273,-157,-101,-109,-37,40,72,132,173,190,188,148,93,80,106,43,4,-26,36,26,-70,43,21,54,28,190,783,1142,990,-1007,-2700,-2014,-820,55,555,791,879,825,715,701,684,683,720,786,774,714,562,437,411,405,376,333,244,87,-94,-234,-337,-465,-601,-656,-627,-617,-595,-614,-538,-564,-514,-467
2018-05-17,13:31:31.503,-415,-455,-422,-313,-368,-379,-351,-327,-284,-306,-276,-280,-284,-297,-288,-275,-279,-320,-392,-475,-500,-391,70,759,1062,114,-2662,-3187,-1682,-698,-147,87,-78,-95,-37,36,71,124,185,227,281,314,362,421,463,490,513,527,480,421,339,229,210,40,-15,71,19,-45,-76,-122,-149,-183,-217,-223,-274,-287,-350,-76,42,118,318,526,620,570,452,302,265,283,312,349,371,344,315,328,373,393,398,617,1083,1343,625,-1895,-3040,-1871,-796,-176,112,169,185,217,250,153,106,64,66,262,250,112,112,242,181,174,213,139,93,21,-115,-233,-371,-436,-477,-555,-577,-593,-571,-426,-385,-380
2018-05-17,13:31:32.540,-373,-341,-306,-229,-314,-349,-373,-340,-304,-261,-171,-128,-117,-38,17,11,50,150,187,173,211,292,310,294,729,1430,1780,846,-1984,-2564,-1362,-420,255,509,487,392,351,333,275,285,312,226,446,632,749,899,946,917,858,825,825,820,880,883,831,721,551,399,266,195,154,58,-44,-100,-148,-206,-278,-339,-400,-453,-470,-528,-567,-647,-728,-690,-591,-587,-646,-568,-480,-508,-514,-510,-433,-407,-395,-396,-427,-447,-467,-455,-471,-556,-630,-672,-724,-743,-693,-622,-575,-458,-477,-516,-407,-369,-286,-252,-166,-379,-484,-580,-591,-565,-548,-503,-467,-381,-294,-214,-83,67,159,259,337,332,325,307
2018-05-17,13:31:33.577,277,287,381,369,348,329,371,589,1113,1546,1284,-920,-2542,-1717,-644,-16,252,346,389,483,603,644,682,809,873,852,827,807,832,949,1037,1066,1055,1013,944,841,706,565,476,377,226,78,-35,-47,-71,-142,-205,-235,-284,-251,-315,-276,-264,-242,-208,-240,-276,-276,-129,-217,-314,-328,-367,-384,-365,-365,-328,-287,-333,-415,-473,-517,-526,-423,106,718,880,-849,-2943,-2542,-1365,-532,-17,189,123,-30,-15,7,21,68,178,277,297,389,451,521,617,683,756,819,807,730,659,550,400,260,170,134,115,98,44,84,84,43,15,38,43,-23,-6,13,-9,-23,-42,-28,3,85,78,95
2018-05-17,13:31:34.614,168,202,181,204,301,269,301,402,425,383,495,1087,1641,1554,-367,-2493,-2178,-1074,-340,68,166,111,57,-1,-6,-55,-77,3,-43,-49,-89,-75,-78,-49,-14,-36,-31,-84,-180,-224,-347,-452,-497,-511,-481,-453,-515,-593,-607,-620,-661,-685,-663,-596,-533,-466,-420,-390,-404,-367,-272,-255,-308,-254,-229,-410,-432,-343,-283,-294,-307,-209,-108,-42,70,569,1280,1545,280,-2185,-2336,-1067,-113,435,698,814,790,754,734,722,676,621,556,490,439,437,434,385,296,257,215,174,101,67,65,64,60,81,141,181,181,166,223,362,445,478,496,480,534,570,550,529,507,500,407,290,135,-7
2018-05-17,13:31:35.652,-113,-204,-218,-251,-297,-325,-262,-227,-193,-139,2,551,1209,1385,-245,-2732,-2606,-1298,-457,88,298,347,367,367,373,353,263,251,132,22,-50,-79,-75,6,76,107,128,126,61,20,-98,-290,-423,-540,-618,-627,-604,-517,-403,-303,-221,-154,-115,6,76,114,201,260,300,349,375,386,360,336,287,239,260,302,293,268,250,259,272,244,557,1220,1600,401,-2209,-2666,-1505,-617,30,396,411,397,497,537,503,420,371,460,609,712,783,762,728,726,736,745,736,688,548,389,193,-6,-189,-254,-317,-470,-531,-568,-625,-644,-587,-480,-559,-521,-466,-437,-404,-397,-432,-437,-381,-390,-425,-438
2018-05-17,13:31:36.689,-378,-419,-388,-324,-302,-290,-287,-290,-289,78,620,888,-138,-2662,-3178,-1898,-934,-280,2,134,263,265,238,204,142,-13,-75,-112,-180,-139,-59,-25,-65,-4,65,78,88,77,58,26,27,45,77,110,123,192,172,156,165,155,159,95,51,79,4,-82,-84,-111,-67,-101,-70,-125,-166,-124,-32,135,225,293,366,357,375,415,781,1504,1852,788,-1828,-2472,-1113,-103,511,740,720,671,592,502,455,370,277,226,150,107,65,22,20,24,30,23,18,12,-46,-144,-271,-354,-357,-383,-282,-219,-215,-225,-174,-154,-155,-173,-225,-248,-303,-363,-508,-566,-555,-473,-387,-331,-260,-244,-203,-175
2018-05-17,13:31:37.726,-158,-186,-130,-97,-94,-115,230,879,1268,640,-1741,-2813,-1744,-705,71,491,596,639,676,644,551,552,545,528,528,513,516,464,389,476,472,380,297,198,61,-86,-232,-284,-313,-385,-421,-394,-378,-330,-323,-82,4,43,201,238,174,184,235,245,273,280,285,215,97,-6,-132,-176,-174,-236,-260,-228,-216,-271,-203,275,896,1096,-573,-3298,-3139,-1619,-687,-191,21,-5,-3,143,185,167,78,25,107,124,134,133,146,182,151,131,100,8,-64,-242,-369,-504,-651,-704,-673,-723,-593,-502,-431,-267,-150,-117,-78,3,5,57,-9,14,51,106,119,78,17,19,63,165,322,420,417,439
2018-05-17,13:31:38.763,439,405,384,561,1115,1688,1761,-268,-2407,-1849,-676,90,563,662,620,648,612,552,489,607,549,447,457,468,543,683,835,982,1023,967,886,812,778,674,572,455,358,272,238,207,153,131,97,41,-42,-108,-252,-318,-363,-369,-348,-334,-329,-303,-322,-396,-511,-524,-419,-382,-412,-411,-438,-323,-261,-268,-144,452,1025,993,-1081,-3109,-2390,-1213,-504,-45,3,-4,-65,-59,-37,-56,-36,14,-25,13,148,182,140,205,212,152,46,-21,4,-35,-55,-146,-217,-191,-151,-122,-56,-3,7,30,83,140,144,150,152,128,171,213,193,118,78,56,-45,-138,-156,-134,-79,-80,-116,-107,-93,54
2018-05-17,13:31:39.800,80,397,1184,1598,770,-1557,-2263,-1071,-30,641,970,999,1014,980,882,718,555,398,266,158,103,38,15,10,-9,-45,-71,-135,-209,-298,-395,-506,-665,-717,-753,-646,-628,-605,-611,-641,-594,-437,-312,-306,-258,-270,-360,-324,-291,-277,-273,-251,-273,-319,-293,-379,-399,-425,-511,-535,-512,-456,-356,-263,277,1062,1398,59,-2741,-2844,-1404,-488,137,392,348,334,393,411,506,611,526,451,473,496,498,554,576,561,511,464,401,362,278,138,53,-5,-48,-27,-82,-149,-78,-28,-80,-168,-30,71,38,124,275,477,602,637,625,634,637,660,630,570,542,575,540,386,244,139,51,5,54,531
2018-05-17,13:31:40.837,1204,1288,-527,-3163,-3117,-1835,-929,-376,-176,-146,-134,-187,-305,-155,-135,-327,-237,-125,-58,-30,-21,24,64,24,-28,36,-97,-266,-312,-352,-412,-474,-504,-523,-594,-634,-534,-544,-487,-377,-421,-516,-299,-369,-354,-263,-213,-238,-223,-230,-206,-187,-140,-11,134,129,70,92,119,178,353,953,1565,1601,-172,-2461,-2287,-892,5,474,583,602,588,513,452,454,543,385,380,404,390,405,422,574,751,796,805,822,695,575,515,442,399,403,498,562,519,392,286,160,71,128,178,149,54,-9,-98,-199,-290,-369,-460,-523,-558,-665,-693,-724,-701,-594,-610,-652,-616,-551,-493,-95,570,1075,383,-2470
2018-05-17,13:31:41.875,-3278,-1935,-924,-329,-6,38,-5,-65,-107,-112,-154,-242,-264,-218,-139,-25,30,119,217,316,301,222,73,-91,-179,-191,-182,-195,-158,-64,52,140,194,265,328,371,383,401,420,435,427,401,347,391,377,309,312,212,130,119,178,169,113,89,139,129,205,594,1376,1762,896,-1281,-1944,-830,140,818,1151,1273,1297,1286,1248,1111,958,836,760,730,723,644,503,371,226,77,-78,-232,-355,-382,-555,-705,-815,-873,-776,-587,-635,-606,-517,-528,-457,-289,-230,-302,-327,-271,-188,-190,-190,-176,-179,-154,-217,-322,-384,-428,-449,-476,-452,-396,-341,-238,-49,610,1178,981,-1507,-3250,-2290,-1097,-261,247
2018-05-17,13:31:42.912,465,501,496,494,477,500,561,621,642,681,695,711,659,663,656,535,521,409,296,195,55,-98,-207,-286,-195,-219,-199,-255,-181,-130,-187,-149,-73,39,103,261,413,519,538,477,424,479,479,511,590,669,631,524,388,268,221,206,314,805,1242,1044,-1288,-3401,-2752,-1553,-722,-289,-181,-254,-249,-197,-185,-166,-187,-149,-123,-31,-105,-65,-14,-72,-116,-127,-78,-146,-256,-353,-437,-479,-517,-571,-633,-671,-669,-633,-611,-528,-481,-418,-309,-248,-245,-250,-137,-34,-262,-381,-415,-468,-480,-434,-372,-332,-284,-221,-106,12,131,445,1094,1657,1343,-916,-2627,-1773,-599,204,666,764,674,699,650,573
2018-05-17,13:31:43.949,556,527,497,450,460,461,365,355,413,519,600,656,702,670,577,458,426,455,483,591,631,610,552,456,323,170,106,101,107,91,53,-46,-182,-325,-504,-637,-713,-761,-778,-718,-697,-672,-690,-658,-594,-430,-94,498,988,96,-2750,-3441,-1808,-906,-241,179,275,329,367,280,215,213,147,15,-79,-119,-95,-50,27,114,161,158,55,87,61,-194,-221,-390,-446,-354,-296,-312,-321,-268,-131,-83,-93,-11,80,140,207,166,138,143,202,116,91,39,-32,0,22,3,69,89,57,107,139,572,1161,1290,-360,-2678,-2506,-1312,-367,239,460,610,698,757,799,774,756,751,773,809,897,979
2018-05-17,13:31:44.986,931,817,670,532,415,337,191,73,-26,-172,-299,-391,-417,-489,-565,-564,-571,-623,-610,-625,-649,-569,-575,-578,-511,-470,-483,-390,-407,-361,-378,-397,-374,-296,-333,-296,-245,-229,-188,110,650,933,115,-2376,-3153,-1933,-884,-195,142,286,361,304,286,315,217,208,165,121,152,164,179,197,300,356,372,491,542,503,437,393,346,341,374,398,395,383,380,379,365,320,301,253,223,99,129,173,52,12,11,-44,-95,-73,84,232,278,342,356,289,270,634,1434,1861,987,-1628,-2500,-1324,-428,155,463,504,333,231,192,194,156,113,129,57,-14,-52,-113,-108,-95,-43,-24,-57,-104,-247
2018-05-17,13:31:46.023,-414,-439,-557,-573,-419,-395,-441,-446,-364,-300,-276,-122,-137,-162,-109,-175,-206,-242,-221,-245,-292,-335,-349,-274,-320,-140,-123,-187,-369,-527,-342,500,1161,939,-1272,-3124,-2286,-938,-55,480,693,705,745,757,763,737,721,689,618,534,471,374,386,390,344,358,250,145,29,-127,-231,-327,-366,-362,-349,-273,-314,-223,-128,-45,25,58,129,223,245,302,386,433,518,570,549,471,359,209,185,192,87,21,-6,-11,174,806,1324,979,-1572,-3399,-2350,-1114,-450,-31,166,64,16,85,248,179,145,281,378,276,271,221,159,204,210,102,-1,-123,-293,-431,-582,-669,-719,-668,-569,-448,-379,-326
2018-05-17,13:31:47.061,-247,-132,-112,-122,-33,-118,-149,-190,-187,-125,-81,-42,-35,-78,-16,118,251,321,343,363,433,521,944,1566,1860,565,-2113,-2282,-1051,-143,451,624,699,650,570,554,521,493,423,388,351,400,476,548,673,713,682,603,601,464,358,377,371,361,377,358,383,361,318,277,224,190,133,18,-37,-95,-77,-99,-222,-275,-308,-383,-477,-597,-567,-540,-499,-270,-372,-469,-291,93,684,1172,651,-1964,-3187,-1980,-981,-308,73,143,72,5,-23,-63,-90,-68,32,135,151,194,226,230,280,437,109,-114,-206,-303,-449,-402,-329,-268,-227,-263,-208,-145,-78,-32,64,208,266,278,309,328,265,295
2018-05-17,13:31:48.098,258,210,178,139,116,98,116,60,-38,16,-86,-39,75,598,1143,1046,-777,-2690,-2179,-809,73,581,708,720,716,712,751,828,840,781,706,612,518,523,487,401,316,240,181,90,-42,-166,-312,-404,-467,-513,-583,-600,-570,-592,-669,-671,-483,-418,-488,-411,-389,-399,-333,-343,-353,-328,-377,-422,-429,-369,-320,-301,-334,-365,-352,-324,-93,605,1149,581,-2121,-3283,-1975,-872,-135,2,-90,-202,-218,-155,-58,59,82,67,105,231,335,426,515,607,651,651,588,463,331,241,129,102,136,170,166,151,126,148,115,62,88,88,79,74,136,200,3,-15,165,231,287,270,195,207,171,271
2018-05-17,13:31:49.135,359,439,498,507,845,1548,1851,627,-1942,-2599,-1425,-551,15,209,99,15,-3,-18,-39,-67,-84,-111,-5,-119,-182,-108,-105,-45,21,-59,-4,-85,-182,-231,-367,-447,-440,-394,-395,-474,-525,-559,-532,-543,-530,-487,-404,-332,-288,-236,-273,-221,-240,-253,-206,-253,-287,-317,-370,-313,-283,-265,-221,-179,286,998,1167,-420,-2717,-2465,-1035,-67,531,781,778,671,733,721,695,651,569,512,468,417,406,364,321,306,320,313,53,-12,-44,-122,-116,-38,31,107,147,168,239,304,384,481,592,637,609,543,503,453,407,280,147,132,98,22,-23,-38,-69,-129,-178,-199,-228,-148,362,938,1138,-597
2018-05-17,13:31:50.172,-3203,-2734,-1438,-543,13,183,137,204,206,195,163,148,93,51,44,17,-32,-86,-107,-111,-103,-45,-42,-136,-211,-133,-131,-375,-428,-460,-527,-550,-527,-441,-336,-202,-88,-4,49,66,116,198,259,312,304,280,286,266,282,317,287,256,268,243,246,342,776,1366,1419,-449,-2727,-2482,-1271,-356,211,368,315,344,520,638,730,808,872,812,766,749,770,883,1005,1038,948,838,663,536,419,297,158,13,-46,-204,-396,-530,-574,-562,-546,-515,-570,-529,-482,-440,-434,-457,-480,-469,-512,-490,-471,-489,-424,-393,-407,-374,-241,-242,-269,-162,344,923,972,-1009,-3222,-2739,-1483,-619,-72,155,164,239
2018-05-17,13:31:51.209,238,272,206,215,266,312,198,119,85,131,130,149,192,153,150,46,-103,-172,-144,-126,-98,-68,-32,-47,35,70,53,28,206,201,193,170,136,89,109,157,-9,-108,-47,-29,-174,-133,-105,-108,-32,104,266,478,981,1747,1884,373,-2215,-2447,-1063,52,785,991,921,816,764,734,713,693,617,481,364,270,151,48,-24,-73,-107,-188,-311,-480,-665,-770,-646,-707,-714,-617,-550,-572,-471,-374,-424,-398,-335,-275,-275,-244,-205,-180,-200,-251,-323,-368,-462,-604,-706,-721,-667,-559,-473,-381,-356,-273,77,726,1344,805,-2170,-3556,-2277,-1069,-345,59,200,223,225,308,417,494,555,662,779,783
2018-05-17,13:31:52.247,750,739,681,704,728,726,669,585,475,322,189,127,54,39,92,6,-53,-37,9,-51,-86,61,221,305,340,383,412,462,370,363,364,388,427,505,560,441,377,390,466,511,634,1147,1628,1358,-914,-3189,-2590,-1343,-521,-50,-26,-24,-57,-140,-189,-166,8,-64,-120,-89,-69,-15,36,-18,-11,18,35,-16,-184,-254,-336,-419,-504,-591,-654,-691,-628,-565,-505,-428,-339,-288,-276,-221,-179,-162,-268,-289,-364,-546,-615,-646,-692,-716,-530,-300,-145,-44,30,13,102,706,1529,1659,70,-2368,-2206,-894,4,528,702,771,795,739,716,686,640,574,513,479,422,430,358,291,284,272,369,419
2018-05-17,13:31:53.284,516,496,457,350,265,245,276,309,415,597,682,699,644,557,554,977,1626,1159,-1766,-3008,-1766,-647,34,308,257,196,140,42,-30,-115,-130,-161,-151,-158,-86,-96,-10,43,103,-7,-128,-202,-293,-334,-357,-426,-416,-419,-452,-471,-474,-553,-600,-630,-661,-610,-528,-496,-511,-472,-329,-416,-388,-576,-746,-740,-693,-585,-449,-322,-213,-151,-204,-58,102,162,287,409,490,543,549,583,638,982,1644,2122,1214,-1418,-2159,-1088,-224,340,557,591,534,441,400,364,347,351,473,520,570,613,621,625,616,664,688,749,725,697,656,629,535,426,371,364,350,317,297,242,143,39,-115,-231,-368,-471
2018-05-17,13:31:54.321,-505,-543,-550,-508,-535,-497,-544,-530,-673,-682,-494,-480,-424,-335,-358,-348,-385,59,721,1112,621,-2004,-3206,-2027,-1074,-432,-141,-198,-209,-164,-149,-55,40,92,174,224,183,205,349,312,134,109,115,43,12,-1,-155,-220,-202,-155,-67,33,122,153,236,296,260,362,358,316,272,268,300,302,270,218,176,108,31,-5,-95,-126,-41,-150,-182,-183,-149,-106,157,863,1577,1345,-819,-2514,-1736,-496,428,874,1061,1163,1176,1101,985,876,746,621,474,347,358,395,376,304,181,126,34,-104,-258,-423,-504,-511,-616,-578,-504,-495,-457,-403,-317,-294,-262,-247,-237,-254,-227,-234,-225,-182,-175,-228
2018-05-17,13:31:55.358,-323,-389,-411,-398,-407,-402,-449,-441,-382,-293,-239,120,707,1111,459,-2312,-3397,-2155,-1040,-258,138,270,285,334,422,463,561,650,684,670,702,707,721,736,708,702,680,609,488,416,262,117,62,18,36,35,26,-54,-55,-4,-105,-149,-30,72,247,377,493,621,702,670,658,664,649,592,576,536,444,376,349,320,239,270,712,1089,829,-1521,-3775,-3054,-1817,-992,-477,-335,-387,-281,-260,-280,-312,-312,-298,-180,-196,-185,-103,-78,-93,-78,-53,-60,-160,-262,-371,-478,-522,-590,-637,-638,-641,-645,-573,-486,-454,-339,-269,-258,-234,-194,-146,-24,-34,-232,-355,-296,-268,-273,-209,-157,-170,-124
2018-05-17,13:31:56.395,-81,-32,9,207,810,1523,1653,-272,-2356,-1885,-668,177,578,767,710,661,726,670,559,493,427,302,307,190,160,186,244,296,442,527,506,431,302,184,149,196,269,377,509,584,579,540,488,421,330,286,214,80,-41,-39,-50,-102,-150,-145,-308,-425,-445,-403,-342,-294,-382,-335,-331,-277,161,822,1291,251,-2364,-2829,-1611,-691,-109,204,231,158,153,143,114,15,-111,-198,-184,-99,-58,87,153,112,185,192,54,-58,-128,-198,-364,-392,-338,-289,-172,-69,-67,-86,-33,61,111,158,205,301,328,314,301,294,314,295,259,219,221,193,170,205,209,102,90,71,36,3,-56,-93
2018-05-17,13:31:57.432,-83,71,79,130,224,261,232,307,406,461,518,555,648,693,753,758,656,558,467,415,318,197,90,-74,-247,-411,-599,-520,-583,-753,-757,-707,-686,-658,-629,-622,-588,-518,-198,473,923,335,-2178,-3175,-2025,-998,-368,-106,-41,53,10,-56,-80,-96,-175,-232,-255,-267,-204,-93,-16,-45,24,-15,-47,-119,-215,-189,-308,-569,-651,-635,-524,-495,-469,-347,-146,45,164,245,288,338,404,417,529,555,489,365,377,455,399,334,303,281,260,202,214,130,83,63,203,787,1172,770,-1459,-2787,-1957,-806,60,588,744,720,693,617,563,604,795,968,1057,1088,1048,984,924,873,845,775,621,426
2018-05-17,13:31:58.470,236,-24,-235,-364,-391,-477,-498,-487,-448,-471,-453,-516,-498,-447,-388,-324,-266,-188,-221,-232,-255,-265,-303,-314,-329,-296,-269,-361,-417,-419,-454,-390,-27,575,1083,369,-2126,-3115,-1991,-932,-300,-30,22,-51,-73,-129,-134,-33,123,171,230,237,216,234,300,440,541,590,608,550,406,318,268,201,130,162,80,49,54,6,-13,-63,-78,-82,-212,-9,-123,-185,-26,-1,12,52,49,20,8,65,135,218,313,417,548,781,1347,1897,1849,-125,-2538,-2290,-1038,-267,240,346,303,266,249,206,128,125,39,0,82,27,-26,18,6,-50,203,194,109,120,-105,-145,-158,-287,-256,-311,-347,-328
2018-05-17,13:31:59.507,-299,-322,-322,-350,-409,-456,-416,-320,-260,-149,-74,-82,-97,-91,-88,-78,-31,42,41,-64,-87,-14,-11,401,1030,1394,549,-2015,-2475,-1150,-87,551,797,851,875,889,885,871,856,821,813,802,728,635,629,548,453,471,382,234,141,-95,-188,-252,-296,-262,-149,-41,29,32,66,73,40,65,117,227,380,497,568,599,569,504,449,386,319,255,195,81,-5,-62,-70,-78,4,489,1116,1334,-295,-2720,-2636,-1381,-472,109,275,369,349,387,333,297,336,282,203,258,174,91,136,154,125,55,-58,-124,-137,-185,-242,-350,-273,-231,-285,-267,-229,-228,-315,-448,-422,-375,-387,-379,-414,-338
2018-05-17,13:32:20.682,549,801,841,792,928,678,302,146,49,-115,-275,-461,-347,-219,-276,-145,-5,-179,-262,-32,-53,11,48,-46,36,69,41,89,-216,-1095,-1375,-1268,-798,-147,184,257,348,895,1389,1117,-561,-2298,-1777,-418,609,1229,1387,1264,1138,1066,970,880,859,781,605,583,515,475,571,508,479,462,305,138,-50,-266,-451,-659,-927,-858,-1096,-927,-269,-125,-222,-293,-314,-463,-451,-546,-457,-350,-61,-14,-59,-136,-190,-151,-231,-398,-560,-537,-772,-796,-494,-34,538,883,591,-2397,-3354,-1803,-776,5,372,446,596,749,730,478,-121,-796,-747,-176,365,623,667,699,828,964,1018,1018,1067,985,772,639,584,577
2018-05-17,13:32:21.720,609,622,520,404,396,446,370,371,297,272,299,253,152,62,101,5,-68,-8,9,32,-7,-194,-419,-832,-2089,-1637,-150,890,778,-1554,-3259,-2288,-949,13,661,825,755,857,993,924,785,627,548,453,150,248,303,182,-33,240,471,279,204,-7,125,177,-24,-91,-67,0,-18,31,91,-162,-1264,-1867,-1513,-915,-256,126,266,301,363,348,386,579,717,747,663,555,542,721,913,835,745,701,539,460,387,314,236,164,103,72,93,0,31,-28,-19,-71,-99,-161,-353,-741,-1069,-1911,-1467,-284,-58,-228,-316,-359,-449,-461,-377,-236,-11,3,144,235,44,-124,-112,-69,242,641,746,-1479
2018-05-17,13:32:22.494,-3765,-2790,-1571,-557,-182,-329,-242,18,150,142,195,232,289,468,408,429,316,-419,-1439,-1485,-732,-76,205,174,61,-32,36,129,220,352,517,545,557,634,832,987,1026,888,707,562,460,381,244,131,-4,51,-47,-187,-80,-111,-226,-274,-278,-170,-129,-81,228,498,9,-2593,-4158,-3119,-1569,-523,94,303,248,410,617,585,679,587,582,804,894,825,667,367,338,311,318,343,342,217,132,-28,-48,-260,-292,-187,-184,-166,-108,-41,35,35,-168,-610,-1462,-1847,-1248,-591,-105,-23,-181,-180,38,176,259,409,523,763,1016,920,1234,1825,1974,535,-2054,-2220,-1044,-278,289,487,444,478,478,400
2018-05-17,13:32:23.531,412,343,322,358,336,297,281,302,62,-156,-1014,-2034,-1021,155,180,-101,-220,-252,-378,-247,-420,-395,-201,-202,-103,26,119,145,80,-244,-488,-412,-201,-402,-516,-472,-840,-898,-748,-686,-245,-119,-334,182,1019,1427,1097,-1426,-2883,-1612,-658,-782,-1134,-1055,-521,121,394,473,510,564,582,595,610,729,886,970,1078,1095,1118,1036,914,757,574,392,248,151,107,46,22,-18,-65,-127,-27,26,-54,-55,-6,-48,-133,-292,-394,-510,-1548,-1593,-848,-323,-133,-49,50,214,116,137,193,139,344,481,475,562,610,522,363,343,314,329,357,135,-49,-94,-70,83,-82,-12,199,139,120,84,106,127
2018-05-17,13:32:24.569,184,199,74,-412,-807,-1023,-716,-462,-382,-214,-6,116,196,407,567,707,1147,1704,1760,638,-1651,-1936,-706,364,875,1007,905,693,690,569,499,508,451,269,213,234,193,103,99,168,95,-129,-450,-666,-1041,-659,-147,-275,-427,-549,-472,-522,-413,-317,-158,112,-122,-18,69,177,241,112,-62,-301,-521,-519,-538,-487,-577,-642,-515,-561,-594,-373,-247,77,788,1374,880,-2111,-3040,-1521,-676,-439,-801,-1143,-726,-153,290,377,370,497,578,690,683,685,881,1106,1109,1125,1136,1080,895,821,540,341,172,-83,-129,-138,-108,-16,-69,-111,-129,-128,-144,-194,-192,-193,-208,-258,-435,-671,-736,-1798,-1721,-900
2018-05-17,13:32:25.606,-678,-369,-280,-207,-223,117,916,1479,521,-2085,-2419,-1094,-13,623,713,670,588,822,574,235,218,397,180,6,224,440,248,348,547,540,432,356,366,247,48,-274,-686,-1230,-1595,-1527,-1122,-626,-204,-43,83,96,182,314,408,563,665,598,488,445,544,659,795,744,655,579,501,457,490,1102,1754,1414,-1234,-3565,-2478,-1021,-218,224,337,323,369,269,34,-173,-419,-951,-291,489,585,399,334,198,35,-14,-16,103,206,161,59,41,31,-27,-164,-279,-391,-434,-162,-479,-816,-719,-327,-420,-461,-382,-439,-443,-129,-147,-219,-148,52,247,75,-431,-954,-982,-154,767,539,-1849,-3084,-1970,-908,-84
2018-05-17,13:32:26.643,427,670,766,917,1047,1141,1019,1030,1020,943,865,829,790,664,512,404,337,407,270,46,-33,-102,-172,-296,-307,-307,-333,-355,-379,-417,-432,-1598,-1980,-1040,-347,-240,-309,-238,-203,-380,-374,-191,-44,88,247,323,189,224,377,803,1249,1438,-1008,-3489,-2566,-1441,-488,302,386,483,238,145,325,414,338,291,336,368,322,0,-595,-791,-626,-421,-100,122,83,198,283,200,248,396,546,553,571,542,572,598,634,686,656,564,460,380,158,9,213,274,18,227,300,44,-113,-225,-77,354,1034,1415,325,-2608,-2747,-2350,-1663,-137,647,605,345,163,-31,-127,0,-4,210,385,391,494,618,617
2018-05-17,13:32:27.680,475,459,429,-130,-378,-270,-134,-230,-505,-526,-616,-775,-677,-739,-493,-325,-218,-81,125,104,10,150,278,-18,-1007,-1439,-978,-400,-95,22,153,90,111,461,1234,1742,1133,-1139,-2401,-1304,0,906,1280,1317,1269,1183,1032,816,868,657,564,553,467,460,348,275,200,178,163,59,11,-119,-400,-732,-699,-1218,-1762,-797,-167,-119,-284,-264,-48,-63,-370,-406,-205,-170,-117,131,84,28,49,-86,-205,-231,-260,-374,-516,-463,229,1036,1310,14,-3073,-3409,-1762,-751,-127,151,249,238,339,255,-58,-509,-1115,-1003,-503,-70,103,60,79,331,515,620,708,755,934,907,656,449,520,609,614,569,530,435
2018-05-17,13:32:28.717,321,225,176,158,201,177,19,-25,-65,-161,-209,-175,-166,-237,-166,-113,-382,-531,-852,-228,999,520,-2101,-2970,-1867,-662,-92,88,313,561,768,529,708,918,790,761,643,511,345,375,437,423,406,436,308,158,-49,-190,-31,0,-25,-67,-115,-57,-18,4,194,-292,-886,-1131,-725,-302,8,112,124,129,199,261,211,317,409,565,783,935,1105,1629,2166,2137,-286,-2531,-1835,-657,49,333,429,398,312,279,172,85,111,69,-44,3,-32,27,-191,-513,-459,-1288,-1208,-391,-80,-162,-320,-330,-220,-258,-272,-212,-118,-157,-83,110,269,292,276,101,-136,-103,-54,-51,-68,-177,-61,-204,-448,-96
2018-05-17,13:32:29.755,14,-185,106,884,1437,1248,-1272,-2886,-1847,-809,-255,-290,-957,-1138,-629,-92,211,154,195,461,581,490,659,823,1089,1359,1517,1536,1499,1307,1084,837,680,483,222,147,156,148,213,246,186,131,89,69,28,-86,-152,-112,-194,-310,-337,-423,-1259,-2222,-1517,-646,-235,-151,-15,492,888,696,-1483,-2919,-1518,-425,157,591,796,803,655,491,446,501,241,-176,-86,241,357,209,160,512,485,334,444,453,407,403,241,148,122,-478,-1557,-1765,-1059,-464,-58,173,188,233,169,62,207,354,534,811,951,963,842,783,710,689,541,369,409,976,1524,1523,-645,-3471,-2858,-1303,-396,21,123,225,268,112
2018-05-17,13:32:30.792,19,95,155,-251,-652,-2397,-2200,-744,-20,158,26,85,116,102,71,57,441,665,301,129,134,5,92,112,67,82,-10,-14,-15,-53,-270,-222,-306,-381,-388,-408,-184,-67,-240,-299,-164,-205,-179,258,620,209,-1527,-3758,-3281,-1661,-628,-119,167,480,692,795,1036,1216,1139,991,979,886,822,871,853,778,642,601,515,343,163,137,8,-49,-125,-353,-273,-255,-361,-327,-397,-350,-191,-163,-371,-603,-1924,-2371,-1744,-1015,-767,-985,-1064,-866,-659,-416,-8,234,179,754,1330,1705,141,-3081,-3019,-1321,-338,-103,121,158,133,87,410,416,502,506,557,602,612,650,743,905,999,1053,621,-132,-583,46
2018-05-17,13:32:31.829,10,-159,14,-23,5,156,93,156,471,684,800,886,955,874,807,770,603,641,524,355,248,174,106,87,89,104,192,847,1542,1692,-573,-3421,-2679,-1169,-249,382,285,42,-475,-1826,-1485,-559,56,224,147,33,-58,299,380,514,825,921,798,734,593,387,105,-97,-213,-239,-388,-250,-357,-201,130,181,153,88,56,6,-44,57,-12,-75,17,185,41,-146,-374,-1051,-1278,-864,-324,510,1286,670,-1690,-2966,-1687,-251,607,929,955,855,829,959,1026,927,736,654,579,478,479,476,436,328,301,255,145,8,-79,-251,-441,-431,-349,-490,-636,-762,-878,-1603,-1784,-1339,-707,-355,-193,-187,-143,-374
2018-05-17,13:32:32.866,-275,113,-198,-181,-26,214,206,324,94,-82,-38,678,1081,696,-2041,-3672,-2465,-1260,-335,-34,209,495,490,405,529,477,525,466,405,-5,-830,-832,-367,164,413,571,603,550,410,376,306,234,301,343,321,374,460,515,513,489,408,264,256,85,-98,-174,-202,-142,-143,-206,-210,-283,-185,-115,-123,-126,232,906,1427,541,-2454,-3886,-4236,-3061,-1302,-142,95,29,-262,-219,-7,170,357,678,777,723,824,764,475,401,324,216,52,-174,-73,-41,-59,-77,-264,-327,-86,103,125,165,103,28,42,63,39,11,-225,-880,-1562,-1513,-918,-141,147,42,71,197,264,455,1067,1767,1881,413,-2069,-2027
2018-05-17,13:32:33.903,-735,330,858,884,789,746,627,435,367,349,332,381,394,410,334,268,163,183,136,55,-152,-379,-569,-1481,-2581,-2035,-1516,-948,-445,-362,-211,-274,-203,-31,-58,399,636,515,481,305,156,216,347,71,-193,-259,-406,-400,105,186,682,1441,1427,-1230,-3627,-2388,-870,56,570,751,844,586,-424,-859,-591,-214,207,596,688,667,584,614,549,493,570,663,623,549,498,470,502,472,405,245,215,244,117,88,58,67,4,-57,-1,-179,-324,-257,-307,-483,-557,-497,-492,-549,-402,-1104,-1829,-879,537,1148,-328,-2977,-3142,-1675,-361,125,344,703,858,641,584,510,572,536,437,377,26,-382,21,250
2018-05-17,13:32:34.940,260,106,227,411,84,-270,-125,44,37,-165,-118,55,76,17,-105,-824,-1363,-1067,-620,-257,-13,50,-136,-138,-10,111,263,379,439,494,526,480,542,1048,1673,1835,260,-2060,-2089,-909,7,456,658,631,414,312,312,303,251,253,241,147,137,194,193,153,-545,-1467,-1158,-714,-432,-176,-31,-60,-90,-2,-24,-110,136,335,184,287,417,447,346,260,87,-112,-195,-511,-631,-559,-386,-178,-241,-174,-103,-115,335,1244,1523,-29,-2851,-2765,-1236,-215,234,-137,-994,-694,-348,72,491,514,302,257,417,446,475,580,801,939,1044,1040,963,870,747,483,334,295,141,6,-4,-18,-64,-143,-151,-160
2018-05-17,13:32:35.978,-128,-100,-44,-186,-288,-288,-346,-407,-364,-175,-837,-1551,-1164,-450,49,444,1042,1272,-415,-2995,-2565,-887,-96,502,936,817,640,488,488,346,335,431,116,93,241,238,527,450,418,385,305,306,219,171,205,280,266,111,-290,-852,-1362,-1133,-663,-155,139,276,382,473,507,387,397,468,421,481,548,538,612,626,538,423,466,972,1563,1439,-1232,-3230,-2061,-700,13,432,614,591,571,488,378,335,324,195,98,-223,-1602,-1591,-783,-218,73,290,335,204,-74,-117,180,391,391,563,474,380,417,388,175,167,192,107,-16,-90,15,112,104,-144,-159,11,-30,-30,-46,92,131,299,840,1432
2018-05-17,13:32:37.015,1376,-1499,-4187,-3498,-2022,-783,198,540,568,798,959,935,876,925,889,822,801,1009,1291,1326,1234,1131,990,832,698,470,200,122,-3,-70,-47,-159,-187,-135,-106,-135,-154,-218,-297,-365,-648,-639,-973,-1257,-548,-78,32,-132,-321,-542,-712,-441,305,983,1680,1816,-995,-3538,-2624,-1287,-497,-104,-128,-174,-126,-300,-504,-322,-84,-95,-44,13,37,-73,255,342,324,315,387,285,237,-364,-1303,-1664,-1328,-804,-269,85,164,246,358,407,326,401,440,507,575,752,906,825,707,571,475,362,250,120,-42,6,607,1132,1271,-776,-3545,-2961,-1408,-362,211,334,211,160,233,-37,-266,-63,-594,-1023,-331,-109
2018-05-17,13:32:38.052,-16,209,421,380,199,124,245,384,270,-7,-129,-137,-74,-5,-16,31,-34,-70,-154,-559,-459,-154,-43,-287,-294,-323,-295,-239,-399,-302,107,-76,-127,-63,289,699,538,-255,-2380,-4099,-2998,-1410,-414,114,462,886,1375,1605,1672,1522,1312,1316,1265,1203,1151,1024,863,743,690,517,312,332,119,45,-43,-87,-102,-65,-41,-67,-126,-178,-182,-124,-71,-253,-577,-1167,-2392,-2266,-1219,-393,-240,-557,-901,-770,-625,-374,-188,234,928,1360,1636,-298,-3150,-2615,-1019,-360,-140,-24,350,363,185,182,130,125,503,553,374,367,356,366,407,506,565,259,-221,-478,-752,-831,-535,-277,-370,-392,-130,78,231,429
2018-05-17,13:32:39.089,666,868,885,886,955,951,771,657,574,361,251,193,125,35,20,-104,-34,576,1099,1164,-823,-3426,-2808,-1356,-519,-6,140,-27,-550,-2268,-2250,-1363,-760,-199,43,85,165,386,675,932,805,728,864,804,495,357,319,263,388,390,237,7,1,73,225,261,183,151,327,269,136,107,118,47,-64,-87,-199,-467,-424,-602,-937,-384,692,1271,565,-1648,-2995,-1866,-418,692,1409,1618,1485,1458,1513,1420,1228,1051,925,722,667,682,528,383,368,423,385,252,142,-15,-179,-401,-549,-569,-520,-463,-729,-695,65,584,572,263,-120,-350,-229,-162,-171,-171,95,-7,-270,-345,-138,48,-123,-83,119,440
2018-05-17,13:32:40.126,1059,1068,-2091,-4186,-2528,-1353,-801,-249,95,0,17,331,389,334,366,348,328,323,281,113,-125,-124,-442,-425,-66,62,-45,-140,-221,-47,235,593,1027,1326,1261,1146,1087,1034,876,674,463,204,-44,-234,-296,-359,-471,-502,-519,-588,-655,-618,-545,-317,318,838,618,-2032,-3701,-2783,-1374,-1072,-1094,-415,-59,41,255,253,26,-1,299,517,464,348,359,385,461,635,320,60,112,26,-299,-212,-245,-386,-299,-116,-72,13,43,-72,-139,-158,-115,-51,-37,-93,-298,-558,-617,-257,-355,-615,-460,-311,-375,-132,379,1170,1423,687,-1167,-1788,-564,519,1130,1350,1249,1105,904,763,626,492,483,482,338,241
2018-05-17,13:32:41.164,265,333,228,293,139,121,137,-32,-194,5,-233,-703,-1109,-1962,-1727,-1080,-676,-270,-153,-332,-604,-435,-78,283,280,-16,137,-12,142,72,29,-35,-203,-392,-421,19,614,1273,653,-2849,-4022,-2260,-615,273,495,514,623,670,571,665,811,937,778,433,-206,-634,-385,152,510,661,698,655,630,722,865,1129,1407,1449,1405,1311,1223,1203,945,728,487,221,88,58,-209,-482,-558,-651,-686,-672,-590,-374,-378,-464,-433,-360,-48,468,655,-769,-4579,-4923,-2796,-1101,186,417,132,31,94,435,718,914,843,846,755,463,415,530,474,334,201,-105,-79,-96,-159,-25,194,319,335,0,-12,64,31,-120
2018-05-17,13:32:42.201,-58,-170,-106,-201,-449,-776,-1156,-1305,-1164,-812,-624,-450,-325,-76,171,350,639,1364,2182,2203,564,-1933,-1977,-797,160,686,761,645,591,577,461,262,154,97,93,90,92,175,235,206,105,137,-85,-461,-1034,-1820,-1419,-761,-565,-140,35,186,36,-174,163,473,320,49,135,369,478,284,159,28,-40,21,-385,-574,-248,-203,-485,-95,599,1413,1552,-1398,-3702,-2287,-888,-101,398,604,677,611,-171,-911,-872,-245,127,427,496,614,843,923,837,750,961,1173,1168,1101,960,882,707,524,395,193,29,-58,-246,-108,10,-135,-112,-210,-305,-271,-334,-355,-272,-310,-305,-459,-560,-444,-563,-748,-307,-259
2018-05-17,13:32:43.238,-85,-666,-2607,-2835,-1536,-719,1,314,378,601,817,884,663,513,497,573,297,206,490,355,150,515,538,311,99,147,112,17,-50,-3,-32,-7,-16,-54,-20,-27,-171,-574,-562,-415,-756,-801,-450,-278,-400,-305,-117,-65,-86,21,334,670,840,922,1436,1879,1451,-1276,-2739,-1611,-440,237,446,496,471,453,417,260,137,148,215,236,208,224,280,355,196,-69,-267,-1836,-2442,-1617,-1100,-725,-289,-303,-380,-58,278,308,216,328,241,276,255,42,41,-4,30,-276,-647,-585,-337,81,-265,-117,-67,-19,772,1392,1425,-901,-3156,-2059,-623,-55,-89,-19,-170,-248,44,202,358,492,520,557,701,816
2018-05-17,13:32:44.275,895,1001,1004,966,884,903,706,421,280,179,70,-26,-31,-72,-177,-19,-17,-97,-195,-165,10,-67,-47,-141,-173,-228,-333,-669,-628,-1259,-2559,-2025,-1054,-494,-248,544,1230,763,-1778,-3029,-1607,-340,321,647,673,751,705,745,851,648,199,-17,50,199,465,484,824,601,259,298,356,113,141,87,-10,-75,-120,-257,-500,-748,-1050,-1195,-827,-338,-186,-79,10,306,472,455,519,538,555,556,551,530,465,576,608,667,1094,1590,1634,-484,-3187,-2536,-999,-140,330,416,448,455,348,286,349,321,178,65,-649,-2162,-1690,-722,-262,-37,116,68,-112,45,317,396,359,90,86,103,60,55,17,61
2018-05-17,13:32:45.312,-225,-313,-342,-493,-650,-449,-235,-444,-504,-372,-54,-110,-26,173,257,505,1074,1863,1702,-1124,-4146,-3670,-1889,-572,189,579,770,885,1029,857,629,722,787,861,1018,1221,1290,1157,1096,1046,873,659,504,379,215,44,-159,-168,-246,-292,-144,-55,-56,-99,-137,-268,-235,-427,-458,-1405,-2365,-1563,-822,-595,-470,-410,-538,-551,-393,186,424,524,1191,1676,1,-2762,-2354,-1100,-228,100,-114,-143,117,-121,-257,201,194,72,-43,89,202,179,344,499,471,509,464,294,93,-247,-1300,-1727,-1359,-728,-222,-53,55,125,172,288,407,569,701,793,884,859,692,673,643,614,495,408,324,359,325,588,1262,1741
2018-05-17,13:32:46.350,846,-2662,-3532,-1819,-595,-13,281,313,411,398,319,34,-1079,-2080,-1102,-168,201,278,132,38,-31,221,489,417,449,562,509,345,257,99,-96,-466,-571,-339,-393,-297,-71,-88,-67,-192,-327,-190,-114,-234,-28,199,162,267,339,555,407,-46,2,368,-785,-3249,-3052,-1220,-123,466,632,553,572,776,949,1050,1152,1188,1238,902,874,877,831,920,990,776,610,401,289,214,103,-45,-117,-171,-334,-320,-255,-236,-310,-437,101,189,2,24,-210,-127,53,-465,-1001,-785,-395,-486,-596,-449,-218,187,504,945,997,-1475,-3881,-2976,-1499,-1059,-662,-239,-297,-238,82,128,-45,273,258,283,310,341,511,591
2018-05-17,13:32:47.387,840,349,-944,-1261,-1054,-648,-211,109,217,241,236,307,483,598,591,624,630,567,671,708,623,506,408,274,233,122,-77,-69,175,66,-56,7,654,1264,1403,-648,-3279,-2687,-1170,-199,433,472,214,70,-209,-1877,-2165,-1177,-389,-185,85,344,313,264,363,574,717,675,695,522,410,428,127,-124,-132,-295,-434,-240,-131,-137,248,274,38,-4,50,65,194,22,10,67,-25,157,110,-617,-1688,-1434,-166,821,778,-1223,-2608,-1581,-283,571,1045,1141,1204,1068,951,1160,1152,1053,1094,1129,1031,932,894,831,769,742,587,523,426,301,116,232,185,-109,-130,-15,-36,-131,-284,-1246,-1910,-1136,-526,-232
2018-05-17,13:32:48.424,-220,-295,-565,-382,5,107,159,168,259,160,148,442,995,1303,693,-2030,-3180,-1886,-897,-299,81,250,272,456,621,357,535,646,587,468,554,603,603,365,124,-683,-1063,-835,-297,-33,-57,-131,-2,310,466,524,582,602,563,555,597,662,644,513,344,254,148,43,47,112,79,190,37,10,94,514,1128,1423,460,-2385,-3062,-1541,-458,58,45,-1843,-3419,-2322,-1212,-609,-202,-65,55,335,561,774,829,836,747,883,996,654,512,165,-172,108,-1,-453,-496,-377,10,195,314,225,73,127,125,146,163,15,1,121,245,196,-509,-1679,-1600,-1112,-439,676,1671,1283,-1134,-2628,-1666,-698,200,825
2018-05-17,13:32:49.461,940,1098,1278,1405,1273,1226,1106,974,800,756,705,637,554,533,462,402,357,324,177,-78,-294,-396,-411,-380,-375,-258,-459,-1281,-999,-334,28,107,227,137,-15,-310,-562,-257,-98,-52,197,400,326,165,314,985,1546,776,-2720,-3817,-2219,-892,312,492,441,347,223,241,424,414,470,417,410,657,263,-324,-663,-682,-457,-143,163,243,84,-3,125,264,347,316,356,474,499,600,614,688,629,489,341,267,144,50,-49,-68,-56,-33,-52,-35,-113,-54,429,994,1240,-509,-3057,-2465,-1351,-689,-1594,-2239,-1537,-768,-288,17,401,580,527,443,486,956,1054,684,746,1000,786,677,669,338,-30,-220
2018-05-17,13:32:50.498,-483,-366,-199,-139,120,132,-58,-141,-66,-36,-77,-177,-268,-315,-256,-306,-515,-924,-1563,-1645,-1131,-571,-220,421,1270,1232,-666,-2760,-2407,-1025,-169,588,843,900,1075,1063,970,829,592,443,348,306,240,316,294,163,81,107,95,17,-27,-239,-372,-397,-578,-859,-1545,-2681,-2072,-1237,-733,-392,-233,-365,-341,-137,-11,224,479,68,78,262,219,23,15,14,161,697,1413,774,-2659,-3434,-1747,-719,-109,431,450,480,597,507,383,343,329,489,300,-123,-300,-488,-371,-116,258,306,157,59,86,82,293,322,460,573,661,704,741,776,707,666,518,285,188,186,31,12,251,807,1232,673,-1922,-3556
2018-05-17,13:32:51.535,-2182,-844,-169,185,352,168,-148,-648,-1774,-1138,-30,245,123,275,600,800,791,699,926,788,667,801,743,661,651,281,-2,112,-68,-397,-109,-247,-537,-338,-46,-101,50,23,-35,-78,-138,-60,119,86,-23,-91,-492,-635,-862,-947,-513,-162,-124,126,794,1278,921,-1056,-2677,-1711,-237,765,1327,1395,1307,1186,1095,1007,715,392,344,454,445,421,322,75,-70,-27,30,32,-107,-245,-271,-372,-616,-993,-1162,-1879,-1651,-826,-196,-50,-76,-308,-389,-191,-119,-106,-123,-313,-239,-2,-30,77,-36,-326,-201,134,607,878,601,-1659,-3846,-2532,-989,-183,231,376,283,369,504,390,325,364,120,-268,-516,-631
2018-05-17,13:32:52.573,-744,-501,-164,43,11,81,251,479,501,433,371,414,397,355,451,543,551,404,261,221,130,141,84,9,-83,-159,-224,-392,-388,-354,-381,-318,-171,430,977,866,-1357,-3497,-4035,-3351,-1638,-552,-188,-40,103,156,203,177,391,613,686,765,879,952,732,529,649,548,415,69,-88,-110,-89,-75,-78,-94,-323,-147,116,78,150,166,202,303,188,-103,-839,-1109,-1106,-922,-364,-48,110,248,254,483,1144,1764,1265,-1076,-2333,-1113,93,888,1331,1258,1042,897,734,597,466,407,541,463,434,360,192,337,315,268,203,67,-117,-264,-506,-800,-929,-1875,-2323,-1525,-894,-652,-379,-116,-112,-203,-115,160
2018-05-17,13:32:53.610,397,243,117,170,142,188,214,106,321,209,344,916,1161,253,-2383,-2898,-1438,-440,175,384,525,517,486,579,650,550,321,-154,-694,-835,-439,12,274,268,338,485,568,683,649,746,859,880,852,819,746,703,662,552,492,374,231,254,198,95,-23,-11,34,-131,-91,-150,-189,-238,-239,121,817,1238,-361,-3208,-4104,-3938,-2605,-1105,-453,-223,205,393,472,580,528,743,867,847,776,889,845,861,645,608,623,241,135,-64,-44,23,-55,-220,-271,-145,-84,-52,-162,-144,17,14,9,50,-85,-426,-1268,-1495,-1026,-889,-495,-96,89,536,1338,1764,1043,-1289,-2306,-1039,237,961,1246,1128,971,923
2018-05-17,13:32:54.647,889,799,644,366,312,238,174,247,212,278,238,136,101,130,-19,-115,-140,-308,-628,-870,-1705,-2542,-2194,-875,3,72,-284,-329,-231,-47,99,320,476,181,1,108,72,-69,-15,-136,296,1034,1269,23,-2973,-3306,-1461,-298,428,624,631,543,530,499,479,599,636,444,5,-728,-948,-671,-185,70,45,49,241,526,624,489,548,591,579,518,566,664,716,596,561,473,345,353,384,315,280,291,157,76,103,131,84,57,113,669,1270,1157,-1254,-3208,-2861,-3055,-1934,-568,50,306,401,535,520,471,638,754,892,991,936,990,1046,868,645,469,462,243,-118,-429,-281,-36,53,-139,-211,-143
2018-05-17,13:32:55.684,-115,-243,-228,-159,-76,6,41,-145,-927,-1441,-1352,-939,-333,-145,-62,34,184,803,1294,1113,-933,-2841,-2163,-712,259,804,947,828,628,661,661,431,406,459,343,357,502,499,357,313,456,525,328,116,-20,-208,-341,-470,-553,-862,-1869,-1443,-746,-321,-157,-10,-12,54,-69,-182,33,20,38,258,21,48,95,92,-2,393,1004,1043,-46,-3039,-3322,-1639,-562,141,440,471,436,399,589,483,385,464,516,493,335,-405,-1319,-1227,-671,-82,184,326,330,307,394,383,344,389,429,372,399,425,402,364,265,199,129,127,74,-87,-157,-169,-124,-131,-40,-88,-89,138,720,1212,1032,-1767,-3360,-2093
2018-05-17,13:32:56.721,-994,-345,-1231,-2421,-1961,-1221,-620,-344,-270,144,449,511,514,582,656,694,908,1062,765,516,614,373,-9,20,303,77,-15,284,157,121,241,111,31,-9,64,146,130,137,106,-189,-1120,-2071,-1716,-974,-381,90,888,1556,1010,-1483,-2838,-1500,-452,533,1106,1081,1073,996,897,770,794,795,620,549,533,505,665,635,610,626,481,355,229,93,-39,-247,-348,-401,-384,-350,-148,-1033,-1180,-597,-131,-17,-168,-280,-555,-523,-82,22,152,116,117,82,33,144,655,1174,1229,-1752,-4384,-2725,-1187,-642,-294,-96,179,196,73,173,204,128,130,262,224,478,546,213,-829,-1344,-1109,-807,-391,-155,-96,151
2018-05-17,13:32:57.759,130,299,505,434,340,408,440,433,395,390,383,349,263,210,114,104,75,30,9,-48,20,44,-38,-76,-133,-99,-38,-156,-213,-206,-274,-391,-431,-1328,-1760,-1215,-667,-450,-206,-130,-27,79,213,252,168,240,401,535,425,319,317,297,265,166,-97,-174,-22,-41,238,52,-4,117,57,254,1000,1564,1034,-1474,-2582,-1310,-387,-339,-736,-787,-303,171,422,599,838,952,1096,1048,899,854,803,809,752,712,780,645,680,579,459,297,171,105,2,135,290,184,112,199,154,98,-2,-40,-133,-254,-159,-346,-606,-1561,-2238,-1672,-806,-302,-11,257,761,1152,392,-2103,-2919,-1455,-224,646,866,753
2018-05-17,13:32:58.796,610,487,318,209,-78,-315,-49,38,172,201,183,213,241,480,632,331,66,61,53,-101,-49,-305,-716,-1284,-1758,-1420,-781,-460,-183,-78,-104,-2,71,178,257,291,415,486,405,467,582,672,918,1394,1709,971,-1869,-2854,-1581,-558,45,321,13,-56,244,210,122,235,141,5,-169,-278,-237,-413,-738,-539,-54,250,202,288,482,357,227,135,249,274,252,343,372,417,469,431,385,64,-175,-464,-278,31,-130,-153,-80,19,-95,-122,179,851,1446,1005,-1866,-2999,-1620,-889,-777,-801,-1011,-799,-349,-44,111,184,362,496,502,594,789,1003,1190,1118,751,708,651,616,596,341,251,180,46,-35
2018-05-17,13:32:59.833,-96,-193,-149,-147,-289,-272,-148,-201,-334,-386,-398,-400,-364,-367,-354,-1086,-2026,-1264,186,1245,1437,-130,-2921,-2940,-1460,-503,17,490,844,862,742,652,574,716,680,456,294,145,78,-142,-377,-65,321,202,5,0,-50,-268,-447,-33,-119,-150,20,227,109,-530,-1417,-1594,-1139,-686,-455,-382,-391,-342,-251,-50,150,263,410,663,1059,1735,2361,1802,-1076,-2251,-1154,-176,542,855,921,893,880,813,636,506,412,379,272,153,177,139,174,207,21,-191,-309,-1287,-1610,-961,-434,-273,-121,13,-357,-316,-216,-245,-74,224,414,508,561,625,460,204,182,146,-62,-177,-167,-99,-1,-74,-409,-314,-90,-116
2018-05-17,13:33:00.870,-30,-159,-103,37,85,123,126,238,97,-253,-926,-1199,-907,-356,-45,60,119,200,185,269,270,318,359,572,626,516,623,789,704,576,473,467,831,1441,1618,450,-2608,-2996,-1386,-347,257,473,488,447,354,268,261,306,275,226,85,183,-491,-660,-46,122,-4,-161,49,81,61,-11,20,-185,-275,-60,244,359,361,352,367,390,304,129,-256,-410,-299,-374,-233,-93,-105,-91,-72,44,-48,-299,71,944,1523,964,-1734,-2543,-1388,-592,-303,-584,-795,-545,44,440,410,440,477,540,589,650,680,709,799,973,1148,1089,882,716,582,414,237,119,28,-11,-26,44,74,101,107,70,82,3
2018-05-17,13:33:01.907,-132,-162,-303,-340,-195,-129,-57,-193,-395,-555,-498,-954,-951,-542,-1885,-3366,-2496,-1042,-239,-13,34,-25,85,329,613,757,871,910,804,588,512,523,554,597,676,422,200,232,236,6,-376,-537,-458,-457,-416,-221,-220,-120,-52,126,316,192,-522,-1550,-1436,-828,-338,-28,102,99,186,191,313,927,1191,243,-2042,-2540,-1115,-69,568,862,867,733,788,741,615,644,630,500,468,411,281,359,481,507,483,398,273,116,-45,-208,-328,-421,-503,-593,-719,-881,-1325,-1507,-890,-298,-189,-424,-676,-767,-657,-543,-294,-243,-258,-149,-93,23,686,1429,1677,-169,-3029,-2745,-1402,-546,-1,75,19,138,300,159
2018-05-17,13:33:02.944,151,293,266,96,102,408,276,427,717,844,462,-214,-923,-942,-644,-502,-312,-179,-112,-2,125,98,125,114,155,239,316,336,349,399,421,320,233,224,229,203,149,289,887,1420,960,-1935,-3334,-2024,-787,28,371,366,336,295,337,448,323,144,14,15,-701,-1038,-426,-18,71,171,407,397,203,47,101,101,88,144,138,261,318,394,503,530,291,158,170,99,-75,-148,-197,-250,-330,-402,-401,-453,-468,-93,557,942,-494,-3700,-3847,-2141,-811,-433,-373,-388,-262,-132,170,447,623,799,985,1178,1348,1477,1422,1532,1570,1532,1512,1480,1255,1101,798,620,471,437,389,321,371,9,-184,-37
2018-05-17,13:33:03.982,-28,-95,-53,78,3,-33,103,326,388,361,519,823,1145,1497,1707,1278,-1165,-3065,-1918,-563,284,754,833,826,782,681,487,349,248,133,134,225,252,207,227,307,189,37,70,96,-52,-220,-387,-441,-485,-446,-522,-491,-547,-580,-538,-474,-459,-387,-468,-474,-487,-429,-422,-348,-368,-499,-555,-517,-110,625,1163,77,-2776,-2998,-1516,-550,-64,53,-30,-174,-192,-255,-280,-157,59,203,330,387,483,616,550,490,535,476,338,239,153,146,122,-40,-130,-204,-224,-201,-243,-340,-334,-417,-352,-295,-337,-393,-355,-204,-196,-207,-223,-181,-188,-58,475,1076,815,-1348,-2784,-1783,-684,23,440,522,495,542
2018-05-17,13:33:05.019,608,649,693,757,844,789,730,629,481,442,421,481,474,353,241,150,93,-19,-90,-144,-196,-202,-206,-230,-217,-244,-261,-251,-278,-308,-306,-360,-202,-187,-250,-247,-198,-147,-18,467,1166,1378,-384,-2851,-2426,-994,-256,202,278,241,262,298,305,309,357,352,291,313,319,238,141,40,-37,-26,-72,-128,-133,-114,-88,-88,-53,15,11,25,104,112,68,75,74,22,-7,26,-93,-135,-81,-23,-23,-74,-156,-126,117,864,1398,632,-2136,-3322,-1994,-832,14,475,409,240,271,397,462,350,318,361,276,401,364,376,426,472,461,363,242,168,122,-34,-135,-138,-192,-197,-97,18,72,78
2018-05-17,13:33:06.056,56,19,13,-82,-131,-204,-289,-270,-222,-269,-218,-283,-299,-302,12,695,1123,156,-2639,-3334,-1856,-796,-86,106,138,184,167,113,120,188,296,330,286,302,349,278,329,297,205,196,109,-35,-146,-194,-294,-356,-380,-409,-405,-409,-393,-390,-417,-434,-465,-547,-581,-572,-585,-580,-574,-610,-626,-621,-628,-466,171,869,774,-1573,-3379,-2206,-847,-3,329,416,441,484,561,571,565,591,608,609,642,639,676,709,717,675,557,446,445,382,276,183,150,29,-76,-110,-112,-154,-190,-107,-162,-196,-182,-145,-157,-154,-133,-81,-58,-53,-51,-70,-90,109,654,1179,807,-1663,-2940,-1733,-541,173,490,575
2018-05-17,13:33:07.093,639,621,545,480,449,391,428,478,433,396,449,463,520,519,475,408,333,241,169,92,88,66,-40,-135,-214,-134,-116,-147,-172,-140,-171,-164,-184,-171,-115,-184,-141,-114,-149,-124,-23,474,1013,957,-1043,-3112,-2293,-1064,-188,280,315,294,354,289,271,294,267,232,231,235,259,262,285,349,354,237,133,-17,-164,-325,-421,-504,-532,-485,-482,-409,-402,-397,-317,-370,-264,-225,-293,-324,-376,-334,-231,-222,-271,-278,-285,-285,-54,560,1170,947,-1509,-3114,-1934,-672,134,463,438,479,520,536,512,462,405,408,515,555,487,486,524,529,513,491,455,385,325,268,146,64,116,92,0,-19
2018-05-17,13:33:08.130,-50,-57,-74,-135,-21,-90,-125,-119,-164,-233,-175,14,-68,-144,-69,-40,124,703,1336,989,-1582,-2915,-1704,-499,173,373,342,320,335,359,391,448,521,562,552,571,604,641,648,657,632,608,594,561,535,447,376,318,223,133,47,17,-29,-49,-30,-40,-22,52,16,-30,-24,-6,20,88,78,106,116,52,189,787,1281,799,-1703,-2876,-1573,-472,214,511,534,476,448,493,509,447,420,412,441,391,374,435,435,461,495,414,330,245,136,8,-31,-129,-134,-218,-290,-284,-314,-368,-386,-364,-372,-456,-427,-434,-489,-453,-343,-347,-411,-391,-300,-275,25,632,922,-202,-2641,-2967,-1600,-434
2018-05-17,13:33:09.168,127,280,260,268,346,295,286,216,177,237,267,276,258,288,361,349,327,314,237,112,47,53,1,-81,-76,-36,-45,-162,-166,-136,-199,-277,-233,-270,-332,-424,-290,-358,-299,-244,-241,-156,-172,-61,402,1024,1098,-391,-2944,-2856,-1168,-94,340,511,491,467,479,508,461,451,480,462,467,558,522,559,603,599,597,510,430,249,165,122,27,-49,-62,-93,-129,-147,-154,-179,-208,-197,-178,-234,-267,-293,-329,-335,-280,-247,-246,-208,-188,-139,245,808,1036,-446,-3092,-2826,-1275,-310,189,321,296,326,343,320,310,374,369,333,332,323,319,339,427,491,450,334,293,173,36,-42,-149,-234
2018-05-17,13:33:10.205,-292,-323,-370,-359,-349,-367,-357,-328,-296,-397,-427,-417,-422,-373,-369,-379,-316,-306,-316,-181,344,974,897,-1603,-3372,-2102,-720,-4,211,261,280,277,264,310,286,256,288,275,268,299,292,347,408,405,371,290,213,163,108,33,-69,-150,-208,-239,-269,-301,-313,-308,-279,-264,-262,-254,-252,-272,-245,-214,-206,-203,-178,-99,-87,104,704,1199,488,-2274,-2874,-1418,-310,232,352,347,348,331,331,318,331,345,330,334,337,362,389,372,365,353,323,274,206,149,91,24,-56,-134,-192,-237,-271,-275,-266,-278,-268,-235,-281,-311,-332,-357,-259,-193,-227,-205,-194,-169,-53,387,929,892,-1461,-3203
2018-05-17,13:33:11.242,-1929,-599,168,362,411,407,429,442,428,413,405,394,435,442,436,423,470,522,529,523,489,441,381,286,190,89,-49,-162,-217,-224,-253,-194,-251,-275,-253,-239,-260,-275,-321,-328,-265,-245,-257,-237,-195,-165,176,836,947,-780,-3035,-2487,-1082,-105,348,403,366,394,400,390,390,407,334,296,319,363,434,473,565,517,459,388,326,210,161,87,-73,-116,-183,-232,-291,-285,-311,-313,-247,-284,-266,-284,-316,-340,-325,-278,-202,-209,-193,-207,-178,111,695,1005,107,-2383,-2980,-1532,-289,378,466,458,494,481,484,446,459,463,479,469,527,491,479,523,578,586,544,403,318,219,246,177
2018-05-17,13:33:12.279,25,-71,-43,-85,-151,-199,-133,-78,-110,-115,-124,-66,-145,-185,-118,-66,-87,-94,-17,-3,48,521,1100,1088,-1237,-3156,-2000,-584,232,478,583,535,538,517,498,504,455,477,468,422,460,484,479,496,490,445,385,293,183,120,63,12,-85,-154,-202,-240,-284,-265,-263,-246,-217,-281,-293,-283,-291,-264,-216,-201,-179,-177,-136,-64,267,840,1025,-809,-3001,-2260,-829,68,391,440,445,457,455,441,439,425,420,404,404,382,419,468,502,540,563,481,418,394,314,234,138,63,3,-73,-102,-109,-172,-211,-152,-126,-144,-158,-174,-199,-158,-93,-47,-85,-87,-55,-38,279,904,1116,-440,-2936
2018-05-17,13:33:13.356,-153,-198,-270,-329,436,493,513,577,562,505,463,428,463,461,445,489,579,604,630,605,476,368,295,234,122,-26,-122,-218,-237,-259,-304,-356,-378,-310,-276,-361,-357,-321,-356,-375,-305,-322,-301,-304,-290,-257,108,687,787,-582,-3000,-2974,-1338,-220,291,294,326,386,384,320,327,335,326,300,265,283,279,265,340,392,352,289,219,121,38,-66,-160,-211,-276,-337,-388,-374,-418,-384,-333,-367,-377,-389,-411,-454,-435,-372,-300,-283,-352,-326,-226,22,569,922,130,-2498,-3274,-1757,-443,200,436,435,415,426,411,401,379,370,356,377,406,404,430,444,458,452,370,264,169,136,106,-33
2018-05-17,13:33:20.045,352,142,-88,-148,-274,-461,-397,-349,-416,-377,-406,-523,-641,-519,-456,-457,-606,-680,-592,-669,-707,-708,-496,278,1048,1362,-1234,-3475,-1992,-746,-121,206,154,16,-160,-179,-455,-731,-588,-441,-546,-638,-696,-655,-401,-300,-366,-502,-594,-493,-588,-598,-647,-684,-746,-558,-324,-141,-19,86,169,231,269,273,191,201,340,508,589,659,698,696,768,1175,1831,2184,295,-2704,-1928,-302,634,1011,1093,1119,1125,1118,1133,1149,1179,1179,1077,973,895,832,790,746,690,631,535,424,325,226,89,-97,-209,-267,-363,-404,-430,-469,-391,-340,-415,-479,-508,-518,-566,-547,-353,-216,-127,-110,-162,205,934,1312,-670,-3690
2018-05-17,13:33:21.082,-2888,-1179,-58,643,716,872,1217,1117,667,420,280,181,118,-109,-311,-300,-471,-327,-544,-701,-626,-390,-739,-1039,-1119,-1175,-1325,-1404,-1420,-1409,-1457,-1366,-1244,-1146,-1033,-887,-661,-502,-375,-112,15,182,275,358,445,699,1282,1653,756,-2091,-2499,-671,511,1093,1281,1293,1281,1248,1298,1390,1467,1503,1496,1483,1460,1428,1392,1337,1246,1163,1064,931,782,642,508,370,250,159,54,-47,-162,-238,-218,-187,-107,-106,-185,-287,-345,-362,-465,-513,-419,-338,-340,-183,195,611,363,-2607,-3544,-1929,-727,-154,165,343,428,349,319,520,519,401,367,431,255,133,-183,-293,-263,-150,-184,-262,-414,-525,-909,-1300,-1346,-1349
2018-05-17,13:33:21.569,-1397,-1338,-1365,-1474,-1656,-1644,-1559,-1580,-1580,-1405,-1175,-933,-630,-241,42,247,458,707,1299,2097,2397,362,-2446,-1577,94,969,1267,1377,1429,1430,1433,1428,1419,1414,1426,1368,1319,1385,1475,1525,1598,1601,1545,1410,1250,1040,874,729,533,396,229,87,40,-46,-98,-23,-50,-96,-70,-83,-217,-263,-208,-289,-445,-494,-476,-505,-287,363,936,-599,-3755,-3458,-1773,-701,38,269,371,173,85,214,80,105,294,406,211,430,220,44,-152,-264,-357,-469,-548,-505,-419,-518,-713,-606,-510,-643,-606,-449,-494,-546,-596,-549,-572,-625,-492,-443,-470,-303,-70,170,474,628,627,1093,1731,1596,-697,-3048,-1916,-241,726,1161
2018-05-17,13:33:22.607,1163,1093,1038,1014,1011,1023,1065,1093,1081,1064,1092,1152,1174,1209,1253,1216,1126,1020,922,818,721,630,531,460,365,294,246,221,259,268,214,131,76,40,28,45,146,72,47,169,373,610,942,1279,828,-2116,-3542,-2074,-762,-71,239,235,223,288,383,397,317,399,482,405,383,447,436,220,15,-2,-257,-577,-718,-836,-960,-991,-880,-850,-1044,-965,-745,-739,-629,-488,-439,-295,-309,-579,-807,-838,-641,-422,-284,-168,-49,32,281,934,1583,959,-2243,-3125,-1385,-94,564,740,773,801,816,771,654,614,652,676,671,619,625,688,749,810,783,722,663,529,378,288,185,43,-41,-119,-220,-245
2018-05-17,13:33:23.644,-244,-245,-227,-253,-295,-340,-428,-570,-601,-581,-457,-494,-338,-71,53,223,580,638,-861,-3299,-2818,-1235,-425,-44,75,44,189,187,194,226,123,157,215,357,357,173,-60,-173,-304,-147,22,-162,-562,-698,-848,-925,-971,-1092,-1271,-1278,-1136,-1060,-1081,-1096,-1027,-1012,-989,-834,-787,-626,-412,-226,-87,67,194,386,778,1449,1674,-90,-3003,-2707,-776,383,933,1107,1140,1154,1165,1143,1109,1080,1051,1028,1031,1054,1111,1173,1227,1220,1155,1035,888,747,602,455,307,181,126,94,78,36,-10,-54,-90,-167,-296,-366,-423,-464,-459,-451,-465,-467,-373,-300,-201,291,1108,1278,-1179,-3631,-2588,-1163,-344,-87,-12,-16
2018-05-17,13:33:24.681,100,7,78,238,64,145,38,-231,-165,-27,-261,-461,-379,-426,-605,-654,-663,-1002,-1214,-1288,-1510,-1737,-1865,-1655,-1724,-1655,-1451,-1462,-1338,-1273,-1118,-972,-835,-516,-187,30,194,387,537,727,1287,2088,2372,299,-2425,-1609,84,1089,1485,1557,1545,1510,1479,1452,1436,1450,1410,1371,1390,1401,1390,1405,1405,1326,1157,1010,892,718,546,357,188,-12,-206,-304,-230,-108,-154,-191,-212,-218,-208,-220,-368,-463,-479,-443,-417,-506,-647,-529,-380,-93,618,719,-1990,-4124,-2789,-1349,-441,108,197,243,169,173,194,85,22,-64,-260,-207,-43,-377,-532,-524,-658,-726,-696,-921,-1106,-1352,-1366,-1284,-1435,-1633,-1622,-1517,-1510,-1427
2018-05-17,13:33:25.718,-1411,-1313,-1104,-999,-873,-695,-568,-323,-59,95,278,426,535,693,1232,1896,1923,-326,-2577,-1512,135,1077,1482,1533,1492,1468,1421,1404,1379,1341,1313,1297,1275,1222,1205,1202,1159,1084,924,734,563,418,287,163,36,-70,-157,-220,-273,-326,-335,-326,-327,-380,-425,-509,-611,-824,-704,-592,-605,-457,-373,-333,-133,355,985,551,-2516,-3491,-1970,-700,-69,21,120,342,271,15,-59,-48,-61,-17,-143,-122,-146,25,86,47,58,-120,-244,-320,-580,-825,-844,-742,-988,-1436,-1518,-1342,-1316,-1292,-1316,-1302,-1220,-1096,-969,-854,-630,-312,-21,225,454,659,862,1217,1911,2500,1867,-1035,-2192,-427,992,1723,1994,1992,1956,1935
2018-05-17,13:33:26.755,1910,1880,1849,1750,1699,1751,1760,1743,1792,1817,1772,1696,1553,1387,1161,977,777,562,412,341,186,71,14,-29,-62,-67,-143,-264,-400,-582,-481,-226,-250,-236,-236,-257,-399,-472,-94,526,909,-897,-3891,-3362,-1569,-591,-21,255,345,404,386,295,321,281,126,216,221,168,-13,-32,137,-70,-253,-386,-671,-729,-915,-1047,-1124,-1205,-1278,-1209,-1227,-899,-782,-916,-830,-751,-672,-623,-599,-484,-311,-161,-5,70,133,276,403,784,1439,1898,361,-2669,-2400,-645,469,957,1045,1046,1062,1092,1104,1114,1122,1105,1073,1092,1113,1152,1215,1261,1173,1039,882,708,548,418,298,168,63,-11,-78,-128,-141,-173,-170,-161
2018-05-17,13:33:27.792,-162,-194,-235,-309,-392,-384,-335,-370,-312,-135,-188,-241,216,865,996,-1507,-3612,-2511,-1236,-392,-3,58,173,125,60,82,228,220,258,290,230,188,293,220,63,27,-116,-262,-317,-482,-790,-992,-1022,-1167,-1232,-1206,-1171,-1026,-812,-833,-890,-842,-820,-762,-701,-597,-373,-218,-92,-4,150,213,378,1025,1584,1397,-1056,-3082,-1836,-316,565,947,1000,1007,1036,995,951,982,1032,1077,1144,1214,1238,1332,1233,1092,1091,1028,810,565,355,255,268,274,308,301,175,92,47,7,-18,-24,-48,-139,-230,-271,-211,-130,-79,-162,-245,-106,-153,-258,381,1124,427,-2826,-3524,-1793,-484,125,198,85,39,-15,111,95
2018-05-17,13:33:28.830,97,379,383,150,-45,15,220,123,-4,-125,-267,-384,-540,-800,-1090,-1416,-1373,-1332,-1415,-1417,-1303,-1117,-986,-1072,-967,-863,-762,-629,-460,-484,-583,-586,-520,-418,-301,-175,262,1022,1630,302,-2881,-2822,-1000,176,651,770,815,828,843,850,824,819,830,882,970,1049,1054,1082,1145,1192,1138,1072,982,928,862,834,766,575,330,137,49,-40,-86,27,164,187,188,112,53,59,45,49,142,135,55,108,145,352,975,1143,-1579,-3735,-2429,-918,-45,292,429,337,200,71,211,104,-23,147,237,163,92,13,237,408,291,284,124,-261,-396,-294,-778,-1315,-1576,-1638,-1604,-1574,-1556,-1356,-1200,-928,-932,-703
2018-05-17,13:33:29.867,-547,-571,-484,-399,-388,-377,-341,-348,-337,-3,706,1279,528,-2603,-3613,-1758,-305,469,763,768,780,841,822,788,757,809,891,957,1016,1044,1094,1150,1068,954,912,801,637,497,380,283,211,146,126,129,104,80,40,39,167,71,21,46,4,-15,-1,23,17,37,55,97,401,872,1143,-300,-3009,-2803,-1231,-151,320,441,318,209,146,106,130,112,21,4,139,235,220,181,179,304,571,477,119,-144,-80,-427,-731,-878,-989,-860,-989,-1049,-1075,-968,-918,-764,-584,-563,-715,-684,-418,-417,-419,-331,-246,-60,113,432,1004,1454,-267,-3379,-2947,-931,366,914,1067,1069,1131,1163,1137,1093,1106,1059
2018-05-17,13:33:30.904,1037,995,1049,1129,1221,1269,1325,1287,1202,1119,1019,965,909,817,526,259,149,167,168,141,128,82,66,59,7,-9,61,138,202,252,311,263,56,73,519,1022,853,-1537,-3517,-2496,-1038,-217,98,178,158,182,205,249,222,116,10,-55,-47,-49,-95,-54,134,144,32,-24,-44,-180,-331,-380,-447,-576,-643,-786,-915,-943,-1077,-1238,-1389,-1306,-1180,-1089,-801,-870,-842,-636,-575,-398,-268,-185,50,844,1711,1560,-1884,-3884,-2040,-297,689,1084,1140,1120,1150,1200,1187,1147,1120,1044,986,930,1006,1107,1170,1218,1219,1136,1022,895,747,641,579,523,438,435,444,379,260,165,173,191,157,97,21,-28
2018-05-17,13:33:31.941,-66,-79,-94,-43,63,108,108,226,698,1207,929,-1602,-2981,-1686,-435,187,307,251,286,264,281,315,325,347,302,201,180,178,175,263,291,213,206,200,0,53,111,-45,-504,-649,-373,-299,-454,-624,-601,-528,-515,-589,-636,-606,-837,-661,-335,-512,-543,-534,-477,-293,-116,406,1043,612,-2278,-3970,-2423,-907,-120,169,315,415,426,475,537,632,600,641,710,688,692,769,835,860,821,752,633,496,384,303,238,244,175,53,-45,-144,-162,-98,-33,-25,-1,-14,-39,-99,-126,-104,-80,-87,-91,-89,-76,28,478,996,796,-1507,-3272,-2183,-789,-29,242,311,326,272,274,263,289,360,292,173
2018-05-17,13:33:32.978,52,0,25,146,224,136,6,-152,-285,-335,-408,-518,-563,-664,-555,-532,-530,-604,-609,-613,-672,-516,-427,-572,-836,-807,-665,-828,-626,-542,-564,-592,-327,341,1025,1358,-1076,-4138,-3059,-1139,-111,290,395,483,587,602,477,475,453,579,585,617,681,748,813,885,912,879,805,686,557,447,322,186,49,-12,-22,9,18,-2,57,158,382,386,96,-84,-77,39,101,145,167,164,131,184,519,1062,1289,-241,-2543,-2218,-770,173,664,793,768,730,668,627,630,616,563,583,673,659,653,546,405,535,518,324,53,-3,-96,-361,-577,-524,-601,-748,-808,-745,-610,-687,-583,-453,-507,-634,-694,-616
2018-05-17,13:33:34.016,-711,-806,-730,-782,-985,-955,-834,-498,137,723,-367,-3513,-4246,-2244,-687,34,234,303,211,267,332,328,386,465,513,538,535,571,653,714,735,744,674,584,449,309,181,64,-28,-84,-74,-30,4,61,120,165,160,102,99,122,144,210,269,266,239,214,243,279,348,780,1319,1137,-1238,-3017,-1936,-541,292,591,650,647,600,551,476,389,290,279,287,177,75,209,386,483,459,416,274,147,26,-103,-253,-379,-532,-602,-449,-381,-536,-593,-503,-563,-519,-479,-617,-536,-513,-593,-550,-614,-625,-492,-612,-687,-416,273,812,-36,-3251,-3875,-2172,-673,-81,36,91,338,650,688,441,109,-15,100
2018-05-17,13:33:35.053,314,445,570,715,787,833,846,824,737,629,464,278,141,82,109,134,82,114,182,184,135,31,11,16,51,65,38,82,130,128,118,104,119,315,855,1316,728,-1783,-2843,-1505,-245,439,669,722,739,699,617,616,587,435,327,254,249,402,546,426,139,80,142,-27,-240,-255,-455,-509,-497,-563,-641,-697,-635,-482,-503,-609,-531,-294,-276,-510,-541,-540,-511,-372,-478,-594,-473,-515,-371,116,742,943,-1143,-4026,-3302,-1355,-333,124,342,419,359,260,179,302,415,438,471,498,512,600,637,683,766,823,789,719,646,565,331,118,55,63,35,-31,-48,-24,26,85,134,163,173,173
2018-05-17,13:33:36.090,129,145,234,274,315,369,414,433,577,1073,1540,884,-1778,-2625,-1195,2,647,824,825,805,784,747,713,658,640,684,631,627,611,578,505,507,567,433,292,268,4,-179,-277,-499,-490,-432,-500,-505,-526,-520,-411,-466,-418,-289,-268,-509,-451,-454,-282,-318,-534,-551,-385,-448,46,780,967,-1066,-4136,-3629,-1665,-422,93,105,157,190,248,302,208,181,210,162,245,360,367,470,586,646,698,645,522,374,190,103,58,-21,-71,-79,-83,-109,-50,38,67,87,132,116,73,36,38,111,180,201,230,263,288,364,786,1244,1055,-1079,-2949,-2020,-558,369,781,912,833,678,603,586,513,445
2018-05-17,13:33:37.127,394,403,374,415,476,460,432,456,386,231,181,88,41,85,-97,-267,-357,-481,-602,-755,-736,-760,-819,-774,-750,-710,-589,-617,-630,-615,-674,-777,-867,-983,-804,-525,-75,500,-127,-3574,-4918,-2810,-1022,-364,-96,-127,-91,-56,-36,-13,-44,39,159,231,303,450,610,764,857,919,951,900,815,706,589,481,405,336,303,248,203,219,232,223,226,232,216,168,135,128,197,308,404,437,432,444,511,798,1374,1701,517,-2134,-2403,-944,113,715,875,826,832,830,766,794,721,667,671,577,525,405,312,368,406,319,289,358,333,159,-76,-279,-449,-554,-731,-872,-838,-906,-766,-804,-701,-783
2018-05-17,13:33:38.164,-882,-646,-797,-794,-664,-745,-845,-870,-884,-996,-908,-480,36,158,-1667,-4598,-4233,-2179,-863,-274,-177,-46,-10,7,-23,-65,100,212,333,502,695,826,985,1099,1211,1226,1154,1062,975,884,767,661,573,497,475,461,486,504,550,542,509,499,444,484,582,685,766,789,841,834,693,545,508,742,1218,1327,-249,-2543,-2221,-781,148,572,598,535,553,612,777,901,749,632,594,613,589,539,585,564,430,314,365,231,85,28,-192,-332,-433,-506,-573,-709,-891,-790,-701,-408,-323,-518,-488,-557,-743,-764,-850,-757,-856,-896,-850,-927,-862,-466,352,921,-857,-4128,-3732,-1794,-575,-24,141,136,255,343
2018-05-17,13:33:39.201,350,367,433,574,663,716,820,937,1021,1064,1088,1067,992,928,808,666,532,427,337,346,279,214,170,146,98,123,140,201,235,278,247,234,245,190,39,31,277,310,266,734,1262,1149,-826,-2916,-2265,-848,14,364,476,482,412,473,388,263,165,168,47,42,172,237,357,457,306,165,-75,-227,-261,-368,-592,-681,-675,-722,-623,-705,-817,-643,-613,-716,-844,-662,-809,-923,-1091,-1230,-1183,-1099,-1069,-1221,-1169,-1004,-993,-547,249,625,-1298,-4248,-3754,-1770,-483,260,580,557,492,408,484,541,544,623,747,860,890,900,933,994,995,911,838,812,707,609,510,434,368,313,282,270,207,198
2018-05-17,13:33:40.239,217,227,274,282,278,239,209,165,169,159,107,26,29,144,214,460,1012,1378,337,-2418,-2764,-1150,-49,501,621,560,475,472,580,448,267,175,339,352,264,198,276,371,365,260,205,89,-146,-204,-350,-369,-372,-519,-452,-510,-444,-630,-840,-548,-485,-600,-775,-865,-772,-874,-966,-1027,-954,-906,-927,-923,-773,-660,26,851,818,-1977,-4448,-2926,-1037,-29,362,438,584,670,730,779,859,922,908,921,927,971,1021,1107,1142,1037,920,770,689,678,626,609,536,473,379,377,419,456,518,501,440,408,389,349,287,244,209,195,181,170,157,145,130,172,476,1068,1275,-31,-2698,-2862,-1137,-76
2018-05-17,13:33:41.276,400,496,531,322,332,491,581,404,240,210,220,213,164,237,302,233,85,-97,-221,-235,-401,-546,-758,-732,-603,-908,-976,-996,-950,-1079,-1129,-1174,-941,-951,-1028,-1027,-1065,-1067,-925,-592,-560,-598,-646,-654,-453,291,936,945,-1697,-4569,-3044,-950,197,636,728,777,870,937,1000,979,977,1016,1080,1146,1197,1195,1218,1207,1159,1100,1025,917,783,686,501,308,227,231,267,309,291,332,412,364,302,270,216,131,55,-46,-52,-16,-11,-20,-20,-35,-24,152,610,1097,767,-1999,-3351,-1926,-687,30,238,165,92,64,4,33,-70,-100,-72,-90,-88,-110,-64,-110,-18,131,190,151,229,202,-78,-334
2018-05-17,13:33:42.313,-461,-527,-560,-530,-707,-791,-687,-862,-757,-514,-659,-647,-574,-649,-495,-511,-413,-343,-223,-141,-233,-224,-50,684,1290,1171,-1808,-4061,-2266,-329,630,989,1092,1138,1126,1098,1157,1139,1125,1140,1168,1198,1232,1264,1243,1217,1189,1121,1057,1000,891,775,717,592,416,333,263,245,255,258,264,248,219,196,193,164,139,98,69,54,84,152,144,119,122,192,633,1196,1202,-1268,-3424,-2313,-716,163,396,351,241,161,80,61,54,57,9,54,-87,-122,50,125,176,177,139,104,-83,-266,-479,-412,-316,-511,-798,-763,-544,-556,-700,-823,-935,-850,-638,-639,-761,-645,-771,-792,-564,-343,-360,-227,-103,-205
2018-05-17,13:33:43.350,-129,353,1055,1505,-829,-4031,-3049,-1058,44,556,677,702,708,707,762,802,808,792,803,816,824,833,826,847,928,1027,1033,846,589,401,351,322,372,405,255,96,1,-80,-92,-86,-89,-79,-47,0,10,-14,0,20,50,42,58,31,60,85,392,1007,1407,-268,-3111,-2717,-1212,-299,288,447,160,137,238,244,182,23,16,99,94,104,38,252,318,331,134,313,381,130,-80,-340,-460,-598,-798,-845,-873,-1129,-1073,-1067,-1031,-903,-1002,-873,-835,-744,-680,-708,-695,-571,-595,-640,-612,-451,-328,-252,264,879,591,-2045,-3773,-2287,-641,350,778,830,819,831,831,792,804,813,799,737,752,835
2018-05-17,13:33:44.387,952,1063,1153,1196,1108,880,629,584,643,685,625,456,340,279,243,177,155,150,137,111,61,12,-27,-74,-116,-150,-94,-82,-122,-111,-155,-159,-100,267,875,1249,-600,-3229,-2716,-1087,-152,98,116,52,18,33,-21,-103,-104,-54,-9,-14,-29,36,301,314,168,245,150,-20,-181,-423,-537,-423,-652,-1012,-1027,-1032,-1069,-1085,-1044,-1174,-1068,-795,-881,-905,-837,-749,-603,-469,-417,-367,-438,-389,-324,-198,244,1006,1690,957,-2288,-3159,-1424,-89,610,840,837,812,807,827,818,793,751,732,864,979,1050,1184,1275,1214,1088,1082,1067,983,876,743,586,469,387,321,235,140,77,5,-20,-12,-4,46
2018-05-17,13:33:45.425,56,45,-28,-109,-137,-67,56,94,132,38,54,176,546,745,496,-2047,-3463,-2157,-846,47,320,159,55,36,60,0,-117,-58,46,224,115,242,180,37,84,-129,-156,-240,-509,-839,-1098,-1130,-1152,-1114,-1181,-1030,-1029,-964,-839,-875,-948,-649,-526,-577,-418,-437,-331,-416,-463,-235,-144,-101,-6,75,196,720,1467,1916,461,-2988,-3110,-1137,106,685,864,919,940,964,1000,1017,1005,1018,1080,1082,1034,993,983,979,909,865,748,564,401,269,148,85,39,-38,-10,41,0,-34,-27,-19,-18,-34,-44,-43,-60,-78,-97,-195,-226,-243,-233,-173,-112,-128,-19,409,1129,930,-2366,-3829,-2145,-901,-388,-220
2018-05-17,13:33:46.462,-163,-21,193,164,166,430,551,330,231,298,153,314,496,517,479,320,336,117,-47,-366,-422,-380,-628,-601,-405,-473,-395,-238,-213,-147,-125,-155,-162,16,68,43,101,114,111,194,246,249,269,238,385,999,1580,1303,-1484,-3328,-1816,-325,546,905,981,962,941,890,859,956,1032,1144,1228,1150,1029,1017,1007,1022,979,887,745,601,454,286,195,149,49,-16,-23,-84,-99,-81,-74,-113,-140,-162,-157,-256,-591,-450,-221,-314,-222,-190,-345,-465,-482,-526,-364,210,960,569,-3365,-4393,-2336,-765,-61,70,-30,174,82,-58,-155,-283,-156,-131,-232,-316,-205,52,-8,-1,141,208,113,2,-59,-210
2018-05-17,13:33:47.499,-424,-476,-433,-336,-283,-331,-333,-393,-408,-398,-246,-58,19,64,38,55,50,33,64,104,102,104,100,109,238,793,1484,1648,-975,-3321,-2099,-565,323,648,725,769,790,850,884,834,760,737,726,648,615,639,659,699,684,606,462,370,286,125,25,-3,-112,-206,-265,-333,-353,-392,-484,-415,-316,-321,-354,-386,-392,-437,-496,-639,-564,-532,-778,-730,-577,-507,-362,-97,477,1140,775,-2724,-4561,-2768,-808,-227,-36,-8,-82,-102,-89,80,155,178,212,131,191,379,304,427,581,525,469,498,501,291,85,-15,-188,-262,-233,-277,-388,-223,-36,35,93,101,145,256,328,334,313,325,344,398
2018-05-17,13:33:48.536,466,499,521,542,541,567,807,1338,1724,998,-1643,-2644,-1237,-5,617,808,764,712,807,826,821,861,832,819,826,829,843,825,792,742,640,502,320,83,-154,-165,-218,-373,-418,-511,-497,-465,-564,-538,-562,-651,-689,-689,-761,-799,-749,-603,-427,-534,-508,-445,-575,-611,-494,-631,-610,-122,465,834,-725,-4336,-4476,-2365,-929,-416,-138,-97,-43,115,239,227,231,301,353,309,361,482,739,916,886,782,690,607,531,412,258,146,71,28,8,7,27,21,3,14,40,117,209,255,271,285,231,130,72,99,185,199,206,197,163,190,398,906,1224,43,-2454,-2536,-1083,-90,408,551,582,547
2018-05-17,13:33:49.573,487,577,611,530,481,475,475,422,495,496,456,495,444,348,218,-6,-130,-82,-96,-234,-492,-558,-468,-591,-713,-741,-670,-525,-520,-613,-633,-520,-556,-603,-824,-1021,-767,-723,-784,-874,-926,-979,-917,-603,265,716,-541,-3808,-4414,-2372,-985,-124,137,121,188,163,121,262,532,610,630,717,749,841,961,1006,1052,1034,929,811,685,541,403,331,301,304,310,291,293,289,291,296,196,219,351,526,638,646,611,510,355,269,232,183,155,125,80,61,278,824,1155,123,-2601,-2834,-1260,-215,324,430,399,347,307,253,316,333,199,299,394,392,453,416,335,467,526,324,176,-73,-465,-574
2018-05-17,13:33:50.611,-491,-479,-503,-501,-526,-543,-692,-701,-573,-616,-794,-766,-821,-860,-786,-912,-1051,-1020,-990,-953,-909,-675,-632,-715,-543,-150,569,1142,23,-3601,-3889,-1855,-398,334,522,587,743,866,924,945,1018,1089,1117,1145,1193,1230,1218,1185,1170,1099,970,943,905,825,769,763,754,763,637,339,246,364,467,446,418,417,426,412,369,318,251,206,170,213,288,318,254,206,105,123,530,1038,1214,-574,-3311,-2809,-1029,-123,365,368,316,322,365,268,73,66,69,15,28,70,-41,-110,191,186,-44,44,181,187,-402,-605,-615,-806,-926,-962,-1104,-1044,-1146,-1211,-961,-1008,-1052,-1016,-834,-734,-629,-557,-600,-489
2018-05-17,13:33:51.648,-346,-325,-274,-185,-77,-78,-85,218,1076,1644,626,-2562,-3477,-1637,-175,587,897,897,857,862,827,795,834,818,794,825,901,968,1066,1029,852,826,839,832,786,713,681,683,526,298,177,108,52,36,20,-22,-55,-85,-90,-4,12,-15,-19,-92,-76,-31,-38,-112,-198,-268,-383,-295,194,778,1325,766,-2571,-3392,-1680,-482,120,327,218,122,190,130,-3,93,192,146,101,45,316,469,354,419,413,416,314,76,-91,-252,-529,-732,-639,-828,-1017,-887,-967,-910,-817,-662,-475,-431,-372,-330,-369,-418,-418,-449,-445,-306,-298,-312,-228,-30,20,159,668,1560,2227,352,-3098,-2711,-846,303,804,898
2018-05-17,13:33:52.685,877,832,781,768,755,821,958,1114,1281,1157,896,741,712,878,1094,1211,1083,860,727,537,356,247,142,19,-21,-27,-80,-116,-161,-209,-179,-110,-39,40,102,74,-106,-203,-130,-146,-543,-757,-553,-276,-204,-192,412,1134,1320,-1749,-4278,-2756,-1138,-363,-45,48,36,23,5,67,58,199,207,35,159,344,239,238,224,144,83,168,120,-150,-455,-746,-827,-856,-799,-798,-726,-770,-556,-499,-519,-596,-620,-507,-534,-499,-471,-479,-363,-243,-316,-353,-324,-336,-337,-214,-165,-137,342,1071,1388,-629,-3424,-2753,-1086,-77,427,629,712,772,786,788,792,808,773,736,730,716,633,706,830,848,779,689
2018-05-17,13:33:53.722,596,465,322,202,112,41,39,77,51,19,-25,-65,-110,-142,-174,-197,-251,-332,-318,-260,-270,-351,-492,-526,-503,-451,-410,-393,-329,-86,505,1214,512,-3105,-3879,-2113,-795,-165,70,168,151,139,162,211,250,297,333,363,454,531,603,640,682,731,713,624,549,451,297,147,34,-17,-41,-35,-9,74,182,185,112,62,64,89,102,81,87,55,39,1,-26,39,75,65,78,100,96,90,384,1024,1317,-3,-2446,-2601,-1181,-160,394,618,625,593,579,600,599,557,571,570,559,571,564,617,648,629,566,459,363,192,42,4,-72,-206,-215,-158,-252,-402,-441,-400,-407,-300,-339,-412
2018-05-17,13:33:54.759,-474,-342,-408,-408,-390,-420,-381,-350,-424,-394,-402,-388,-376,-288,-122,379,930,393,-1881,-3162,-2100,-986,-243,92,333,314,254,247,201,192,352,365,329,466,493,439,530,509,509,462,387,339,156,78,-62,0,3,-46,-89,-100,-109,27,77,-149,-185,-177,-79,-84,-89,-26,-139,-223,-114,-88,-169,-162,-73,-59,-112,-171,-75,343,1011,966,-670,-2968,-2716,-1323,-255,327,399,439,407,350,362,441,402,405,364,387,424,406,513,544,494,431,371,229,192,116,-74,-170,-105,-191,-308,-242,-190,-216,-215,-245,-188,-208,-214,-163,-153,-166,-136,-142,-138,-164,-168,-98,-30,0,30,12,20,111
2018-05-17,13:33:55.796,660,1269,1031,-1479,-3159,-1986,-672,141,449,475,451,433,440,444,434,426,425,439,458,487,512,560,577,589,600,537,402,232,102,-92,-298,-269,-216,-160,-146,-125,-114,-94,-81,-112,-73,-34,-80,-63,-37,-110,-166,-182,-206,-171,-155,-250,-204,-111,-135,25,368,920,1331,308,-2629,-3102,-1521,-413,154,356,295,227,196,190,170,202,244,264,246,317,384,400,454,522,476,402,307,136,-25,-181,-330,-436,-486,-546,-555,-507,-475,-460,-452,-404,-393,-392,-350,-360,-332,-308,-269,-274,-274,-237,-170,-183,-234,-251,-236,-194,-133,331,915,820,-1161,-3208,-2596,-1163,-216,217,374,370,328,330,384,332
2018-05-17,13:33:56.834,333,368,381,401,417,458,549,557,539,538,434,304,244,160,37,-61,-109,-136,-120,-134,-103,-89,-108,-105,-84,-84,-77,-75,-85,-82,-45,-88,-104,-79,-80,-32,-38,66,35,8,23,295,962,1249,-105,-2925,-3015,-1254,-26,541,686,709,671,641,618,613,594,624,656,626,636,682,685,701,712,660,573,457,322,186,14,-136,-157,-251,-312,-332,-314,-287,-298,-271,-254,-253,-234,-206,-176,-137,-154,-186,-179,-160,-182,-174,-173,-173,-75,-56,-68,35,555,1205,1096,-1379,-3323,-2105,-625,249,538,575,585,546,525,517,525,505,478,533,562,605,662,714,728,701,666,537,429,373,264,196
2018-05-17,13:34:06.708,-53,-82,-165,-191,-144,-124,-135,-134,-89,-98,-131,-60,-64,-115,-108,-33,-75,-57,-52,-119,-108,-142,-121,-93,-118,-116,-68,-84,-103,98,756,1265,687,-2080,-3367,-2025,-742,59,353,461,518,462,441,460,431,467,504,455,440,486,477,477,456,405,363,248,112,51,-71,-186,-259,-327,-369,-367,-345,-307,-339,-336,-267,-253,-270,-264,-280,-264,-239,-241,-232,-220,-248,-250,-242,-239,-169,-153,-171,-157,-149,-143,-84,323,953,1215,-424,-3136,-2819,-1254,-223,247,339,331,332,336,326,338,345,352,371,412,437,431,481,495,442,426,377,317,218,98,39,-58,-146,-208,-244,-247,-251,-236,-254,-265
2018-05-17,13:34:07.745,-257,-251,-239,-242,-263,-182,-197,-191,-169,-159,-167,-168,-179,-195,-131,-104,-112,-83,-60,-17,23,182,757,1218,736,-1798,-2844,-1573,-460,261,485,479,495,497,515,554,578,588,606,625,645,687,722,756,776,776,790,734,629,478,386,340,188,124,74,0,8,-26,-2,-60,-93,-102,-52,-29,-20,-49,-33,9,-7,-31,-50,-88,-94,-108,-131,-112,-53,-89,-113,-122,-77,-138,187,926,1176,-188,-2614,-2837,-1421,-366,219,392,435,436,406,394,374,378,372,369,399,418,452,463,466,496,503,331,309,253,85,-50,-167,-255,-296,-308,-327,-357,-348,-333,-305,-296,-287,-263,-282,-272,-268,-297
2018-05-17,13:34:08.756,-297,-296,-276,-299,-302,-330,-329,-269,-243,-249,-247,-216,-189,-117,228,826,1071,-400,-2974,-2866,-1340,-300,214,306,291,302,323,319,311,311,309,298,316,330,361,398,439,393,314,263,165,81,9,-110,-209,-295,-323,-338,-357,-379,-344,-334,-321,-307,-223,-228,-220,-245,-250,-230,-171,-140,-165,-193,-226,-134,-139,-197,-191,-176,-134,-133,-96,78,626,1128,620,-2069,-3068,-1714,-487,140,273,318,305,289,280,279,268,301,317,336,339,348,404,415,439,418,396,322,247,162,71,-11,-90,-155,-193,-209,-196,-194,-213,-212,-184,-164,-146,-146,-148,-140,-127,-100,-76,-62,-80,-94,-98,-128,-85,-71
2018-05-17,13:34:09.794,-65,-43,-13,-48,-30,178,689,1072,439,-1679,-2461,-1454,-506,117,394,492,505,499,479,470,445,447,453,429,412,452,478,487,437,497,442,338,293,195,93,-12,-99,-149,-154,-200,-236,-242,-244,-229,-245,-229,-204,-222,-204,-180,-199,-148,-166,-150,-110,-117,-127,-94,-29,-77,-99,-67,-84,-75,-16,510,1045,758,-1304,-2979,-2238,-922,-57,333,502,462,424,433,471,467,420,439,454,441,484,505,516,521,486,401,299,201,97,0,-123,-230,-267,-270,-271,-258,-251,-214,-235,-227,-224,-214,-222,-235,-252,-208,-184,-212,-168,-203,-243,-250,-240,-263,-221,-234,-242,-253,-233,-134,393,1051,997,-1484
2018-05-17,13:34:10.831,-3723,-2467,-877,87,383,410,401,394,386,346,317,317,314,319,351,399,437,489,490,460,408,356,274,157,39,-68,-187,-311,-361,-391,-385,-365,-349,-319,-290,-276,-256,-236,-220,-203,-205,-193,-159,-164,-170,-152,-142,-112,-41,-24,-36,-25,5,24,74,451,1028,1254,-475,-2689,-2253,-886,10,395,448,455,485,498,489,500,512,515,523,529,529,558,597,632,615,592,559,497,431,339,241,162,103,38,3,-2,-14,-35,-23,3,12,-1,-13,-20,-34,-30,-9,17,20,-18,-17,-47,-71,-30,-13,-32,-24,-8,0,30,300,893,1242,171,-2388,-2800,-1368,-323,261,488,487,437,449,444
2018-05-17,13:34:11.868,395,391,400,404,355,377,427,451,467,488,511,439,319,220,119,-17,-160,-238,-298,-360,-418,-428,-399,-391,-406,-385,-381,-374,-360,-350,-328,-295,-333,-294,-297,-310,-243,-276,-275,-243,-250,-220,-186,-176,-168,54,698,1177,595,-2094,-3374,-1928,-622,145,390,418,475,440,423,408,394,384,394,414,442,442,451,496,516,474,415,328,218,87,0,-109,-236,-264,-256,-294,-282,-262,-256,-263,-229,-215,-217,-203,-192,-189,-173,-114,-127,-186,-188,-196,-206,-189,-171,-144,-110,-104,-96,-42,276,908,1336,10,-3055,-3162,-1412,-182,332,408,406,409,424,421,412,404,402,423,458,475,483,519,568,543
2018-05-17,13:34:12.905,517,460,375,277,158,4,-140,-265,-341,-380,-389,-380,-354,-356,-338,-326,-314,-305,-298,-304,-285,-252,-235,-205,-181,-200,-204,-215,-215,-159,-120,-138,-133,-111,-88,4,435,1041,1180,-976,-3146,-2281,-806,68,387,437,442,433,424,441,451,455,466,481,506,488,494,533,580,586,541,482,384,262,136,-36,-194,-279,-412,-485,-520,-530,-554,-567,-625,-678,-765,-874,-914,-957,-934,-881,-844,-799,-686,-619,-569,-555,-517,-423,-394,-396,-344,-230,-49,270,941,1315,422,-1849,-2549,-1262,-281,445,836,839,774,730,631,604,719,636,474,524,633,646,696,797,845,826,798,716,536,298,93,-93,-237,-298
2018-05-17,13:34:13.942,-335,-321,-310,-268,-226,-196,-157,-136,-91,-106,-135,-206,-276,-264,-222,-215,-210,-198,-194,-155,-137,-146,-210,-240,-217,-168,111,706,1184,693,-1432,-2167,-1153,-310,221,452,436,388,378,466,533,594,729,870,859,694,648,643,623,646,686,680,546,325,221,5,-165,-236,-318,-248,-277,-367,-356,-341,-213,-162,-266,-293,-353,-184,-92,-10,-81,-208,-353,-639,-1655,-2489,-2182,-1391,-653,-95,279,455,540,708,1006,879,-531,-2082,-1776,-525,348,908,1144,1150,1143,1099,1042,953,821,754,750,648,635,618,532,533,538,462,456,410,214,-19,-125,-126,-191,-309,-339,-355,-710,-740,-674,-555,-587,-408,-247,-314
