2018-05-17,17:37:11.008,-269,-220,-345,-358,-381,-431,-449,-479,-565,-655,-686,-731,-814,-862,-838,-797,-784,-530,-238,-7,286,529,785,841,853,838,854,751,732,708,596,496,443,363,344,364,343,227,196,243,231,197,178,217,253,206,180,101,117,145,82,95,119,1,-133,-114,-106,-160,-98,-5,73,114,146,171,167,159,133,103,40,-236,-613,-1329,-1109,-28,667,795,407,62,-162,-253,-261,-253,-273,-321,-372,-381,-391,-424,-453,-487,-542,-617,-685,-729,-780,-846,-894,-919,-896,-854,-725,-501,-193,133,420,651,803,884,906,910,885,828,773,707,634,600,572,514,499,490,462,443,425,429,451,429,406,406
2018-05-17,17:37:12.582,414,407,403,386,378,376,339,247,133,95,86,16,24,95,190,245,269,278,263,248,203,188,125,-52,-375,-1187,-1603,-448,437,903,590,306,20,-152,-195,-207,-219,-230,-241,-275,-310,-335,-369,-391,-428,-484,-547,-600,-660,-709,-759,-788,-765,-738,-628,-416,-147,156,428,632,771,851,869,851,801,748,690,618,558,493,431,356,327,300,269,226,186,198,174,143,121,107,113,80,45,41,-10,-131,-214,-205,-242,-284,-224,-155,-50,-14,8,19,0,-13,-17,-48,-152,-424,-800,-1607,-980,-65,571,515,139,-173,-363,-436,-436,-451,-475,-496,-536,-557,-562,-578,-618,-681,-706,-740,-786,-836
2018-05-17,17:37:13.620,-872,-913,-946,-951,-940,-854,-690,-431,-131,152,408,600,700,747,775,768,703,667,612,549,508,461,412,389,361,336,324,293,299,294,294,312,341,351,366,370,366,369,375,346,277,218,242,227,197,288,395,494,509,538,564,550,523,511,453,359,88,-319,-1122,-547,436,1123,1084,640,308,130,68,46,36,25,-3,-56,-78,-127,-184,-238,-288,-307,-374,-470,-563,-653,-717,-781,-836,-840,-783,-647,-403,-90,223,504,705,827,890,874,837,803,709,609,546,474,405,368,297,240,196,172,151,145,132,85,66,47,24,6,-3,-22,-60,-73,-90,-133,-158,-186,-224,-327,-365,-364
2018-05-17,17:37:14.657,-420,-437,-359,-256,-182,-151,-122,-119,-128,-135,-154,-192,-325,-619,-1170,-1936,-1072,-174,542,409,63,-256,-434,-514,-490,-485,-503,-506,-517,-551,-560,-561,-593,-630,-659,-693,-760,-832,-880,-912,-935,-950,-921,-839,-699,-456,-140,182,439,616,733,806,818,784,743,697,637,586,507,429,407,381,341,318,273,235,226,232,228,218,216,213,197,180,173,178,165,158,139,127,110,10,-81,-66,-53,-93,-86,-18,77,128,131,127,141,144,134,123,53,-146,-457,-1183,-1363,-258,504,789,501,269,11,-138,-175,-173,-198,-215,-238,-274,-306,-358,-400,-431,-482,-530,-572,-617,-668,-718,-762,-786,-776,-722
2018-05-17,17:37:15.694,-625,-429,-166,125,377,547,668,759,797,781,746,697,623,558,504,468,443,388,331,308,264,243,244,234,209,184,175,171,168,181,165,136,120,102,80,6,-84,-107,-105,-122,-133,-69,-8,39,59,59,62,48,24,13,-11,-165,-439,-900,-1508,-607,167,585,432,210,-17,-170,-243,-250,-248,-255,-280,-305,-297,-303,-325,-345,-375,-428,-479,-525,-576,-633,-664,-702,-708,-667,-570,-417,-197,69,319,511,665,751,777,759,721,664,602,536,479,420,372,324,285,236,217,200,177,158,157,161,155,154,153,142,146,137,132,115,104,92,60,-20,-110,-111,-94,-148,-137,-56,41,110
2018-05-17,17:37:16.731,125,130,126,109,95,70,10,-205,-557,-1140,-1304,-174,525,785,383,35,-181,-262,-272,-270,-279,-285,-289,-307,-338,-374,-396,-427,-464,-501,-559,-623,-689,-744,-798,-851,-865,-826,-709,-508,-232,76,352,580,741,824,856,837,801,754,681,625,567,516,457,401,363,324,291,259,236,203,182,177,169,156,145,131,129,142,131,128,90,81,71,52,39,34,35,-36,-141,-158,-143,-176,-188,-112,-51,14,57,71,83,90,71,39,7,-168,-519,-987,-1487,-420,387,847,504,130,-138,-244,-268,-258,-274,-299,-307,-315,-338,-345,-381,-420,-456,-492,-532,-598,-653,-728,-782,-817,-824,-799,-728,-567
2018-05-17,17:37:17.768,-313,-8,267,494,661,747,777,781,743,698,635,563,499,422,352,306,278,240,193,154,129,108,88,61,48,43,27,23,5,-8,-20,-47,-73,-81,-98,-113,-120,-137,-146,-157,-215,-277,-311,-303,-296,-346,-322,-282,-223,-187,-176,-154,-158,-193,-207,-221,-384,-676,-1114,-1596,-700,45,417,275,109,-89,-239,-307,-303,-299,-311,-340,-360,-371,-382,-402,-431,-448,-473,-511,-548,-581,-628,-664,-701,-709,-676,-613,-486,-287,-30,233,435,576,668,720,726,691,657,624,587,540,479,440,397,352,312,291,273,252,239,219,229,247,247,247,254,260,257,247,247,246,236,238,246,237,212,216
2018-05-17,17:37:18.806,224,190,108,34,57,95,58,64,93,132,202,240,229,200,181,180,164,39,-263,-638,-1269,-597,333,853,748,381,88,-67,-132,-120,-116,-111,-132,-169,-206,-234,-250,-279,-324,-350,-397,-442,-491,-556,-610,-649,-667,-655,-602,-482,-277,14,315,571,773,900,948,966,965,918,849,791,729,645,581,528,475,434,409,382,353,342,317,297,293,315,278,261,270,261,247,224,205,201,167,142,112,71,39,-44,-118,-98,-52,-72,-103,-59,-16,52,104,128,111,99,92,60,-2,-274,-640,-1327,-1280,-192,484,703,425,120,-136,-218,-281,-264,-280,-302,-334,-323,-381,-430,-414,-499,-508,-537
2018-05-17,17:37:19.843,-620,-732,-757,-806,-856,-867,-852,-814,-698,-477,-219,57,358,587,760,815,859,838,792,763,700,627,562,504,467,409,337,318,293,248,222,202,198,168,159,173,166,142,141,103,74,68,49,46,31,23,-8,-33,-118,-200,-209,-166,-166,-209,-159,-134,-67,-14,-12,-6,-17,-38,-38,-87,-351,-711,-1327,-1407,-295,369,664,315,25,-225,-330,-353,-364,-387,-402,-416,-436,-469,-489,-514,-556,-602,-649,-699,-759,-845,-905,-948,-981,-968,-924,-832,-647,-376,-100,176,397,537,620,639,628,608,565,496,439,376,328,269,212,163,143,116,77,37,39,38,20,27,32,27,18,25,34,27
2018-05-17,17:37:20.880,25,35,17,25,29,6,-6,-3,-32,-111,-142,-93,-74,-121,-94,-41,40,101,110,101,100,94,116,124,-62,-379,-722,-1237,-364,296,661,560,393,221,62,-21,-41,-33,-33,-57,-41,-69,-108,-116,-132,-130,-171,-221,-291,-339,-399,-455,-487,-476,-465,-403,-295,-128,90,327,529,671,749,793,816,789,766,703,634,555,502,443,387,351,316,277,199,149,122,98,83,94,76,73,70,78,74,68,84,85,72,51,-1,-60,-89,-45,-21,-62,-8,24,79,119,117,104,99,87,90,22,-234,-566,-1050,-1015,31,457,562,283,33,-189,-238,-242,-243,-254,-268,-284,-320,-338,-367,-403
2018-05-17,17:37:21.917,-454,-492,-543,-597,-648,-685,-726,-781,-785,-797,-770,-665,-492,-248,12,268,458,601,678,714,693,668,652,578,520,457,414,361,315,280,260,220,209,199,172,174,161,150,148,133,120,115,94,96,84,62,58,49,35,38,6,-112,-177,-145,-138,-185,-154,-71,-4,36,71,70,50,43,16,0,-108,-442,-804,-1405,-859,182,708,618,170,-138,-307,-342,-356,-357,-382,-384,-391,-405,-438,-449,-467,-502,-542,-585,-623,-687,-749,-790,-852,-876,-844,-814,-660,-461,-166,160,451,684,819,870,910,890,826,781,716,653,570,502,444,381,333,297,256,231,201,183,159,135,124,127,103,96
2018-05-17,17:37:22.954,67,67,67,62,30,12,-10,-13,-37,-55,-115,-213,-230,-175,-165,-222,-178,-115,-46,-2,10,13,7,0,-2,-21,-228,-578,-992,-1537,-522,246,688,481,212,-64,-225,-282,-282,-266,-265,-276,-302,-306,-332,-373,-385,-412,-455,-480,-531,-588,-660,-714,-735,-748,-735,-659,-513,-293,0,276,498,682,789,835,824,792,770,729,674,602,562,507,445,404,370,331,297,278,262,233,230,224,201,192,188,174,171,175,171,145,148,145,129,122,112,90,59,-14,-67,-67,-27,-62,-89,-25,-10,69,100,109,106,98,77,71,-2,-264,-603,-1189,-1145,-95,447,590,328,139,-66,-165,-184,-206
2018-05-17,17:37:23.991,-196,-204,-216,-243,-282,-317,-328,-374,-401,-416,-464,-509,-545,-587,-624,-661,-661,-621,-523,-361,-123,124,355,546,651,732,784,752,725,689,628,577,520,460,425,379,326,295,255,227,225,206,197,197,170,152,157,141,126,111,114,91,68,57,56,39,-22,-93,-114,-75,-85,-140,-101,-51,2,38,59,45,37,21,-5,-42,-232,-520,-906,-1346,-363,244,529,314,110,-67,-182,-248,-268,-269,-294,-311,-320,-338,-354,-362,-400,-439,-473,-515,-552,-605,-663,-700,-729,-735,-699,-635,-494,-276,-8,237,410,548,633,664,666,640,610,568,519,465,429,386,336,300,274,252,222,201,196,174
2018-05-17,17:37:25.029,154,146,137,137,137,120,122,124,123,110,92,86,63,51,53,48,6,-79,-133,-112,-62,-85,-111,-71,-38,22,68,81,101,82,68,51,-2,-289,-645,-1134,-1055,62,591,695,338,51,-144,-233,-223,-234,-241,-254,-261,-286,-318,-332,-324,-391,-412,-454,-514,-569,-639,-702,-761,-788,-794,-769,-671,-503,-230,64,312,541,686,741,766,748,710,700,620,554,500,443,397,331,293,259,235,201,151,135,140,130,101,118,104,57,98,119,55,49,88,90,62,28,-4,46,21,-45,-25,-41,-102,-204,-213,-179,-141,-182,-184,-137,-84,-12,2,-30,-9,-5,-40,-49,-134,-492,-839,-1450
2018-05-17,17:37:26.066,-830,145,533,468,124,-120,-268,-327,-326,-311,-317,-326,-353,-390,-400,-425,-449,-481,-505,-534,-583,-656,-726,-767,-794,-808,-804,-773,-646,-438,-205,33,277,471,595,672,685,670,641,624,499,440,426,397,328,260,227,204,167,142,148,163,145,124,127,141,167,131,147,183,185,147,141,153,163,154,146,140,146,170,121,78,46,62,238,136,-15,45,128,210,238,242,244,261,293,236,138,-74,-426,-1029,-643,299,750,782,598,447,250,105,64,78,72,50,25,-22,-42,-68,-108,-156,-172,-214,-279,-369,-465,-492,-525,-555,-547,-491,-382,-229,4,257,474,627,729,784,792,766
2018-05-17,17:37:27.103,750,697,628,571,536,484,430,370,313,273,228,206,175,163,141,116,107,125,118,92,86,69,45,24,-8,-14,-24,-31,-38,-57,-55,-58,-109,-202,-235,-205,-164,-167,-146,-131,-72,-1,9,-10,-24,-44,-43,-64,-241,-560,-920,-1597,-790,63,517,405,98,-143,-285,-350,-352,-350,-372,-392,-431,-434,-435,-472,-526,-571,-607,-646,-703,-753,-810,-867,-904,-908,-885,-821,-666,-449,-176,102,326,536,663,718,726,702,672,642,567,472,431,404,361,306,271,239,184,155,147,106,95,110,100,83,84,88,59,50,62,42,27,34,29,9,0,-8,11,6,-14,-12,-24,-23,-70,-133
2018-05-17,17:37:28.140,-199,-169,-134,-160,-124,-73,-94,-22,83,-2,-24,1,-8,-8,-78,-360,-716,-1327,-1203,-69,481,671,340,112,-106,-217,-244,-240,-249,-277,-294,-311,-321,-342,-387,-420,-435,-475,-527,-581,-636,-690,-730,-765,-763,-747,-639,-452,-182,130,403,608,757,822,849,833,816,764,708,661,588,531,478,446,403,358,326,290,253,226,207,176,161,157,158,146,135,110,102,87,70,60,52,53,34,18,24,-8,-83,-142,-144,-110,-100,-136,-93,-62,-2,40,46,66,48,66,51,-14,-235,-530,-1076,-1359,-312,318,626,397,199,-10,-135,-195,-213,-221,-224,-230,-253,-285,-310,-335,-368,-387,-408,-462
2018-05-17,17:37:29.177,-538,-579,-627,-666,-690,-696,-658,-571,-412,-187,96,332,525,654,728,751,748,726,676,608,564,513,463,416,369,345,303,247,199,174,164,132,112,111,115,114,93,72,75,83,65,58,47,15,-4,-16,-26,-94,-160,-160,-122,-130,-143,-94,-84,-13,27,43,24,14,-3,-31,-70,-283,-598,-1060,-1224,-217,339,549,326,127,-71,-174,-199,-201,-216,-234,-246,-258,-283,-308,-335,-369,-403,-439,-464,-517,-580,-630,-682,-715,-719,-686,-587,-420,-205,44,288,481,596,678,721,717,670,625,583,526,473,419,368,325,275,235,197,169,152,130,108,104,101,97,83,97,85,78,81,71
2018-05-17,17:37:30.214,60,60,58,35,35,40,19,22,22,-50,-144,-172,-129,-122,-127,-100,-95,-9,62,71,49,35,34,40,18,-178,-531,-894,-1389,-372,396,768,529,169,-111,-219,-234,-233,-222,-240,-257,-279,-297,-317,-356,-399,-445,-458,-514,-568,-622,-690,-741,-783,-796,-781,-715,-561,-312,-28,257,504,664,774,830,840,794,757,689,639,607,530,467,428,368,323,289,232,200,198,175,155,141,125,121,110,105,106,92,75,99,87,42,32,43,42,24,6,4,4,11,-10,-16,-75,-153,-197,-162,-125,-147,-121,-101,-30,50,67,51,57,48,28,-11,-172,-528,-1000,-1501,-405,355,763,505,166
2018-05-17,17:37:31.252,-48,-176,-263,-270,-247,-221,-343,-327,-332,-291,-349,-412,-446,-453,-548,-592,-634,-713,-734,-804,-818,-763,-679,-546,-299,-14,302,521,668,797,871,777,787,795,703,634,588,550,481,410,356,283,262,242,225,210,161,111,122,133,125,106,88,83,98,75,88,93,54,33,28,13,-31,-13,-95,-149,-147,-106,-134,-160,-131,-105,-61,-10,-43,14,49,26,-25,-81,-324,-668,-1293,-1252,-204,372,491,314,170,-73,-221,-254,-259,-259,-265,-261,-316,-321,-289,-350,-409,-435,-484,-520,-566,-644,-697,-705,-740,-740,-684,-589,-399,-124,125,375,549,647,691,711,697,682,636,565,489,443,431,368
2018-05-17,17:37:32.289,320,248,261,229,166,153,150,117,109,109,84,106,116,95,95,98,80,75,62,57,38,45,34,0,-89,-113,-65,-59,-102,-118,-64,33,50,27,84,93,62,48,35,-160,-477,-844,-1336,-483,305,586,427,200,8,-93,-169,-212,-195,-152,-212,-232,-229,-236,-272,-314,-288,-338,-377,-426,-516,-593,-633,-682,-685,-665,-569,-442,-198,68,314,515,645,754,762,743,735,658,634,642,546,454,398,359,301,279,274,234,211,169,155,153,137,149,152,112,124,138,120,117,112,87,66,108,79,34,48,33,38,10,3,6,-28,-64,-148,-186,-175,-86,-101,-124,-116,-86,8,19
2018-05-17,17:37:33.326,22,42,10,-30,-20,-147,-527,-927,-1397,-508,325,642,485,146,-105,-237,-253,-236,-264,-260,-268,-302,-351,-335,-364,-411,-448,-483,-497,-561,-623,-678,-757,-797,-776,-773,-729,-566,-320,-60,265,492,640,782,816,839,838,771,716,671,610,554,489,440,381,326,260,205,227,215,152,126,171,143,147,132,87,117,130,57,70,124,61,64,35,13,20,-1,-40,-61,-8,-8,-23,-30,-45,-44,-65,-90,-105,-196,-230,-187,-178,-155,-128,-121,-82,-15,4,-6,9,22,15,-22,-183,-548,-904,-1363,-408,356,705,503,191,-69,-221,-258,-265,-241,-269,-267,-263,-279,-336,-369,-388,-428,-507,-515
2018-05-17,17:37:34.363,-541,-655,-696,-730,-796,-816,-779,-700,-573,-327,-22,276,552,711,794,907,957,875,812,744,731,678,571,509,484,422,380,335,306,258,208,185,169,164,142,91,115,144,100,91,81,80,59,49,51,12,4,-68,-152,-167,-97,-126,-124,-77,-65,5,70,32,38,36,35,10,-81,-398,-780,-1301,-961,130,562,597,247,-29,-206,-268,-284,-279,-289,-283,-310,-302,-342,-363,-383,-425,-470,-524,-571,-604,-712,-748,-828,-849,-816,-747,-614,-385,-61,229,481,677,759,803,889,857,783,725,656,614,558,474,417,352,334,305,242,206,174,162,150,137,132,143,172,137,109,133,94,95
2018-05-17,17:37:35.400,43,-36,-85,-82,-87,-133,-70,-14,-35,22,44,29,60,42,43,35,-70,-360,-682,-1242,-1045,-59,401,469,209,81,-108,-208,-236,-232,-248,-250,-250,-298,-314,-342,-381,-419,-432,-463,-535,-570,-622,-662,-730,-711,-693,-650,-519,-275,2,196,442,589,664,707,719,697,676,652,569,531,487,436,336,334,295,248,225,180,169,146,128,144,132,124,90,117,82,59,78,67,81,61,49,25,33,-32,-152,-160,-113,-125,-120,-73,-66,-44,29,45,25,59,34,9,-28,-204,-583,-949,-1293,-265,419,661,393,63,-138,-238,-236,-238,-280,-282,-277,-288,-336,-326,-353,-408,-421,-448,-468,-538
2018-05-17,17:37:36.438,-615,-686,-758,-756,-785,-762,-663,-455,-209,76,317,520,707,796,808,778,780,729,683,606,554,502,422,397,347,301,252,245,236,168,173,128,130,123,133,101,119,100,79,113,96,57,58,46,10,41,69,13,-4,20,-66,-161,-181,-141,-70,-111,-95,-71,-29,13,41,62,47,38,44,34,-161,-582,-969,-1317,-275,474,723,442,136,-128,-230,-265,-264,-260,-286,-309,-278,-349,-329,-371,-421,-443,-500,-555,-601,-698,-732,-774,-786,-838,-844,-736,-574,-365,-70,300,502,659,748,787,781,772,709,651,627,541,498,430,390,338,267,252,252,204,158,160,166,113,107,94,62,83
2018-05-17,17:37:37.475,76,77,47,58,66,23,34,22,27,29,-8,-11,-31,-31,-24,-67,-150,-164,-159,-127,-137,-157,-101,-100,-30,31,39,5,9,34,-20,-110,-404,-783,-1302,-1001,108,592,650,248,-45,-211,-294,-301,-278,-325,-336,-296,-295,-337,-370,-407,-444,-462,-510,-567,-628,-643,-719,-774,-808,-779,-742,-653,-430,-131,150,452,668,810,844,854,868,806,762,712,614,560,558,481,419,333,325,277,262,248,209,179,130,180,204,176,167,132,117,109,92,116,96,72,53,40,17,23,3,0,0,16,-7,-34,-26,-37,-73,-149,-197,-81,-79,-130,-92,-66,8,30,23,38,59,-10,28,-7
2018-05-17,17:37:38.512,-308,-646,-1170,-1159,-95,410,550,312,131,-18,-147,-186,-197,-211,-211,-231,-242,-271,-278,-298,-304,-403,-402,-428,-510,-578,-611,-659,-724,-659,-633,-567,-399,-206,75,320,512,657,735,731,742,720,667,622,563,528,480,466,410,321,313,298,215,204,218,161,182,194,164,157,134,122,104,119,100,130,104,90,85,48,23,25,25,-18,52,14,-46,-27,-37,-51,-54,-50,-97,-86,-89,-145,-202,-211,-209,-162,-155,-167,-89,6,20,21,21,32,11,-25,-117,-436,-783,-1290,-696,279,636,552,205,-52,-226,-245,-255,-262,-267,-276,-296,-311,-306,-317,-351,-357,-449,-474,-528,-572,-611,-703
2018-05-17,17:37:39.549,-771,-824,-800,-773,-687,-431,-196,89,359,573,716,770,776,761,733,730,657,588,531,477,417,371,313,244,256,218,182,164,141,95,104,114,81,66,68,79,74,50,35,35,48,23,-13,-5,5,-37,-8,2,-24,-46,-42,-33,-50,-60,-30,-69,-45,-86,-131,-163,-154,-130,-129,-137,-111,-22,48,56,69,100,75,76,61,-60,-426,-765,-1341,-656,327,688,614,270,35,-123,-212,-234,-212,-218,-244,-291,-290,-271,-299,-349,-384,-416,-474,-549,-588,-671,-731,-727,-774,-779,-749,-651,-454,-157,137,380,628,760,836,824,817,804,752,720,648,567,519,476,421,362,310,264,236,231
2018-05-17,17:37:57.258,-58,227,530,831,1034,1171,1237,1266,1251,1185,1134,1096,1054,1017,979,934,882,826,791,776,756,726,718,699,685,694,690,680,673,662,675,668,655,604,515,433,403,368,288,296,341,379,424,426,413,393,358,334,277,191,-106,-512,-1084,-1364,-282,378,837,672,521,248,25,-70,-65,-97,-157,-188,-203,-220,-234,-255,-304,-335,-359,-402,-486,-606,-731,-825,-889,-912,-879,-796,-615,-357,-59,248,493,667,756,798,792,757,703,646,587,531,478,417,349,293,237,216,162,147,150,139,90,54,56,35,20,-40,-112,-168,-167,-173,-204,-235,-206,-205,-191,-152,-157,-161,-162,-182,-202,-257
2018-05-17,17:37:57.470,-358,-601,-966,-1963,-1484,-386,319,427,161,-81,-291,-465,-495,-540,-487,-474,-531,-577,-568,-615,-779,-820,-711,-817,-842,-875,-923,-958,-973,-969,-925,-859,-726,-513,-259,-9,205,364,480,518,526,522,490,451,398,359,297,219,177,123,80,32,-1,-23,-35,-38,-62,-96,-88,-104,-93,-85,-128,-204,-254,-238,-239,-265,-274,-210,-189,-129,-72,-41,-34,-20,-4,-18,-57,-223,-549,-1012,-1595,-802,-52,402,300,124,-69,-271,-356,-375,-370,-384,-393,-421,-440,-450,-457,-482,-522,-558,-571,-608,-681,-724,-756,-776,-785,-761,-675,-542,-330,-44,252,481,656,763,816,813,757,683,644,610,540,486,433,380
2018-05-17,17:37:58.507,341,295,255,210,169,173,126,94,85,85,97,85,83,95,97,123,135,103,88,33,-46,-65,-76,-105,-93,-15,57,118,158,165,150,147,148,126,61,-155,-486,-1043,-1468,-490,259,762,593,356,81,-126,-225,-237,-250,-252,-266,-305,-318,-343,-376,-413,-430,-474,-510,-570,-641,-686,-720,-752,-771,-737,-665,-525,-292,-18,256,480,636,739,791,800,750,703,659,605,534,470,410,349,297,260,248,236,231,229,232,236,227,220,216,225,231,219,186,168,131,87,30,-71,-113,-132,-157,-186,-115,-18,35,64,87,107,93,82,79,77,-4,-254,-635,-1424,-1280,-238,479,731,515,319
2018-05-17,17:37:59.544,23,-130,-180,-182,-195,-225,-249,-274,-278,-300,-343,-386,-449,-492,-521,-565,-633,-676,-718,-745,-735,-711,-599,-408,-155,110,350,525,651,714,741,723,691,652,599,529,486,449,403,352,298,241,191,179,151,122,118,125,111,93,75,63,41,-7,-70,-83,-50,-47,-71,-28,-19,18,67,73,71,73,52,35,25,-92,-388,-730,-1337,-938,-12,450,497,290,183,-37,-166,-208,-216,-225,-244,-283,-308,-319,-354,-392,-436,-479,-510,-537,-572,-620,-668,-693,-694,-670,-631,-508,-297,-21,277,522,677,795,837,847,832,791,742,673,611,573,517,458,410,372,333,290,250,211,210,193,153,142
2018-05-17,17:38:00.581,126,118,125,91,65,54,55,43,-9,-88,-125,-129,-169,-212,-171,-86,-21,17,49,49,52,37,6,-16,-73,-346,-696,-1466,-1284,-252,443,727,484,256,15,-119,-169,-175,-184,-216,-241,-256,-286,-305,-342,-383,-408,-441,-504,-571,-620,-685,-726,-757,-746,-715,-614,-414,-150,156,407,592,720,803,832,814,765,703,649,592,514,446,407,370,335,271,242,197,171,167,143,130,113,122,81,70,75,84,57,6,-83,-138,-148,-168,-179,-126,-67,-26,-18,28,43,27,20,-3,-9,-75,-340,-652,-1251,-1179,-166,449,685,522,353,97,-65,-119,-130,-151,-172,-210,-230,-251,-266,-269,-316,-355
2018-05-17,17:38:01.619,-414,-457,-514,-576,-623,-655,-670,-657,-622,-546,-369,-125,133,357,552,675,718,725,712,680,642,584,506,451,391,346,311,258,196,156,121,105,97,83,68,73,66,52,43,48,44,16,-21,-69,-123,-130,-137,-162,-122,-84,-6,28,57,59,55,48,33,23,-20,-216,-534,-1099,-1416,-462,235,634,489,322,83,-91,-170,-184,-190,-201,-226,-248,-265,-303,-326,-350,-382,-428,-475,-510,-574,-650,-679,-693,-717,-698,-614,-455,-232,29,271,490,628,692,715,712,677,633,570,498,459,403,339,294,247,204,170,147,136,120,111,105,111,130,132,131,156,174,162,152,154,151,133,79
2018-05-17,17:38:02.656,-12,-48,-67,-105,-128,-84,8,59,78,111,109,97,92,87,67,-44,-330,-715,-1469,-1174,-162,524,746,436,185,-88,-223,-284,-305,-319,-332,-360,-402,-414,-445,-488,-522,-564,-618,-665,-715,-783,-845,-899,-918,-907,-848,-746,-558,-284,2,207,361,484,546,570,559,525,482,436,393,353,309,259,215,192,166,123,111,116,139,125,122,111,121,137,142,153,157,154,174,170,161,127,60,28,9,-18,-9,85,172,266,307,337,345,356,371,367,394,314,55,-250,-876,-496,442,985,1071,911,842,689,583,535,541,548,521,491,463,420,400,401,374,332,283,235,184,110,34,-19
2018-05-17,17:38:03.693,-51,-61,-52,42,218,431,689,901,1018,1070,1097,1081,1016,936,863,798,716,634,544,473,414,342,287,246,186,145,107,95,68,29,13,-5,-23,-67,-108,-127,-171,-212,-265,-352,-384,-407,-448,-451,-403,-331,-278,-270,-249,-258,-264,-305,-322,-344,-536,-811,-1227,-1841,-1093,-330,178,127,-99,-309,-480,-564,-582,-595,-630,-648,-661,-684,-696,-718,-747,-784,-812,-843,-899,-941,-994,-1038,-1057,-1056,-1043,-992,-845,-618,-352,-83,144,308,404,455,463,440,415,391,359,311,245,194,177,133,81,31,25,13,-10,-25,-9,27,43,56,63,36,47,41,6,-8,-24,-30,-80,-193,-243,-236,-263,-267
2018-05-17,17:38:04.730,-196,-120,-79,-42,-8,-7,16,27,28,39,-42,-339,-702,-1388,-1052,-116,568,796,501,241,-29,-198,-268,-281,-285,-301,-330,-356,-392,-424,-454,-485,-523,-568,-639,-686,-738,-811,-862,-894,-881,-832,-707,-472,-181,115,410,623,741,818,865,846,819,760,698,638,587,546,504,445,406,366,322,276,260,234,227,232,218,208,201,186,168,159,164,167,128,101,102,98,41,-23,-27,-63,-122,-108,-27,51,104,121,137,143,142,125,107,87,-39,-304,-717,-1469,-863,-5,564,588,398,245,9,-131,-174,-184,-208,-228,-237,-257,-286,-306,-332,-362,-395,-436,-479,-523,-573,-620,-641,-660,-652,-586
2018-05-17,17:38:05.767,-470,-289,-57,166,372,525,608,651,657,630,572,535,481,427,375,329,295,256,219,168,126,88,65,34,35,7,-15,-14,-18,-9,-2,18,31,55,57,3,-18,-15,-30,-51,-6,68,121,121,135,130,140,114,69,52,3,-185,-459,-1055,-1358,-384,305,682,506,335,90,-84,-157,-171,-173,-172,-209,-233,-255,-271,-305,-339,-377,-428,-492,-536,-576,-631,-676,-710,-723,-682,-583,-402,-181,83,341,532,664,723,732,725,698,655,612,567,510,447,404,350,307,277,238,218,198,191,185,181,169,169,188,189,174,149,140,128,122,110,47,-26,-64,-94,-128,-144,-84,1,55,61
2018-05-17,17:38:06.804,82,80,46,33,33,6,-128,-399,-778,-1492,-993,-110,487,550,323,154,-89,-228,-254,-260,-301,-319,-315,-340,-393,-414,-424,-436,-463,-489,-547,-602,-643,-689,-726,-735,-709,-656,-543,-356,-109,155,366,514,626,690,717,707,677,648,620,567,496,452,424,371,310,258,214,182,151,141,144,136,126,128,142,130,109,107,104,75,21,-34,-26,-43,-74,-60,-21,58,92,104,120,114,115,99,74,32,-116,-366,-855,-1431,-682,47,531,463,269,58,-118,-193,-210,-234,-262,-283,-291,-309,-337,-357,-392,-441,-480,-525,-592,-666,-737,-790,-834,-861,-851,-774,-604,-363,-93,164,378,524,625,656
2018-05-17,17:38:07.842,651,633,586,538,466,405,359,297,240,204,149,96,60,24,11,9,0,-24,-38,-21,-18,-28,-28,-26,-45,-67,-77,-159,-213,-216,-230,-264,-232,-158,-83,-43,-18,13,-5,-7,-10,-23,-69,-295,-621,-1146,-1387,-310,317,685,499,362,142,5,-38,-25,-32,-45,-58,-80,-86,-135,-143,-148,-203,-261,-296,-331,-424,-458,-506,-574,-571,-542,-466,-305,-76,214,488,715,903,992,1008,1005,980,926,882,874,809,726,659,616,576,532,504,450,411,398,396,374,368,350,322,307,304,319,285,273,262,166,70,49,15,-52,-68,16,90,101,131,191,191,144,147,138,99,-28,-277,-796
2018-05-17,17:38:08.879,-1716,-882,-34,769,767,578,266,-50,-210,-234,-253,-278,-297,-302,-340,-373,-393,-436,-483,-523,-578,-642,-722,-783,-827,-870,-878,-867,-822,-645,-411,-124,178,428,605,709,750,761,732,676,625,585,513,448,416,371,319,287,244,188,173,145,154,135,130,108,71,73,70,69,45,31,-4,-74,-135,-134,-142,-159,-105,-24,62,107,129,122,122,123,82,63,17,-198,-525,-1198,-1635,-560,231,852,675,417,98,-148,-261,-287,-305,-316,-328,-338,-367,-393,-429,-452,-490,-535,-569,-635,-695,-755,-809,-841,-840,-800,-699,-511,-220,77,366,601,759,840,866,849,801,728,667,603,513,444,398,327
2018-05-17,17:38:09.916,271,232,196,166,163,150,108,89,92,86,77,67,70,67,41,5,-66,-133,-155,-202,-232,-173,-89,-23,10,19,44,43,35,24,7,-62,-285,-589,-1236,-1412,-442,217,547,381,243,22,-140,-221,-209,-217,-240,-268,-305,-331,-347,-372,-397,-437,-463,-504,-563,-599,-641,-658,-686,-704,-661,-566,-402,-174,46,260,424,528,603,615,605,599,582,545,503,476,439,411,361,327,298,267,230,201,179,183,155,120,110,78,69,67,34,-44,-68,-70,-80,-83,-14,30,68,92,114,119,114,90,67,36,-57,-282,-654,-1427,-1130,-219,459,629,443,229,-42,-155,-201,-219,-222,-242,-274,-298
2018-05-17,17:38:10.953,-306,-329,-370,-393,-417,-461,-507,-582,-625,-677,-700,-699,-693,-632,-490,-282,-19,221,425,578,668,727,731,713,682,615,562,511,445,387,329,279,231,195,168,136,112,103,89,91,106,113,112,106,103,94,41,-37,-63,-75,-105,-104,-43,36,94,116,123,124,107,82,64,40,-100,-412,-806,-1445,-886,13,564,575,297,100,-95,-172,-218,-221,-251,-270,-307,-337,-363,-405,-443,-464,-504,-554,-592,-635,-695,-755,-808,-831,-804,-731,-574,-319,-5,337,606,789,878,908,901,866,830,766,691,631,592,531,468,407,365,320,280,245,231,219,201,176,181,183,182,164,147,133,89,10
2018-05-17,17:38:11.990,-53,-64,-94,-115,-101,-44,33,78,115,112,86,86,62,30,-6,-163,-438,-957,-1633,-817,-11,613,519,299,89,-106,-201,-236,-242,-267,-300,-324,-363,-376,-384,-414,-446,-469,-506,-571,-648,-698,-744,-789,-805,-780,-711,-524,-260,29,299,536,693,780,810,798,764,698,639,581,514,462,416,375,322,271,247,215,178,162,144,138,105,107,130,120,82,46,-26,-93,-123,-158,-162,-87,-33,7,32,34,33,25,11,0,-12,-102,-329,-622,-1205,-1176,-154,409,591,410,288,45,-99,-145,-155,-164,-174,-195,-219,-247,-273,-316,-350,-382,-419,-470,-526,-586,-614,-660,-667,-673,-643,-540,-344,-107
2018-05-17,17:38:13.027,155,391,548,658,707,714,686,639,598,553,485,419,367,330,303,263,221,194,188,157,145,132,106,90,81,72,77,62,55,61,-13,-101,-118,-120,-158,-141,-71,7,65,104,125,131,146,131,89,65,-63,-342,-730,-1553,-1049,-123,551,596,334,133,-72,-183,-215,-228,-230,-240,-257,-287,-322,-355,-379,-409,-447,-482,-534,-589,-669,-732,-746,-771,-770,-734,-624,-385,-135,166,447,623,722,793,783,755,715,650,593,546,488,431,379,319,255,223,178,140,117,103,95,85,70,67,62,52,33,35,13,-70,-109,-105,-124,-122,-37,55,127,145,168,189,200,192,172,155,88,-181
2018-05-17,17:38:14.065,-526,-1303,-1224,-178,517,818,511,288,57,-96,-150,-169,-185,-200,-226,-233,-262,-293,-331,-375,-399,-439,-510,-576,-646,-712,-754,-780,-761,-721,-608,-403,-138,137,391,591,722,785,791,758,726,667,597,539,486,432,369,319,270,240,192,160,153,135,130,130,106,103,96,81,69,58,48,4,-71,-115,-130,-168,-215,-150,-65,-17,6,20,16,18,4,-18,-55,-117,-352,-660,-1332,-1332,-338,280,501,312,176,-47,-197,-257,-273,-280,-319,-323,-328,-365,-379,-398,-414,-446,-502,-517,-555,-617,-649,-673,-690,-678,-626,-534,-403,-192,39,239,408,503,541,552,536,513,497,456,399,348,321,286
2018-05-17,17:38:15.102,246,229,211,178,164,148,141,130,128,144,144,130,103,95,99,48,-21,-37,-44,-83,-84,-9,64,116,147,173,168,139,133,124,99,-56,-331,-764,-1383,-677,93,645,603,359,132,-60,-150,-158,-155,-176,-215,-217,-249,-283,-311,-333,-376,-410,-449,-489,-537,-572,-613,-662,-674,-646,-572,-423,-205,58,296,508,664,753,793,786,776,722,668,611,555,496,446,399,338,293,261,231,207,177,156,147,146,146,146,138,133,120,93,71,30,-53,-105,-120,-146,-140,-54,8,70,97,120,136,115,108,94,64,-47,-339,-684,-1364,-1033,-68,523,631,373,193,-36,-176,-179,-198,-236,-251
2018-05-17,17:38:16.139,-279,-310,-330,-353,-399,-434,-467,-509,-561,-618,-665,-720,-762,-782,-779,-729,-587,-340,-39,253,509,697,834,907,924,905,848,786,706,634,588,547,482,417,379,340,306,271,242,220,221,216,210,186,165,144,140,139,122,102,95,23,-74,-98,-120,-137,-132,-75,-12,33,42,57,62,37,25,12,-19,-143,-406,-834,-1593,-972,-99,612,645,428,168,-78,-191,-213,-229,-249,-258,-277,-305,-331,-359,-370,-414,-452,-494,-557,-618,-665,-705,-746,-764,-740,-673,-553,-359,-112,145,373,527,624,670,675,665,618,561,496,439,392,315,278,253,206,157,142,116,91,97,95,62,44,37,34
2018-05-17,17:38:17.176,-6,-6,-42,-118,-163,-170,-190,-248,-192,-113,-65,-64,-62,-43,-49,-50,-51,-39,-77,-290,-573,-1068,-1345,-352,293,643,444,301,39,-145,-222,-238,-253,-265,-284,-296,-327,-349,-381,-427,-456,-489,-511,-569,-620,-667,-714,-732,-717,-668,-587,-434,-198,54,277,466,582,658,703,687,667,625,574,519,463,405,374,332,284,251,233,187,183,178,167,163,157,143,131,140,132,114,110,88,75,20,-55,-92,-90,-105,-116,-58,12,63,94,121,143,140,133,117,90,-13,-280,-669,-1459,-913,-30,643,709,472,268,17,-106,-146,-170,-205,-232,-254,-267,-292,-318,-333,-368,-409,-460,-525,-583,-635
2018-05-17,17:38:18.213,-687,-724,-750,-742,-678,-549,-334,-77,166,410,602,720,786,803,765,708,670,612,548,519,473,377,343,309,272,210,184,191,193,171,171,165,182,189,192,186,182,189,144,57,12,10,-26,-41,15,69,137,156,178,180,173,175,175,155,70,-153,-466,-1236,-1341,-334,467,893,665,438,127,-66,-143,-157,-162,-177,-202,-248,-299,-323,-366,-397,-409,-476,-529,-591,-628,-670,-698,-703,-695,-662,-558,-386,-146,127,356,534,650,712,731,705,659,621,573,495,445,399,351,311,285,255,212,198,174,166,167,158,152,151,152,127,99,84,74,39,-15,-69,-89,-116,-165,-141,-56,11
2018-05-17,17:38:19.251,32,44,54,50,31,16,-17,-51,-227,-517,-1009,-1335,-444,171,495,358,220,22,-160,-228,-221,-220,-240,-263,-280,-318,-333,-356,-396,-425,-452,-475,-534,-579,-614,-645,-658,-676,-666,-585,-460,-288,-77,130,316,458,535,578,583,563,534,507,462,427,399,348,319,275,251,230,206,183,158,141,135,136,158,153,145,137,136,111,72,-1,-53,-86,-93,-115,-48,24,72,83,113,118,123,107,85,67,-34,-262,-615,-1377,-1083,-158,492,653,399,182,-35,-152,-194,-177,-217,-239,-238,-284,-313,-334,-359,-399,-433,-466,-516,-580,-642,-717,-758,-796,-797,-739,-607,-391,-127,165,417,600,718,786
2018-05-17,17:38:20.288,784,769,721,671,611,552,497,447,380,315,280,241,196,171,151,151,133,115,98,80,75,73,71,65,38,-20,-100,-127,-150,-194,-168,-93,-9,11,15,16,21,13,4,-21,-65,-235,-558,-991,-1532,-708,8,417,297,70,-102,-262,-377,-396,-385,-386,-400,-423,-436,-452,-490,-532,-574,-609,-665,-724,-773,-821,-850,-869,-873,-846,-763,-619,-391,-107,168,390,564,667,707,725,709,664,606,537,476,434,400,350,297,245,211,179,175,183,174,167,186,193,182,150,168,137,109,71,43,46,52,38,54,139,226,296,355,399,417,441,450,451,461,357,134,-241,-942,-292,558,1207
2018-05-17,17:38:21.325,1211,1034,836,627,516,499,496,484,468,470,450,421,406,384,338,299,277,224,159,90,70,85,86,70,85,157,330,533,743,939,1074,1119,1150,1139,1084,1005,913,842,776,700,629,574,511,465,399,302,244,206,172,136,109,93,80,60,15,-42,-136,-198,-231,-275,-301,-251,-185,-129,-115,-91,-63,-64,-86,-105,-126,-203,-431,-699,-1277,-1447,-441,135,389,141,-18,-248,-393,-461,-491,-518,-541,-564,-606,-642,-678,-716,-753,-793,-813,-851,-885,-905,-945,-980,-985,-986,-944,-846,-652,-404,-181,48,236,388,440,455,442,416,401,342,295,262,214,157,95,41,18,-8,-42,-56,-80,-94
2018-05-17,17:38:22.362,-91,-97,-103,-94,-83,-89,-93,-126,-181,-232,-220,-231,-255,-205,-130,-55,-18,-11,2,-2,-13,-15,-39,-81,-259,-575,-1191,-1635,-582,156,653,455,258,2,-192,-284,-306,-320,-322,-341,-361,-396,-440,-451,-493,-539,-582,-631,-684,-751,-806,-837,-868,-883,-857,-753,-592,-348,-56,205,412,567,654,674,671,653,585,539,500,443,405,342,279,222,189,170,132,75,53,38,28,26,33,34,41,55,56,-10,-79,-75,-61,-83,-68,-24,48,110,115,127,119,104,86,58,31,-96,-351,-772,-1551,-903,-70,594,614,394,134,-100,-211,-252,-269,-269,-296,-324,-343,-368,-402,-442,-483,-530,-551,-576
2018-05-17,17:38:23.399,-608,-656,-709,-728,-723,-706,-612,-483,-294,-38,208,427,564,647,668,651,630,589,536,504,430,382,344,294,251,242,204,171,151,156,147,141,137,138,140,127,107,57,4,-27,-76,-103,-63,0,62,89,108,112,106,108,100,72,21,-144,-395,-957,-1403,-488,190,564,421,248,40,-130,-210,-234,-244,-248,-263,-284,-305,-323,-363,-381,-417,-464,-510,-545,-586,-629,-658,-674,-665,-620,-533,-391,-184,62,299,451,560,628,644,622,601,564,506,442,395,360,311,268,245,220,200,196,192,189,200,205,202,194,193,188,184,151,58,10,-6,-42,-61,-12,50,123,150,168,172,157
2018-05-17,17:38:24.436,141,129,109,50,-149,-487,-1293,-1303,-305,504,851,599,359,71,-86,-158,-179,-188,-212,-237,-252,-288,-336,-369,-385,-421,-479,-510,-583,-645,-686,-712,-737,-733,-679,-567,-377,-117,144,366,554,686,729,737,729,707,680,629,562,532,490,432,410,378,319,285,247,219,223,212,198,190,185,174,135,114,57,-20,-44,-55,-100,-122,-66,4,62,90,97,67,79,68,49,30,-122,-422,-869,-1494,-734,84,637,570,369,157,-49,-154,-181,-206,-230,-235,-255,-278,-320,-345,-376,-413,-450,-495,-566,-621,-641,-687,-706,-687,-686,-629,-488,-279,-42,191,413,556,648,680,687,675,663,603,555,503
2018-05-17,17:38:25.474,467,437,391,339,295,253,228,202,174,146,139,132,140,110,42,-7,-13,-28,-62,-49,-1,65,109,134,119,118,114,87,53,23,-137,-379,-1037,-1390,-499,231,626,469,282,19,-154,-216,-221,-241,-250,-274,-284,-312,-340,-375,-390,-412,-452,-485,-537,-583,-614,-632,-655,-647,-600,-493,-319,-92,140,337,477,576,645,653,633,605,573,514,453,405,354,304,271,235,193,173,139,125,121,119,112,105,83,26,-49,-63,-69,-97,-98,-43,30,87,116,133,130,109,98,75,65,-44,-339,-723,-1424,-812,39,569,530,264,75,-80,-170,-218,-214,-224,-259,-282,-302,-344,-377,-398,-426,-474
2018-05-17,17:38:26.511,-507,-564,-614,-659,-718,-752,-762,-720,-631,-449,-192,100,363,581,731,813,830,832,799,738,687,637,586,536,476,424,380,347,305,260,234,217,220,200,204,203,180,127,43,-5,-15,-28,-29,11,42,114,129,125,119,88,74,48,27,-73,-319,-715,-1578,-1084,-182,495,578,311,88,-89,-186,-209,-201,-216,-245,-266,-289,-312,-337,-394,-439,-487,-535,-591,-668,-712,-760,-794,-798,-781,-701,-542,-299,-10,253,460,619,717,758,759,723,674,628,572,515,465,405,349,297,260,226,193,161,141,146,138,122,107,92,22,-45,-42,-66,-97,-77,-27,32,77,99,93,93,79,38,20
2018-05-17,17:38:27.548,3,-219,-509,-1018,-1433,-459,160,512,375,247,75,-80,-168,-172,-161,-173,-194,-202,-218,-250,-279,-299,-313,-362,-407,-457,-498,-541,-568,-594,-596,-564,-464,-294,-57,192,409,574,683,726,741,734,710,660,598,548,489,447,407,339,293,242,199,175,163,132,115,103,94,51,-18,-51,-71,-88,-120,-72,-6,47,58,73,86,77,52,20,2,-60,-253,-538,-1259,-1068,-192,449,600,425,247,9,-119,-167,-186,-202,-235,-246,-259,-286,-320,-350,-379,-414,-466,-512,-551,-595,-635,-663,-655,-646,-588,-454,-255,-33,182,370,501,575,598,590,583,535,494,446,381,340,301,247,212,197,172,150
2018-05-17,17:38:28.585,129,119,120,105,95,76,29,-38,-76,-79,-90,-103,-48,3,50,70,75,44,32,22,2,-22,-149,-467,-809,-1429,-806,45,613,619,366,162,-31,-132,-156,-156,-174,-189,-198,-213,-228,-257,-293,-340,-372,-413,-470,-532,-582,-630,-662,-675,-648,-569,-414,-176,83,330,557,686,752,794,787,757,691,646,598,541,487,419,360,311,270,241,204,192,195,160,136,134,119,80,-12,-67,-84,-111,-121,-60,5,61,95,109,91,96,87,82,60,-21,-257,-610,-1395,-1135,-172,563,774,474,234,-11,-166,-211,-219,-247,-267,-290,-300,-316,-348,-391,-436,-481,-533,-585,-627,-684,-724,-760,-775,-744
2018-05-17,17:38:29.622,-680,-531,-289,-14,235,452,606,710,735,720,701,643,585,528,466,413,373,326,282,234,206,173,141,121,105,104,116,55,-23,-56,-89,-105,-131,-87,-26,21,54,60,68,89,84,99,88,12,-230,-543,-1242,-958,-46,563,678,457,279,20,-104,-136,-149,-161,-165,-182,-204,-229,-254,-285,-322,-358,-401,-439,-476,-530,-574,-605,-597,-570,-512,-371,-146,82,284,456,595,638,652,658,630,558,485,445,402,346,304,259,215,175,146,106,96,106,91,52,2,-59,-77,-61,-53,-58,-8,38,92,131,142,131,116,116,104,79,15,-199,-535,-1231,-1132,-192,422,595,371,216,-5,-136
2018-05-17,17:38:30.659,-189,-201,-216,-246,-280,-300,-327,-358,-391,-415,-462,-508,-544,-604,-650,-672,-708,-709,-689,-617,-474,-247,-14,219,429,547,610,648,647,625,580,511,455,397,348,289,236,177,140,119,107,103,104,97,98,78,29,-24,-1,0,-14,34,100,166,205,223,227,227,219,200,163,70,-166,-503,-1221,-1215,-206,521,831,518,273,19,-120,-144,-149,-169,-182,-203,-221,-257,-283,-319,-361,-412,-484,-523,-591,-641,-678,-722,-715,-696,-663,-528,-296,-17,238,444,579,657,687,689,675,624,588,532,476,432,380,316,272,247,236,207,174,166,158,151,143,87,-5,-49,-41,-58,-78,-11,47,106
2018-05-17,17:38:40.120,13,14,42,71,116,160,178,163,150,142,119,84,-16,-275,-668,-1288,-767,60,581,588,431,298,38,-111,-154,-156,-187,-231,-262,-278,-316,-349,-381,-409,-451,-502,-514,-547,-577,-596,-600,-574,-536,-430,-246,-43,134,287,389,461,499,493,458,429,365,320,288,235,197,176,113,50,-18,-75,-96,-90,-81,-52,-10,50,113,179,223,243,267,247,234,188,31,-329,-881,-1287,-145,521,886,696,485,203,6,-76,-93,-136,-145,-173,-192,-226,-247,-321,-320,-366,-437,-477,-523,-573,-612,-614,-597,-576,-525,-415,-199,55,255,423,557,633,643,614,587,564,523,455,390,337,314,287,249,212
2018-05-17,17:38:41.920,138,72,23,15,24,21,59,141,190,295,208,136,182,185,171,155,67,-149,-450,-1199,-1282,-302,455,830,591,401,124,-93,-202,-229,-218,-262,-286,-320,-339,-352,-371,-414,-456,-488,-523,-560,-575,-593,-615,-594,-543,-449,-355,-176,14,162,295,398,427,443,460,445,426,406,361,389,505,283,126,63,132,109,33,53,94,86,68,84,139,204,255,264,264,259,235,240,164,-89,-421,-1157,-1112,-218,549,850,614,422,106,-58,-156,-157,-187,-237,-256,-287,-287,-279,-307,-342,-395,-414,-461,-482,-528,-545,-561,-579,-557,-481,-345,-150,54,230,362,457,511,518,505,471,428,388,361,309
2018-05-17,17:38:42.957,259,218,197,174,101,45,-7,-25,-31,-22,-10,24,69,124,160,193,198,205,179,142,43,-221,-585,-1291,-1105,-83,510,680,374,276,63,-108,-149,-133,-192,-166,-229,-287,-270,-303,-331,-365,-391,-441,-484,-531,-572,-597,-610,-604,-566,-497,-347,-135,83,283,445,554,632,665,677,581,630,558,455,363,365,293,250,218,209,178,123,81,74,76,69,66,131,141,216,256,256,228,205,182,146,97,-90,-390,-1069,-1251,-335,313,626,435,257,63,-65,-129,-151,-154,-181,-178,-211,-240,-281,-293,-303,-370,-417,-460,-482,-500,-516,-518,-496,-472,-408,-318,-167,25,203,338,430,486,504,496
2018-05-17,17:38:43.994,481,421,371,334,289,221,182,151,111,97,8,-52,-67,-76,-71,-61,-59,-19,3,63,101,109,113,97,78,63,-17,-329,-682,-1213,-918,-45,294,363,121,35,-66,-149,-170,-187,-198,-216,-219,-229,-224,-240,-287,-262,-284,-356,-330,-393,-479,-425,-482,-525,-475,-390,-279,-97,110,301,432,541,608,636,619,561,529,511,457,398,345,314,259,207,190,177,126,60,-14,-25,-26,-10,10,46,67,131,177,157,143,132,108,93,54,-210,-571,-1242,-1192,-121,494,772,473,316,63,-96,-151,-168,-174,-176,-193,-216,-238,-263,-285,-323,-375,-410,-454,-508,-552,-572,-586,-602,-549,-485,-421,-254
2018-05-17,17:38:45.031,-35,176,331,467,534,548,546,537,511,425,381,362,304,258,202,162,135,112,89,37,-14,-36,-36,6,2,-18,7,29,109,144,146,134,132,122,78,-112,-448,-829,-1218,-410,241,614,539,389,258,64,-44,-56,-28,-75,-122,-129,-120,-136,-153,-184,-225,-255,-320,-335,-348,-385,-394,-394,-375,-331,-291,-184,-26,126,275,376,453,479,514,508,446,448,389,328,269,228,176,149,143,114,73,44,-18,-25,-15,-13,-26,-12,3,3,75,119,125,116,99,86,63,-98,-386,-838,-1362,-514,211,723,626,431,163,-97,-205,-238,-243,-246,-271,-292,-319,-325,-339,-347,-400,-446,-470,-492
2018-05-17,17:38:46.069,-513,-538,-544,-509,-464,-408,-340,-235,-72,73,196,289,348,372,368,322,274,251,250,210,171,161,140,106,106,101,98,102,93,73,48,39,70,91,73,195,193,156,220,258,250,227,217,197,93,-151,-500,-1244,-1105,-113,662,1012,714,496,144,-46,-116,-137,-169,-186,-194,-223,-254,-267,-302,-334,-366,-392,-432,-480,-511,-533,-547,-512,-463,-440,-364,-198,-13,151,295,409,447,461,467,442,396,355,331,310,264,224,191,156,141,131,110,74,18,-4,-8,-30,-38,-16,44,62,113,186,194,187,177,160,114,57,-205,-584,-1166,-1171,-164,418,740,464,354,110,-99,-173,-212,-211
2018-05-17,17:38:47.106,-230,-256,-261,-278,-293,-325,-338,-362,-416,-436,-467,-489,-493,-484,-460,-424,-349,-257,-79,155,278,309,423,596,573,614,572,445,410,419,365,341,313,284,254,228,220,199,158,107,81,75,67,46,60,89,111,163,190,176,149,155,142,112,-10,-269,-646,-1315,-721,18,569,602,405,210,1,-113,-151,-164,-186,-205,-237,-247,-262,-278,-308,-336,-352,-391,-427,-453,-472,-483,-495,-476,-445,-397,-308,-166,0,136,246,329,382,396,396,376,331,307,281,240,198,161,146,111,57,60,40,25,22,-31,-78,-83,-73,-68,-44,-9,2,57,72,45,36,38,25,6,-175,-539,-889,-1346
2018-05-17,17:38:48.143,-445,220,664,587,410,267,73,3,-110,-141,-88,58,6,-137,-104,80,82,-328,-650,-614,-544,-513,-500,-500,-460,-429,-404,-356,-245,-73,75,254,399,464,527,551,544,515,466,421,374,303,245,212,185,153,122,113,103,134,83,11,9,24,-15,-7,3,35,57,73,117,168,179,166,161,123,73,-68,-377,-768,-1427,-752,57,808,898,635,341,-8,-188,-227,-235,-263,-273,-292,-306,-315,-327,-370,-390,-393,-432,-472,-494,-503,-519,-508,-469,-423,-363,-259,-141,26,160,242,312,358,368,363,357,341,299,267,235,194,159,154,135,147,194,234,217,181,13,68,54,-10,-5,39
2018-05-17,17:38:49.180,185,138,173,237,227,226,224,214,198,154,-31,-279,-754,-1242,-434,252,778,672,507,248,-2,-103,-124,-155,-165,-170,-236,-245,-259,-260,-267,-295,-360,-372,-372,-387,-391,-394,-381,-357,-309,-252,-157,-39,70,179,269,331,357,379,374,369,335,282,239,195,155,132,103,89,78,69,58,31,7,-38,-55,-45,-52,-70,-15,17,55,103,138,140,124,85,64,26,-238,-561,-1086,-1201,-259,295,535,301,145,1,-103,-159,-176,-188,-182,-229,-240,-255,-276,-275,-308,-340,-374,-401,-440,-458,-464,-449,-419,-366,-264,-212,-97,99,381,466,451,455,470,589,525,423,448,459,339,318,338,249
2018-05-17,17:38:50.217,343,276,72,33,81,137,126,55,19,-28,-53,-18,-11,-4,16,75,130,131,134,122,104,97,47,-133,-451,-831,-1477,-682,91,656,610,393,206,3,-99,-92,-109,-159,-183,-187,-212,-227,-240,-201,-138,-267,-475,-487,-450,-344,-440,-549,-455,-319,-349,-304,-73,30,158,305,406,394,392,434,448,403,381,353,302,225,209,183,165,139,104,89,80,45,1,-24,-73,-51,-49,-79,-59,-3,8,30,68,83,79,90,114,146,76,-162,-450,-1099,-865,239,394,369,288,307,136,121,-102,-193,-142,-173,-237,-246,-211,-165,-228,-285,-301,-317,-326,-366,-396,-329,-335,-253,-307,-177,-142,-148
2018-05-17,17:38:51.255,6,157,233,342,362,414,686,859,322,370,379,217,245,586,319,47,16,529,335,77,15,368,-250,-165,39,-78,59,-140,154,555,551,-207,-249,-132,238,468,-140,-145,99,-257,-532,-991,-1406,-652,21,647,649,132,-100,-275,-431,-410,-361,-339,-353,-372,-353,-351,-406,-411,-286,-480,-563,-422,-432,-493,-442,-346,-524,-589,-320,-277,-224,52,147,199,274,314,303,252,255,383,398,364,504,403,4,-84,13,101,261,275,111,285,329,162,215,156,304,-94,-210,47,-102,-35,125,340,401,158,67,164,201,199,177,12,-338,-778,-1394,-488,208,603,534,652,388,-182,-178,-161,-116,-85
2018-05-17,17:38:52.292,-293,-392,-295,-124,-84,-405,-503,-364,-280,-373,-344,-434,-489,-394,-400,-283,-325,-324,51,246,387,83,177,422,428,447,421,413,370,311,268,238,208,179,163,148,140,124,107,113,82,25,-6,-47,-51,-76,-90,-33,3,41,79,81,46,37,38,-2,-25,-195,-476,-822,-1359,-719,44,411,379,194,78,-51,-154,-166,-187,-211,-173,-36,-82,-282,-232,-163,-225,-247,-243,-315,-313,-290,-372,-358,-302,-268,-200,-117,10,142,268,382,467,505,514,492,475,451,421,355,296,258,190,169,113,68,73,62,38,38,39,40,-1,-49,-94,-99,-105,-102,-34,7,22,59,76,118,125,118
2018-05-17,17:38:53.329,133,119,9,-280,-592,-1295,-969,102,573,623,403,233,15,-114,-134,-141,-157,-167,-173,-184,-207,-224,-241,-283,-318,-379,-415,-451,-458,-472,-496,-448,-382,-332,-259,-172,-15,135,248,377,438,463,439,430,401,367,321,282,205,109,74,87,80,60,27,11,35,50,46,35,-17,-61,-75,-69,-66,-33,20,82,135,178,201,190,174,166,159,134,-40,-364,-894,-1438,-459,251,1004,952,692,306,18,-130,-162,-171,-206,-209,-271,-274,-290,-329,-357,-376,-391,-423,-457,-483,-467,-434,-446,-443,-379,-302,-164,0,168,323,428,508,564,576,515,454,389,349,332,272,228,211,184,182,150,136
2018-05-17,17:38:54.366,161,158,155,149,105,60,9,17,8,-32,-42,21,61,103,139,126,108,107,80,75,59,-78,-334,-870,-1439,-535,139,597,453,297,82,-106,-171,-236,-243,-251,-282,-283,-284,-313,-330,-333,-370,-383,-386,-426,-441,-435,-444,-408,-360,-288,-178,-95,44,156,257,354,425,489,432,406,380,360,351,313,272,225,185,165,119,88,61,55,60,69,78,17,-29,-59,-78,-101,-125,-126,-60,-51,4,41,42,13,-4,-13,-46,-114,-323,-615,-1195,-1461,-449,183,550,384,228,-25,-204,-312,-320,-344,-356,-378,-398,-400,-408,-422,-450,-469,-506,-532,-551,-583,-584,-584,-578,-528,-484,-402,-288,-127
2018-05-17,17:38:55.403,46,172,262,338,366,401,417,410,360,320,261,228,209,186,143,93,63,49,34,23,20,37,54,-7,-64,-91,-72,-100,-161,-111,-56,-7,39,80,119,142,139,174,205,107,-135,-495,-1098,-703,324,956,1075,868,365,61,-16,6,8,-33,-65,-76,-55,-68,-92,-126,-147,-175,-227,-264,-262,-282,-287,-275,-235,-193,-156,-58,50,189,375,508,604,653,684,690,666,618,547,503,468,426,372,315,293,285,276,277,288,277,223,192,145,117,152,108,103,246,146,-69,89,224,242,323,380,392,240,245,193,-30,-708,-1755,-1227,-52,550,752,551,498,-70,-296,-239,-196,-162,-198
2018-05-17,17:38:56.440,-242,-278,-316,-315,-305,-348,-412,-431,-439,-474,-491,-506,-495,-496,-416,-317,-252,-224,-131,0,148,299,405,388,330,388,582,493,245,463,412,-7,-128,-32,73,71,-1,93,88,102,55,-35,-47,-17,-11,-12,36,87,113,126,134,139,119,61,65,47,-80,-368,-776,-1413,-860,-92,442,555,374,164,-80,-184,-251,-325,-311,-310,-326,-323,-330,-368,-374,-366,-365,-205,-399,-583,-610,-550,-520,-421,-390,-337,-207,5,135,280,341,392,531,499,458,480,451,424,412,372,322,296,270,250,236,196,164,164,161,174,153,75,30,-12,-20,-21,-64,-56,-25,-11,47,70,65,73,62,26
2018-05-17,17:38:57.478,-18,-71,-354,-731,-1305,-1194,-167,414,648,418,248,3,-142,-119,-143,-197,-159,-144,-236,-257,-286,-307,-320,-335,-362,-404,-421,-442,-458,-454,-398,-354,-307,-227,-83,125,319,470,574,654,684,675,642,606,572,495,414,344,318,248,182,121,145,126,96,104,111,96,52,24,-7,-40,-53,-69,-53,17,37,95,132,174,192,165,149,112,104,0,-279,-724,-1560,-889,-33,571,610,447,225,-54,-210,-229,-224,-226,-222,-235,-245,-261,-281,-310,-337,-359,-393,-433,-441,-421,-410,-398,-336,-304,-238,-145,-39,86,204,297,374,406,429,425,384,366,325,256,231,184,132,87,67,59,25,7
2018-05-17,17:38:58.515,10,2,-39,-74,-95,-71,-68,-73,23,26,50,69,55,113,117,92,91,83,-9,-221,-503,-1130,-1039,-83,550,819,625,446,127,-71,-129,-136,-148,-158,-196,-218,-237,-266,-317,-353,-389,-398,-426,-461,-491,-482,-460,-452,-404,-325,-243,-113,40,176,292,394,422,407,408,410,388,343,315,275,221,164,125,102,73,60,76,72,90,94,73,28,-25,-27,-16,-54,-36,31,88,132,174,192,176,174,159,134,106,-48,-326,-838,-1580,-763,94,886,884,651,335,-8,-169,-169,-175,-240,-260,-283,-313,-332,-370,-401,-416,-434,-493,-508,-552,-579,-578,-550,-499,-440,-385,-283,-107,62,218,352
2018-05-17,17:38:59.552,443,493,515,516,549,530,409,350,309,303,267,233,232,208,211,221,196,176,179,160,93,21,11,8,-42,-20,81,102,209,267,260,223,199,185,191,157,16,-246,-971,-1571,-672,194,873,738,496,161,-72,-177,-189,-187,-218,-248,-263,-284,-299,-319,-366,-426,-465,-490,-532,-539,-531,-519,-499,-446,-394,-313,-183,-36,121,248,344,402,425,413,399,351,307,237,182,128,73,6,-33,-40,-51,-53,-88,-88,-72,-132,-207,-178,-162,-198,-215,-155,-137,-88,-53,-46,-76,-82,-80,-117,-150,-252,-519,-841,-1414,-889,-104,361,385,238,123,-98,-225,-238,-191,-200,-261,-263,-262,-270,-354,-379
2018-05-17,17:39:00.589,-349,-422,-446,-468,-513,-512,-489,-429,-385,-345,-282,-151,28,195,337,487,586,633,646,639,613,552,518,526,479,427,416,403,355,349,378,380,366,360,373,356,287,241,235,237,227,214,260,315,366,410,433,431,418,402,370,315,171,-132,-614,-1344,-620,198,957,1010,823,544,279,126,71,47,10,-17,-53,-69,-61,-84,-126,-169,-197,-199,-251,-281,-282,-294,-286,-250,-188,-126,-6,142,303,452,561,632,676,694,649,603,583,520,451,421,407,362,301,268,234,209,200,211,219,208,198,173,125,9,-15,17,76,130,179,242,266,259,271,252,220,177,126,-80,-383,-1250
2018-05-17,17:39:01.626,-1336,-351,487,1008,827,578,217,-19,-109,-139,-164,-191,-162,-191,-259,-263,-274,-296,-356,-404,-454,-493,-534,-543,-522,-475,-459,-406,-272,-89,88,220,320,374,408,425,418,380,343,305,282,247,208,170,124,97,83,71,64,46,30,21,-4,-60,-63,-51,-84,-106,-57,-32,20,62,66,55,59,25,18,7,-151,-414,-798,-1447,-857,-119,307,295,90,-90,-302,-406,-395,-409,-437,-450,-466,-461,-446,-449,-468,-493,-527,-548,-553,-551,-547,-471,-427,-520,-408,-290,-249,-51,173,162,329,506,491,580,539,233,128,180,195,182,152,145,111,85,64,47,30,29,34,-8,-64,-89,-88,-111
2018-05-17,17:39:02.663,-138,-75,-54,-13,46,70,45,14,-13,-35,-49,-160,-411,-798,-1488,-981,-98,469,524,296,91,-129,-239,-253,-257,-267,-273,-294,-325,-339,-349,-392,-423,-459,-497,-516,-545,-579,-562,-565,-555,-498,-397,-242,-60,120,300,411,489,525,503,513,482,424,366,352,343,243,195,158,124,88,83,58,53,-13,-71,-103,-177,-198,-217,-191,-128,-83,-15,52,69,76,73,99,118,118,-27,-332,-727,-1304,-644,174,810,828,742,394,-111,-206,-132,-229,-322,-318,-272,-258,-285,-320,-353,-349,-378,-440,-469,-490,-502,-512,-473,-429,-384,-311,-167,22,188,337,444,528,555,522,502,478,431,365,312,264
2018-05-17,17:39:03.701,232,209,206,191,181,131,117,108,69,34,16,1,-12,-8,40,82,127,176,202,198,181,172,161,140,57,-106,-450,-1354,-960,-78,640,749,537,342,52,-129,-193,-175,-183,-211,-218,-265,-300,-311,-342,-361,-401,-483,-523,-534,-534,-504,-514,-461,-397,-325,-226,-100,8,118,213,273,319,333,325,306,279,251,228,220,176,201,214,148,181,43,-30,-4,-31,-78,-68,-31,-22,-6,35,86,149,187,199,161,176,168,154,106,-10,-245,-731,-1408,-670,78,753,732,498,201,-20,-105,-128,-134,-169,-186,-200,-245,-265,-288,-320,-351,-384,-413,-437,-459,-477,-473,-474,-447,-368,-258,-104,94
2018-05-17,17:39:04.738,249,349,441,491,520,520,490,460,410,362,308,274,217,151,116,98,68,46,44,20,-23,-54,-41,-44,-59,-40,24,67,128,163,158,158,138,116,68,13,-215,-574,-1095,-1321,-453,125,512,311,145,-27,-192,-236,-247,-258,-259,-253,-257,-270,-283,-293,-291,-263,-314,-414,-451,-375,-238,-434,-565,-463,-357,-247,-84,142,353,497,594,656,677,678,630,617,543,475,447,414,327,272,253,235,211,170,138,79,18,-16,-25,-15,-19,25,47,71,121,144,136,120,82,51,67,1,-200,-556,-1347,-1013,-174,481,616,433,277,39,-92,-136,-152,-167,-189,-206,-224,-252,-268,-285,-317,-343
2018-05-17,17:39:05.775,-395,-426,-457,-466,-480,-445,-403,-367,-293,-183,-16,149,277,372,438,473,501,472,424,383,348,296,252,190,134,88,51,42,1,-58,-93,-104,-133,-138,-149,-152,-100,-44,14,64,90,98,86,92,90,31,-172,-364,-841,-976,-212,261,543,417,415,84,-122,-64,-57,-35,4,-260,-321,-266,-260,-256,-272,-336,-383,-362,-382,-440,-444,-386,-346,-332,-266,-172,-18,139,260,356,414,436,444,447,414,384,337,273,234,203,154,122,76,77,78,51,10,-39,-63,-71,-65,-45,-4,29,91,136,175,178,150,133,126,77,-78,-317,-909,-1452,-589,222,910,821,569,187,-59,-174,-213,-187
2018-05-17,17:39:06.812,-214,-238,-245,-271,-309,-343,-354,-374,-424,-466,-479,-506,-522,-546,-524,-463,-391,-284,-117,43,163,269,315,341,376,376,346,315,281,249,235,209,182,182,227,268,208,223,158,220,63,32,22,47,80,130,225,250,260,265,266,267,262,229,107,-133,-599,-1341,-689,45,713,753,542,298,40,-102,-146,-149,-137,-167,-221,-236,-269,-307,-327,-359,-378,-404,-430,-435,-463,-445,-442,-412,-358,-234,-95,64,229,337,409,449,453,459,421,384,371,329,293,262,238,189,145,116,73,29,0,-19,-18,-4,-5,42,74,127,179,214,198,191,149,127,70,-104,-359,-786,-1231,-432,107,457
2018-05-17,17:39:07.849,305,158,18,-117,-211,-220,-227,-254,-273,-284,-279,-296,-319,-337,-365,-393,-402,-436,-467,-480,-467,-446,-387,-318,-203,-52,111,258,346,419,466,491,470,461,437,392,341,289,245,208,159,131,118,112,60,-12,-30,-31,-46,-90,-17,52,132,158,154,159,153,122,132,90,-16,-290,-710,-1287,-622,66,557,543,349,165,-13,-93,-125,-148,-179,-191,-207,-224,-229,-243,-260,-308,-367,-414,-468,-511,-534,-541,-515,-480,-422,-292,-106,81,237,357,447,485,492,494,453,410,389,346,302,265,226,173,143,130,106,52,-2,-43,-49,-78,-62,-65,-19,21,53,86,110,108,88,52,36,7
2018-05-17,17:39:08.887,-231,-579,-1107,-1168,-165,441,747,526,403,147,-50,-103,-117,-126,-135,-141,-143,-164,-206,-226,-248,-295,-332,-361,-408,-449,-416,-396,-383,-353,-260,-164,10,191,332,438,516,581,594,566,514,466,441,394,324,269,251,212,164,120,67,11,-14,-10,-5,-21,-1,24,43,92,132,141,133,121,103,76,37,-125,-382,-929,-1275,-399,264,695,570,421,146,-33,-129,-146,-140,-143,-185,-200,-237,-274,-295,-327,-377,-409,-430,-433,-460,-466,-470,-439,-351,-290,-200,-53,83,207,297,328,350,358,337,294,275,214,164,149,102,57,45,25,-16,-45,-74,-68,-64,-52,-22,32,80,124,181,177
2018-05-17,17:39:09.924,179,176,157,139,71,-91,-371,-905,-1190,-348,321,770,631,425,151,-32,-113,-140,-135,-163,-183,-189,-227,-264,-301,-334,-352,-400,-426,-476,-486,-488,-473,-427,-373,-309,-195,-19,134,265,373,418,440,473,476,431,393,345,283,221,189,163,138,117,99,86,66,30,-13,-40,-46,-37,1,52,82,135,181,212,197,166,152,115,29,-173,-502,-1237,-1378,-322,411,851,605,408,80,-117,-149,-157,-167,-176,-210,-272,-327,-328,-348,-393,-428,-470,-526,-569,-600,-600,-597,-575,-535,-453,-321,-144,56,226,354,431,521,534,526,488,412,362,377,453,265,230,221,126,122,151,139,76,19,28
2018-05-17,17:39:10.961,7,15,35,124,176,237,296,268,236,203,202,192,98,-93,-465,-1329,-1185,-235,566,792,525,306,47,-121,-168,-150,-196,-204,-203,-238,-269,-294,-325,-385,-441,-488,-532,-546,-553,-559,-531,-476,-418,-320,-176,-5,163,302,398,454,487,483,475,448,385,324,277,221,171,142,113,98,83,62,2,-33,-60,-72,-61,-73,-28,15,36,72,87,86,78,62,-6,-46,-161,-415,-755,-1253,-661,-41,321,318,184,97,-56,-133,-144,-142,-145,-164,-193,-197,-210,-211,-207,-253,-306,-343,-369,-393,-386,-384,-347,-257,-255,-201,-78,45,186,306,385,451,491,495,463,436,376,305,251,190,138,191
2018-05-17,17:39:11.998,204,169,143,79,52,9,14,-14,-25,-37,9,66,107,154,173,167,156,139,120,59,-153,-461,-1079,-1284,-298,339,696,491,342,114,-42,-112,-119,-124,-156,-184,-210,-230,-271,-307,-337,-395,-431,-445,-455,-476,-496,-496,-459,-384,-298,-204,-49,122,258,361,446,455,443,417,396,372,316,273,231,186,141,65,33,29,1,-51,-66,-91,-59,-11,10,67,141,231,289,336,355,457,338,264,252,0,-202,-394,-1029,-592,52,763,931,541,270,15,-94,-94,-123,-123,-131,-181,-200,-212,-243,-277,-320,-348,-383,-425,-474,-493,-477,-474,-422,-358,-282,-137,5,174,310,394,437,440,439,418
2018-05-17,17:39:13.035,371,346,295,248,206,185,171,155,143,126,90,57,33,32,26,22,55,108,134,193,236,240,211,171,168,142,89,-142,-449,-1092,-1015,-150,411,588,365,217,-11,-142,-193,-198,-206,-235,-280,-305,-366,-377,-372,-405,-417,-453,-500,-521,-543,-559,-543,-515,-476,-408,-277,-114,63,236,405,515,159,72,228,279,198,116,127,106,76,20,30,48,-87,-139,-102,-92,-137,-151,-136,-138,-67,27,84,89,103,87,91,85,33,-19,-217,-569,-1314,-1078,-195,446,643,430,199,-39,-154,-164,-190,-208,-200,-259,-255,-202,-217,-230,-277,-316,-378,-419,-420,-415,-390,-350,-319,-261,-150,-11,158,315
2018-05-17,17:39:14.072,455,541,600,618,624,624,604,577,538,501,447,410,380,341,347,338,267,203,123,102,111,108,94,159,248,295,318,329,280,244,270,236,171,-67,-436,-936,-1119,-206,403,730,548,417,217,34,-36,-30,-36,-42,2,108,17,-103,-204,-194,-201,-156,-271,-356,-314,-411,-425,-421,-404,-320,-186,44,244,362,492,588,614,647,670,639,620,547,478,408,376,353,294,282,269,233,201,157,82,68,69,24,6,55,102,146,184,193,183,163,172,164,120,-79,-412,-1142,-1194,-265,409,741,533,372,134,-48,-121,-130,-157,-181,-195,-229,-257,-274,-284,-291,-314,-375,-407,-419,-420,-419
2018-05-17,17:39:15.110,-413,-379,-324,-256,-165,-18,114,232,312,357,418,442,407,369,329,271,205,180,151,86,57,83,51,-61,-110,-128,-126,-123,-122,-80,-28,7,68,152,256,325,91,17,-94,-235,-404,-795,-1415,-825,3,540,558,396,177,-68,-166,-187,-210,-230,-211,-226,-247,-273,-337,-358,-387,-428,-444,-475,-519,-507,-497,-460,-406,-362,-288,-143,30,146,223,310,317,309,322,316,284,243,227,194,137,98,70,53,33,24,-4,-52,-76,-83,-82,-76,-45,1,64,117,168,167,149,143,146,119,9,-224,-685,-1424,-763,45,804,840,574,254,-35,-166,-200,-215,-235,-250,-260,-299,-354,-424,-475,-501
2018-05-17,17:39:23.895,201,228,122,-49,-147,-194,-261,-264,-212,-120,-88,-38,26,41,29,8,17,30,37,-81,-356,-745,-1186,-398,293,756,650,469,358,147,23,35,27,14,1,-24,-58,-78,-122,-178,-194,-212,-269,-299,-275,-286,-293,-328,-329,-249,-151,-129,69,174,174,239,200,161,168,213,191,151,159,270,274,143,2,52,630,407,-128,39,-102,-259,-119,32,191,414,549,489,251,260,173,44,-347,-780,-1210,-524,151,635,608,462,146,-99,-191,-235,-245,-185,-186,-239,-248,-237,-364,-464,-509,-585,-687,-694,-650,-549,-462,-412,-369,-305,-225,-133,1,124,201,266,286,298,314,332,349,358,314,307
2018-05-17,17:39:24.919,273,251,232,182,144,101,45,5,10,48,161,220,240,296,326,334,302,253,171,95,-100,-435,-1275,-1361,-277,469,819,508,292,64,-110,-110,-37,8,-96,-288,-305,-130,-250,-354,-357,-348,-484,-577,-612,-447,-382,-565,-514,-249,-24,-138,118,258,406,588,513,573,622,694,393,151,222,250,233,221,162,106,146,107,25,56,34,-69,-83,-55,-101,-75,-15,42,40,-7,-3,-43,-229,-563,-917,-1257,-511,113,491,495,360,286,105,6,14,15,43,27,16,0,-32,-62,-98,-146,-146,-179,-209,-199,-224,-218,-156,-133,-120,-55,53,117,256,240,198,273,247,169,75,85,19,36
2018-05-17,17:39:25.956,55,58,62,74,12,-38,-20,135,244,98,37,88,133,64,167,183,212,361,321,144,-42,-75,-610,-892,0,558,615,240,254,131,-23,-10,-133,-187,-167,-176,-162,-141,-141,-172,-147,-105,-196,-316,-394,-398,-445,-511,-503,-450,-329,-259,-190,-113,-49,-33,74,127,92,113,139,155,134,182,204,178,174,160,65,97,79,80,72,8,85,92,126,195,174,188,179,205,231,130,-146,-407,-776,-566,106,383,401,273,90,-205,-263,-253,-250,-244,-202,-165,-135,-244,-217,-229,-404,-354,-138,-102,-232,-343,-409,-288,-135,-25,13,170,306,275,523,476,209,279,362,382,250,198,218,214
2018-05-17,17:39:26.994,167,125,102,32,7,-21,-41,-66,-28,-54,-73,-98,-144,-117,-112,-164,-165,-141,-145,-222,-473,-737,-1103,-891,-148,63,275,240,69,-95,-104,-71,-111,-88,-81,-83,-43,-53,-80,-105,-124,-136,-206,-230,-188,-208,-215,-188,-171,-90,-63,45,148,213,189,293,349,332,337,270,171,127,40,-13,-24,-35,-20,74,75,27,153,38,-23,113,9,195,196,-59,12,154,389,416,412,335,10,-250,-1045,-996,158,622,868,657,339,82,-38,-297,-313,-257,-206,-221,-176,-251,-347,-298,-206,-235,-267,-341,-434,-479,-445,-417,-430,-368,-254,-118,-7,62,73,93,115,127,152,168,149,108,91,81
2018-05-17,17:39:28.031,56,41,80,74,94,76,20,36,83,16,84,244,317,358,424,404,379,329,304,273,56,-281,-875,-1498,-596,16,809,708,518,247,31,-104,-89,-90,-71,-71,18,12,37,-288,-395,-187,-296,-309,-640,-643,-596,-756,-664,-544,-306,-120,-157,96,341,374,372,462,439,362,494,512,390,398,87,-96,29,23,-72,28,298,-127,-318,-240,-25,174,212,239,236,154,113,78,43,-99,-450,-822,-1262,-848,104,252,260,31,-40,-111,-231,-296,-248,-228,-211,-165,-167,-171,-181,-136,-130,-122,-109,-127,-129,-162,-172,-96,-35,-5,15,95,182,235,273,333,337,346,330,226,237,138,84,112
2018-05-17,17:39:29.068,192,99,53,90,85,39,75,240,546,207,-64,63,251,-27,48,209,-91,-81,33,82,17,-100,-711,-1100,-216,577,950,525,325,175,-87,-147,-123,-212,-116,76,-83,-240,-288,-481,-435,-213,-145,-619,-102,-623,-1937,-889,262,104,-278,-47,162,202,191,239,238,210,209,129,73,36,16,-41,-99,-100,-131,-152,-199,-190,-167,-107,-38,8,174,257,340,377,336,350,347,369,328,115,-143,-706,-1054,-178,437,1078,1004,742,363,-10,-180,-171,-122,-138,-111,-152,-155,-142,-131,-148,-90,74,-248,-276,-3,-116,-303,-392,-707,-847,-606,-334,-142,74,270,398,393,394,531,686,306,181,21,-29
2018-05-17,17:39:30.105,82,21,162,219,496,182,-244,-205,-164,-320,-97,175,248,276,286,183,174,245,128,-164,-439,-1030,-830,127,399,468,227,61,-144,-248,-330,-391,-351,-384,-430,-358,-371,-317,-307,-293,-303,-273,-256,-175,-138,-123,-45,12,11,18,99,153,310,273,268,321,361,309,256,243,202,106,54,58,-32,-37,-78,-181,-174,-197,-185,-147,-168,14,10,-138,47,48,7,411,375,18,24,-193,-407,-1021,-1152,-106,645,970,802,726,239,-83,53,32,-65,-77,-494,-370,32,67,-380,-580,-454,-684,-664,-562,-455,-422,-377,-276,-290,-279,-190,-84,51,156,151,144,229,228,198,119,49,60,-3,-16
2018-05-17,17:39:31.142,-5,-31,-47,-137,-40,-8,-13,42,153,270,359,502,566,599,591,594,575,376,49,-410,-840,103,662,1377,1410,1078,701,376,170,109,51,-5,-19,-135,-113,-72,-74,-88,-120,-115,-61,34,198,146,-121,-115,0,207,251,298,373,303,271,437,608,723,702,648,675,924,858,608,522,404,311,346,391,311,137,-69,76,181,307,265,121,347,257,140,201,196,19,-282,-824,-1371,-453,228,516,405,204,91,-30,-161,-211,-294,-356,-358,-317,-295,-328,-440,-390,-386,-399,-392,-336,-305,-290,-168,-45,0,60,94,174,191,249,291,286,248,256,231,202,168,53,26,-44,-94,-142,-190
2018-05-17,17:39:32.179,-282,-349,-344,-356,-339,-311,-298,-282,-206,-174,-126,-59,-8,-73,-113,-56,-41,-599,-1615,-995,-88,482,641,438,339,262,27,-15,45,-192,-282,-287,-247,-127,31,-224,-692,-578,-395,-556,-508,-357,-422,-445,-608,-574,-316,-92,-106,-64,33,26,-20,-27,-47,-46,-57,-80,-98,-171,-244,-286,-351,-422,-427,-384,-313,-307,-233,-101,6,65,134,202,201,223,295,175,-115,-447,-1138,-472,301,944,1072,834,570,224,-21,-87,-102,-138,-231,-310,-354,-397,-475,-456,-422,-473,-522,-499,-512,-467,-459,-332,-205,-298,-42,-41,-176,46,120,-44,12,135,74,-6,57,226,290,191,289,181,-50,-87,-39,-30
2018-05-17,17:39:33.217,-195,-165,-146,111,116,72,158,243,164,96,18,-26,-330,-601,-1251,-899,79,774,915,617,308,-12,-144,-249,-305,-317,-284,-264,-298,-374,-499,-570,-566,-560,-601,-635,-580,-565,-523,-450,-297,-171,-52,95,242,359,441,482,487,465,469,439,394,381,333,282,261,218,124,38,-7,-85,-78,-14,21,47,91,99,118,82,105,127,181,131,-120,-515,-1042,-406,83,368,668,540,102,-244,-228,-105,-22,-1,58,37,-51,-22,-1,-63,-158,29,-108,-353,-142,-68,-249,-319,-210,-193,-284,-185,41,95,72,133,163,134,221,315,228,158,42,-84,-153,-189,-245,-358,-381,-364,-357,-338,-308,-272
2018-05-17,17:39:34.254,-201,-69,-20,-12,40,61,101,61,-112,-412,-962,-940,123,830,1272,1104,782,407,200,167,188,130,141,76,17,34,-65,-163,-232,-309,-387,-441,-452,-446,-399,-283,-219,-263,-175,-43,73,148,315,387,428,326,133,336,624,543,109,-392,-253,-104,-111,-59,110,87,462,400,69,28,171,243,254,306,429,614,419,-100,-615,-865,-1321,-797,-186,773,988,521,328,240,45,-135,-95,-112,-143,-106,-112,-130,-148,-184,-205,-249,-299,-361,-434,-465,-515,-507,-488,-453,-331,-248,-164,-61,4,57,167,250,275,332,337,319,325,337,265,187,140,82,32,-5,-18,37,126,162,166,153,166,101
2018-05-17,17:39:35.291,38,-9,-113,-389,-750,-1257,-770,-110,338,424,256,294,101,-93,11,-53,-163,-262,-205,-112,-142,-338,-366,-210,-88,5,-43,-32,4,79,45,-78,-133,187,380,133,9,291,540,443,424,43,-223,-91,33,95,27,49,192,5,-214,-321,-309,-413,-244,-52,-58,-69,-102,-85,-95,-126,-165,-164,-303,-669,-968,-1213,-435,255,759,802,683,434,207,119,90,120,154,97,112,70,20,-12,-23,-36,-55,-70,-93,-70,-119,-127,-81,-69,-38,-50,-31,3,70,102,125,167,236,202,181,159,133,76,83,151,65,-89,-35,-67,-37,-55,106,8,-106,50,-169,-52,23,124,358,102,-405,-1011
2018-05-17,17:39:36.328,-1027,-132,362,914,837,716,172,-84,182,-41,-104,-112,-233,-459,-326,-310,-278,-190,-339,-291,-305,-330,-283,-212,-129,-184,-135,6,110,130,134,66,26,-16,-77,-76,-67,-81,-117,-128,-98,-108,-124,-137,-90,0,67,99,207,266,323,377,397,385,381,407,337,73,-255,-700,-788,42,585,799,551,462,234,-25,-78,-130,-189,-298,-358,-340,-219,-128,-420,-353,-222,-339,-302,-337,-540,-523,-47,28,-399,-324,-20,204,144,159,348,414,378,488,256,149,170,89,101,71,44,68,-58,-139,-99,-128,-50,68,121,171,160,155,198,208,142,-73,-399,-981,-1044,-226,73,210,132,0,-205,-342
2018-05-17,17:39:37.365,-417,-422,-450,-437,-424,-405,-338,-383,-351,-352,-339,-330,-290,-261,-244,-168,-122,-94,24,50,119,160,149,315,330,303,308,300,273,188,190,150,64,53,21,-80,-93,-133,-159,-177,-55,42,98,226,159,139,256,129,199,513,26,-454,-926,-996,-18,680,1058,868,792,512,408,541,540,584,625,285,175,290,143,0,68,114,28,82,108,141,96,98,164,261,268,320,400,478,500,549,544,470,368,310,205,164,102,80,16,-69,-83,-93,-61,-30,-10,88,176,302,365,414,459,521,525,457,139,-185,-796,-315,648,1315,1467,1114,762,403,239,173,120,92,44,-32,-72,-124
2018-05-17,17:39:38.403,-207,-305,-375,-398,-420,-437,-417,-387,-292,-313,-342,-285,-185,-96,-9,51,206,444,305,103,102,418,109,-208,-274,-310,-278,-270,-236,-144,-21,349,268,137,17,-92,-57,-40,-52,-15,-93,-329,-648,-1206,-974,-149,453,617,417,263,-5,-145,-205,-249,-243,-343,-488,-525,-565,-622,-682,-652,-599,-589,-593,-593,-595,-573,-533,-495,-428,-354,-279,-244,-137,-70,45,97,146,166,196,180,186,168,112,65,0,-39,-40,-90,-33,45,81,111,135,134,69,19,26,-81,-422,-647,-1202,-841,-107,234,214,76,-52,-188,-205,-187,-94,170,79,-340,-412,-266,-167,-349,-491,-544,-584,-452,-344,-262,-140,-4
2018-05-17,17:39:39.440,38,232,98,-164,-14,252,314,254,298,376,284,91,4,-44,-71,-108,-141,-135,-155,-174,-134,-80,-57,-9,0,-56,-112,-161,-225,-234,-256,-524,-890,-1238,-1018,-36,223,299,120,24,-93,-149,-202,-184,-104,-92,-67,-54,-21,-29,-45,-87,-73,-88,-96,-113,-130,-102,-41,-16,26,66,65,52,92,135,198,202,158,121,118,131,145,129,7,-117,-153,-174,-199,-158,72,102,143,129,-167,-168,238,471,74,-187,-116,-86,-165,-353,-1077,-633,448,1061,918,690,552,306,42,8,26,-112,-36,-143,-308,-292,-262,-298,-196,-215,-379,-311,-193,-157,-132,-196,-288,-254,-189,-174,-89,1,44,37
2018-05-17,17:39:40.477,10,-18,-39,-83,-116,-136,-159,-226,-299,-261,-186,-130,-34,86,214,312,396,443,439,449,401,274,-2,-284,-844,-359,429,893,844,605,438,201,77,27,-45,-13,-34,-68,-190,-215,-219,-288,-360,-370,-264,-288,-314,-208,-172,-220,-196,-85,2,140,-59,-30,-27,64,2,-104,-12,198,272,161,140,133,136,315,171,-117,9,36,44,33,139,128,226,209,165,173,-127,-554,-1295,-912,129,770,872,591,247,-129,-292,-290,-399,-466,-444,-413,-414,-460,-529,-517,-503,-504,-478,-449,-423,-414,-421,-303,-208,-147,-28,135,264,382,444,502,529,487,473,451,400,388,323,241,116,3,-52,-36
2018-05-17,17:39:41.514,-12,-21,-3,41,109,244,285,235,188,143,31,-312,-685,-1084,-363,397,746,807,598,437,479,84,-619,-761,-484,-383,-323,-154,103,75,-11,-94,-326,-375,-320,-538,-366,-107,-157,-255,-144,7,-64,-110,45,134,174,227,176,158,240,262,197,199,69,-64,-72,-171,-233,-153,-110,-76,-70,-76,-65,-90,-101,-96,-105,-100,-278,-630,-992,-1318,-331,414,956,848,599,263,125,71,28,17,6,-7,-33,-48,-88,-125,-189,-199,-194,-267,-291,-252,-228,-221,-175,-99,5,-5,-99,-156,-121,-91,12,85,154,281,153,152,3,-128,-171,-112,86,116,186,133,229,332,371,409,438,570,563,617
2018-05-17,17:39:42.551,474,413,-109,-574,381,862,1165,1016,817,670,504,452,480,488,488,452,411,408,445,416,339,275,206,95,107,110,128,244,383,495,539,518,540,552,541,559,631,713,754,748,771,778,762,732,739,745,737,739,760,785,874,896,916,938,924,858,813,750,562,224,-172,-745,-290,418,947,977,740,428,116,-62,-255,-394,-377,-338,-354,-375,-460,-510,-442,-395,-446,-564,-617,-590,-351,-364,-631,-836,-1014,-987,-741,-518,-356,-292,-362,-314,-391,-402,-302,-300,-504,-652,-633,-670,-571,-665,-897,-876,-714,-639,-532,-428,-374,-365,-365,-370,-410,-584,-990,-1663,-1861,-720,-88,66,-168,-311,-458,-541
2018-05-17,17:39:43.588,-521,-512,-553,-594,-598,-572,-565,-588,-634,-698,-699,-687,-646,-599,-482,-406,-319,-252,-220,-131,-71,-19,15,32,40,97,82,38,28,12,-40,-63,-122,-187,-237,-274,-253,-249,-186,-126,-14,154,228,305,356,350,387,515,428,0,-199,-1019,-1045,-182,651,1147,768,343,121,71,93,122,214,288,215,-70,-27,-35,-163,-256,-274,-189,-223,-275,-225,-151,-83,-57,-56,-18,55,85,85,158,221,210,149,113,54,4,-22,-90,-120,-146,-181,-197,-202,-194,-222,-164,-124,-38,57,76,45,89,144,159,-39,-242,-739,-743,163,681,857,699,492,286,148,74,46,-6,-64,-98,-129,-180,-171,-242
2018-05-17,17:39:44.626,-252,-241,-293,-349,-329,-275,-270,-204,-228,-313,-369,-331,-280,-202,-71,22,51,-51,0,-45,15,-35,-190,-13,64,-190,-284,-117,17,168,361,391,526,624,455,292,295,295,74,-172,-486,-892,-214,443,840,679,465,200,-26,-40,-22,-28,-38,-69,-153,-288,-451,-535,-556,-580,-610,-594,-553,-508,-481,-416,-363,-309,-274,-203,-100,-50,-24,18,87,128,133,214,291,259,241,222,188,137,95,93,97,64,111,195,238,300,294,281,276,175,103,-43,-353,-827,-1532,-813,-3,738,618,252,-58,-264,-325,-316,-314,-320,-298,-158,-69,-538,-773,-625,-271,159,-273,-741,-544,-357,-325,-227,-84,-20
2018-05-17,17:39:45.663,272,516,403,364,389,326,267,394,432,474,415,175,64,-10,-108,-119,-138,-89,-13,41,129,291,369,388,257,83,69,54,-219,-632,-1028,-1039,36,459,610,403,261,163,95,117,142,137,157,188,169,202,265,295,295,274,226,212,214,290,330,372,397,432,434,463,444,472,470,465,479,451,423,396,360,316,215,166,65,-33,-130,-175,-195,-111,-32,161,307,334,231,245,253,437,450,241,153,-85,-513,-995,-249,552,1124,1201,979,619,202,131,60,180,146,-39,50,-82,-195,-209,-212,-234,-270,-296,-282,-263,-261,-199,-127,-135,-158,-210,-300,-337,-370,-347,-331,-288,-268,-259
2018-05-17,17:39:46.700,-266,-302,-326,-342,-357,-418,-382,-293,-243,-169,-51,-7,117,205,239,216,201,192,45,-184,-619,-983,-76,518,839,645,432,162,30,-69,-158,-172,-208,-223,-278,-332,-367,-426,-471,-485,-544,-719,-688,-635,-546,-469,-346,-213,26,27,245,78,-257,-134,-113,14,226,144,-146,-216,-47,-13,-127,-107,85,-17,-80,6,-144,-133,91,204,165,248,229,204,61,-204,-533,-1286,-998,-53,695,932,740,494,112,-60,-165,-256,-238,-207,-207,-258,-284,-336,-355,-349,-384,-408,-407,-432,-437,-418,-342,-275,-173,-87,27,126,249,338,387,440,422,416,401,372,328,260,193,121,63,-5,-28,1,21,97
2018-05-17,17:39:47.737,165,201,250,231,207,193,150,154,75,-235,-713,-1400,-648,372,1026,1004,754,344,183,93,47,81,-140,-143,14,142,-337,-518,-436,-363,-218,-176,-83,117,151,-41,133,14,-204,-26,-1,161,262,232,189,156,100,58,76,91,38,29,0,-32,-84,-112,-147,-215,-156,-79,-25,25,93,136,101,80,73,-51,-413,-760,-1198,-715,102,555,683,512,376,114,-20,8,47,-5,3,-9,-1,4,-39,-107,-150,-202,-264,-246,-205,-189,-169,-151,-95,-15,-33,-33,-42,-46,-18,36,5,-39,-148,-103,-62,-51,-113,-227,-249,-182,-60,-34,-167,-127,149,349,160,205,251,106,64,173,268,91
2018-05-17,17:39:48.774,-396,-778,170,427,800,695,503,141,-42,-46,-18,-36,-93,-171,-184,-207,-227,-212,-212,-267,-311,-264,-252,-302,-370,-422,-386,-341,-314,-280,-240,-148,-145,-108,-118,-135,-130,-137,-120,-155,-150,-172,-207,-199,-157,-92,-12,98,210,268,368,449,455,460,442,412,175,-126,-603,-892,-67,587,1019,861,647,299,72,-99,-162,-197,-231,-349,-481,-528,-528,-562,-561,-442,-421,-491,-324,-70,-335,-526,-453,-419,-295,-68,39,84,151,232,276,512,589,393,370,332,205,170,7,-111,-6,125,139,-53,40,177,256,313,345,264,228,176,85,-120,-469,-1270,-1193,-166,737,808,363,144,-105,-267,-293,-294
2018-05-17,17:39:49.812,-259,-303,-322,-377,-451,-504,-546,-576,-574,-595,-576,-513,-415,-323,-221,-91,64,205,329,425,507,562,549,520,475,433,375,364,333,217,124,8,-83,-114,-127,-150,-46,4,73,129,197,158,140,125,160,52,-52,-304,-1153,-1009,-99,553,844,548,475,155,-165,-122,-121,-65,48,116,135,-19,-135,-188,-165,-143,-315,-312,-215,-263,-326,-247,-113,-76,-78,-7,63,81,46,84,135,225,207,116,3,-160,-246,-313,-427,-472,-439,-362,-373,-322,-294,-245,-159,-128,-141,-96,-99,-70,-130,-299,-490,-977,-627,210,692,806,624,487,273,211,161,131,140,60,43,38,-8,-88,-100,-115,-163,-191
2018-05-17,17:39:50.849,-229,-176,-119,-100,-32,-21,23,1,-81,-135,-116,-85,-50,-23,49,98,126,88,49,16,-40,144,386,240,-54,76,306,487,578,695,825,824,698,578,588,337,-129,-641,-5,727,1023,874,718,482,246,174,125,127,160,145,84,53,13,-71,-154,-274,-441,-518,-516,-501,-495,-430,-312,-221,-175,-103,-62,-14,52,81,85,172,241,230,212,224,224,143,76,65,70,69,120,167,242,302,373,415,437,418,385,290,160,-152,-573,-1205,-814,-1,690,847,620,311,-42,-249,-327,-388,-401,-393,-404,-397,-378,-303,-482,-601,-553,-458,-344,-334,-412,-398,-293,-254,-244,-53,140,359,537,443
2018-05-17,17:39:51.886,428,431,524,637,267,3,-51,-116,-101,-69,-94,-173,-154,-93,71,177,169,85,134,141,240,265,125,-237,-772,-1478,-771,58,315,182,-9,-80,-219,-337,-374,-376,-363,-383,-408,-374,-344,-354,-386,-378,-404,-362,-318,-267,-145,-52,31,77,172,237,250,313,372,371,359,291,289,241,187,118,75,-32,-119,-139,-151,-212,-168,-226,-280,-251,-184,-114,-52,14,-35,43,211,131,-246,-841,-1286,-424,346,780,799,532,30,-86,77,174,299,263,101,200,73,-123,-221,-121,-148,-397,-198,-261,-378,-256,-194,-205,-142,-35,22,39,80,198,211,180,117,-29,-201,-237,-271,-381,-388,-367,-375,-350
2018-05-17,17:39:52.923,-340,-314,-290,-254,-187,-89,-51,-51,-15,-1,-9,-151,-326,-832,-600,356,965,1151,895,618,366,252,197,167,161,153,91,0,-83,-109,-157,-229,-278,-325,-399,-366,-291,-253,-338,-348,-391,-318,-137,21,74,102,146,252,53,-35,171,320,61,-52,-81,-167,-50,-54,-80,139,289,470,576,527,458,342,41,37,-113,-367,-1020,-789,94,750,913,657,459,224,64,-85,-158,-82,-15,-105,-211,-324,-392,-350,-328,-410,-512,-501,-489,-458,-386,-316,-278,-259,-247,-229,-195,-150,-72,28,73,116,132,98,127,120,53,24,0,-10,25,30,53,166,241,262,294,363,415,347,267,201,-99,-499
2018-05-17,17:39:53.960,-1377,-884,12,900,1199,894,514,189,-29,-92,-54,-79,-113,-118,-130,-21,-96,-270,-418,-552,-444,-438,-442,-402,-455,-430,-174,-63,75,361,463,313,235,228,85,117,172,128,126,60,34,15,-83,-132,-65,-80,-8,89,167,197,287,340,318,303,155,-211,-596,-1099,-1105,-260,208,371,210,83,-110,-214,-300,-355,-394,-390,-391,-360,-348,-358,-390,-383,-330,-357,-339,-257,-210,-114,-76,-25,56,107,157,252,259,250,246,269,271,191,174,123,96,10,7,-48,-47,-97,-293,-413,-258,-168,-99,76,145,69,40,58,177,80,-323,-751,-670,147,754,1205,909,682,515,387,422,451,605,492
2018-05-17,17:39:54.997,279,225,93,89,344,280,229,131,35,59,71,90,98,105,152,263,321,237,320,510,518,387,269,140,109,142,18,-83,-80,-57,26,88,92,114,173,261,341,388,424,430,431,409,256,62,-411,-565,392,1116,1547,1199,753,418,337,325,315,267,189,113,68,44,-50,-105,-161,-252,-306,-351,-379,-357,-335,-297,-277,-357,-297,-190,-137,-93,47,393,325,190,30,156,80,-88,-371,-579,-487,-392,-290,-48,230,237,384,254,6,14,189,29,-271,-433,-990,-1196,-5,595,720,431,401,84,-243,-332,-150,-376,-617,-504,-448,-437,-483,-520,-563,-656,-733,-753,-666,-706,-633,-484,-361,-305
2018-05-17,17:39:56.035,-245,-222,-161,-80,-82,-100,-73,-71,-109,-192,-203,-212,-216,-183,-177,-169,-90,24,105,194,266,261,252,247,226,200,72,-231,-519,-1006,-673,185,649,666,486,359,209,17,-237,-497,-370,-333,-571,-478,-224,-438,-620,-330,-315,-469,-586,-676,-501,-447,-409,-221,24,-32,66,141,260,478,460,475,426,476,496,306,-12,-93,11,148,-22,-139,-2,-11,97,313,211,99,133,180,120,-1,-170,-653,-917,81,1027,232,-673,-488,-371,-486,-483,-403,-399,-451,-491,-492,-453,-404,-417,-386,-360,-316,-339,-277,-176,-119,-42,55,121,180,288,363,410,430,430,453,415,360,360,270,199,131,49,-30
2018-05-17,17:39:57.072,-67,-73,-86,-71,64,100,129,71,-28,-158,-208,-269,-380,-677,-1001,-1211,-296,353,439,413,415,493,19,-247,95,36,-95,-90,8,79,47,135,216,140,66,-162,-480,-428,-210,-77,-149,-75,-45,-22,49,163,268,326,265,226,222,233,198,148,77,35,-34,-202,-289,-223,-188,-75,23,88,140,130,82,57,31,-40,-301,-662,-1036,-1156,-124,543,1163,1065,871,469,222,158,159,110,158,158,102,96,58,-12,-61,-112,-181,-261,-283,-260,-207,-188,-141,-43,-8,51,105,159,176,109,55,54,71,61,100,-2,-169,-187,-229,-52,251,183,26,159,333,-44,52,290,316,294,252,178
2018-05-17,17:39:58.109,-181,-1115,-529,306,843,872,569,223,55,-21,-23,-35,-59,-86,-104,-99,-157,-185,-226,-199,-194,-223,-307,-424,-447,-353,-284,-288,-200,-113,-93,-103,-69,-47,-37,-62,-70,-98,-160,-200,-277,-233,-191,-136,-61,76,175,273,381,418,395,413,412,327,16,-271,-605,-518,330,793,869,672,519,252,95,-19,-29,-79,-115,-90,-217,-408,-491,-481,-481,-522,-504,-453,-377,-282,-239,-63,-50,-312,-210,211,299,167,179,137,235,200,302,390,366,297,19,-129,-100,-153,-125,11,135,198,212,226,221,190,139,106,-81,-364,-937,-844,6,577,705,404,195,-20,-149,-243,-261,-224,-241,-256,-283,-388
2018-05-17,17:39:59.146,-456,-530,-652,-701,-700,-659,-669,-603,-501,-397,-239,-114,37,202,321,399,466,500,502,490,475,444,355,269,158,132,85,112,81,135,225,250,244,316,315,236,183,120,-132,-498,-1064,-1448,-529,207,519,243,33,-125,-141,-59,-72,-221,-385,-321,-4,74,-148,-522,-566,-418,-392,-347,-230,-66,55,-141,-232,-83,55,249,377,271,234,295,455,331,346,21,19,114,6,-53,-87,-41,24,121,223,319,352,226,120,87,19,-44,-138,-450,-848,-1326,-1115,-81,274,446,221,153,-42,-144,-155,-109,-50,-42,-1,50,38,57,20,5,-4,-54,-91,-104,-76,-27,9,62,87,127,159,185
2018-05-17,17:40:00.183,217,218,207,170,140,108,7,-188,-283,-340,-338,-308,-239,-197,-40,12,-3,18,20,146,258,204,187,141,-113,-445,-1122,-452,447,1104,1218,1048,676,45,-53,91,265,-34,11,41,-133,-299,-314,-329,-322,-297,-316,-319,-231,-190,-127,-19,9,-45,-102,-219,-218,-177,-189,-275,-281,-246,-281,-338,-404,-443,-433,-385,-329,-214,-99,-13,59,157,258,328,344,351,285,21,-302,-691,108,816,1175,1026,787,537,331,220,181,142,105,46,-31,-72,-125,-198,-270,-399,-426,-432,-487,-597,-576,-507,-431,-391,-328,-166,-75,69,188,84,72,-12,37,175,65,-137,-226,-126,54,211,355,649,739,322
2018-05-17,17:40:01.220,400,324,247,180,137,44,-255,-975,-881,-31,644,991,797,602,331,104,25,12,-1,-73,-198,-339,-442,-431,-480,-611,-658,-624,-618,-589,-499,-436,-369,-363,-380,-369,-310,-237,-123,0,43,89,126,155,151,147,123,124,150,164,190,247,309,375,428,447,492,482,453,410,282,24,-231,-760,-738,116,766,964,649,395,7,-237,-258,-305,-393,-393,-380,-393,-334,-532,-493,-465,-473,-542,-526,-532,-553,-334,-193,-38,62,47,122,202,346,347,264,216,261,96,-85,-36,-185,-297,-239,-141,-163,-113,-29,40,98,153,153,197,215,140,-70,-477,-1029,-1347,-518,-35,183,66,-142,-311,-372,-397
2018-05-17,17:40:02.258,-420,-387,-381,-329,-293,-227,-215,-175,-134,-103,-88,-64,3,80,136,244,373,430,465,509,578,613,625,654,613,581,542,505,433,335,297,252,208,231,235,286,366,339,285,278,259,256,252,248,74,-208,-603,-469,265,654,1140,997,557,340,220,130,270,383,470,526,454,332,358,145,-55,-50,-123,-133,-111,-32,126,49,-4,142,116,162,468,502,174,100,340,454,261,136,58,-160,-308,-398,-372,-355,-328,-203,-98,-28,38,45,2,-6,16,7,-244,-561,-1024,-1081,0,786,1309,1109,780,401,159,138,160,145,93,27,-46,-69,-98,-157,-253,-332,-391,-400,-411,-374,-308,-241
2018-05-17,17:40:03.295,-197,-183,-132,-54,-35,6,39,63,126,115,35,176,289,-50,-375,-386,-172,18,16,0,-6,-134,-47,125,195,162,229,99,-249,-1070,-1102,-153,547,605,360,260,62,-123,-206,-238,-226,-186,-193,-300,-337,-240,-348,-487,-531,-567,-701,-720,-664,-608,-525,-433,-364,-327,-310,-260,-193,-183,-187,-213,-239,-257,-274,-319,-296,-221,-157,-132,-18,64,195,284,360,387,379,370,353,125,-144,-490,-817,-65,587,833,697,451,238,57,-21,-58,-126,-189,-252,-302,-377,-550,-685,-693,-768,-741,-715,-595,-556,-500,-471,-408,-246,89,160,65,204,412,246,114,187,136,164,208,41,77,101,-70,-226,-64
2018-05-17,17:40:04.332,52,74,284,267,61,82,203,164,-164,-492,-944,-919,105,403,530,584,443,30,-161,-248,-348,-456,-506,-567,-574,-625,-626,-627,-683,-696,-713,-738,-748,-705,-619,-534,-446,-340,-202,-90,49,174,264,307,385,372,376,339,257,211,137,142,200,205,280,357,386,413,473,461,407,352,346,140,-189,-736,-1357,-485,400,951,645,313,74,-85,-95,-101,-87,-38,66,63,-168,-85,5,183,59,-255,-215,42,105,142,330,518,659,611,808,978,954,1022,1036,921,921,871,648,875,661,289,223,488,736,491,568,516,285,473,615,494,459,430,236,-166,-660,-1169,-378,397,689,485,256,97
2018-05-17,17:40:05.369,-64,-122,-127,-161,-219,-244,-239,-200,-260,-267,-265,-259,-318,-328,-291,-230,-137,-103,-31,75,151,175,229,264,214,219,196,149,60,56,-22,-166,-231,-239,-320,-325,-306,-248,-195,-148,-109,-131,-164,-280,-390,-470,-646,-902,-1212,-1405,-261,397,212,82,-3,29,-81,-271,77,-58,-475,-450,-286,-138,-44,-60,-147,-216,-219,-247,-221,-335,-430,-350,-168,-146,-191,-116,15,-35,-112,-95,-89,-92,-83,-81,-176,-200,-209,-310,-360,-432,-537,-531,-490,-418,-329,-282,-238,-219,-168,-183,-447,-752,-1116,-958,23,489,702,536,397,223,103,39,58,72,26,3,-36,-70,-85,-131,-214,-247,-340,-375,-322,-294
2018-05-17,17:40:06.406,-243,-214,-178,-109,-60,-12,80,108,122,84,45,-2,-46,-41,-130,-301,-401,-411,-357,-310,-223,-119,53,182,179,149,21,106,270,199,-277,-566,-1140,-528,461,1172,1145,882,555,230,190,118,-22,-143,-183,-214,-223,-214,-219,-268,-371,-335,-387,-423,-348,-305,-221,-155,-57,51,138,214,287,238,119,-11,-145,-225,-272,-295,-304,-315,-319,-253,-220,-170,-118,-6,129,187,234,275,298,304,202,6,-274,-833,-329,510,991,1013,818,633,409,311,261,214,185,154,90,60,1,-72,-91,-183,-237,-260,-299,-296,-223,-206,-144,-104,-129,-224,-233,-193,-197,-219,-235,-212,-172,-198,-158,-126,-170,-204
2018-05-17,17:40:07.444,-107,-130,95,232,348,223,143,223,285,366,374,256,22,-552,-367,532,985,936,691,442,211,64,73,84,53,15,4,-6,-81,-161,-143,-175,-239,-278,-316,-364,-430,-441,-425,-433,-392,-291,-243,-187,-142,-151,-126,-105,-129,-132,-210,-259,-248,-182,-79,-74,5,147,262,351,418,441,432,423,421,273,-5,-396,-819,11,807,1359,1214,871,521,261,156,121,48,-25,-125,-199,-277,-368,-444,-517,-668,-773,-786,-768,-757,-668,-548,-419,-290,-162,-29,112,167,279,375,176,266,290,121,22,-165,-128,-100,-10,139,257,365,328,363,426,396,421,443,356,189,7,-372,-1193,-626,251,1093,1114
2018-05-17,17:40:08.481,796,466,174,48,59,36,-20,-44,-85,-187,-315,-402,-504,-625,-694,-682,-624,-518,-426,-360,-271,-205,-175,-117,-55,12,47,63,83,68,93,101,88,60,2,-24,-25,47,79,158,212,324,372,389,380,358,390,325,79,-177,-534,-871,45,635,866,672,451,187,-36,-91,-147,-281,-338,-380,-444,-459,-473,-495,-519,-541,-528,-531,-383,-180,-357,-246,-21,-193,-107,32,208,302,223,339,352,290,328,359,240,120,67,63,81,101,125,197,258,295,305,305,329,269,260,123,-171,-487,-1000,-418,316,835,789,465,125,-112,-237,-282,-292,-294,-306,-314,-342,-393,-428,-457,-493,-515,-497,-473
2018-05-17,17:40:09.518,-423,-322,-255,-166,-71,40,152,237,317,360,371,373,345,298,244,184,86,21,-22,-22,8,42,106,142,204,215,208,158,125,81,21,-300,-671,-1156,-757,202,642,569,225,42,-50,-100,-113,-113,-130,-134,-145,-154,-190,-231,-303,-377,-413,-473,-485,-451,-374,-293,-235,-140,-42,73,198,279,306,314,329,295,237,206,185,146,88,47,18,38,59,96,161,237,330,359,380,382,345,302,253,13,-325,-1035,-964,-10,840,1099,750,419,149,17,-29,-55,-91,-130,-181,-210,-251,-304,-357,-394,-424,-435,-437,-397,-319,-247,-178,-86,0,87,147,196,250,273,274,232,169,115,100,52
2018-05-17,17:40:10.555,-39,-13,-22,-9,0,29,86,142,193,219,223,210,173,159,17,-232,-566,-954,-245,407,779,660,449,194,-10,-92,-128,-146,-156,-196,-228,-263,-302,-362,-388,-413,-444,-437,-412,-373,-301,-244,-190,-130,-74,-13,30,63,107,96,75,61,30,11,-32,-86,-126,-154,-141,-119,-109,-58,-8,60,93,109,111,93,86,31,-197,-447,-864,-522,275,778,857,603,347,159,80,45,23,-14,-53,-103,-142,-173,-206,-253,-297,-322,-338,-342,-288,-232,-167,-102,-47,22,95,185,245,254,261,252,230,194,172,126,43,-29,-31,-40,-26,-13,18,97,185,216,227,247,224,216,177,-10,-291,-676
2018-05-17,17:40:11.592,-1126,-229,536,976,644,254,45,-18,-76,-117,-145,-168,-186,-237,-277,-318,-375,-431,-476,-505,-524,-499,-457,-416,-360,-317,-245,-139,-58,24,83,128,125,128,144,187,172,142,112,41,12,25,34,32,61,154,249,320,327,318,309,326,252,135,-150,-702,-1352,-541,457,1234,949,539,226,43,-9,-59,-88,-115,-151,-176,-208,-266,-319,-384,-423,-461,-474,-446,-354,-284,-218,-149,-88,-12,64,128,175,194,182,173,138,122,103,94,61,3,-18,-17,-17,-10,49,122,193,215,245,243,210,189,151,-34,-309,-801,-1096,-230,498,791,615,397,149,-1,-64,-83,-118,-137,-168,-198,-228,-262
2018-05-17,17:40:12.629,-329,-357,-382,-403,-385,-338,-275,-188,-132,-82,-18,40,95,136,150,158,139,112,91,86,54,3,-39,-37,-44,-53,-48,-3,84,141,188,229,239,223,212,208,101,-149,-438,-850,-330,398,737,685,473,285,132,55,28,18,-13,-44,-65,-128,-169,-211,-255,-294,-328,-335,-319,-275,-218,-147,-86,-26,29,103,147,166,181,168,146,123,91,67,42,-10,-89,-108,-93,-64,-35,2,75,141,201,230,234,223,218,191,34,-268,-631,-938,-118,607,918,613,312,119,56,16,1,-20,-31,-72,-123,-157,-193,-231,-270,-324,-367,-368,-344,-285,-213,-131,-57,25,107,200,272,323,339,349
2018-05-17,17:40:13.667,330,314,294,297,284,245,157,114,146,174,203,243,323,388,471,484,483,454,419,394,287,-43,-484,-1066,-336,654,1278,965,495,230,119,30,11,-24,-67,-96,-148,-192,-246,-311,-381,-449,-500,-511,-497,-444,-378,-335,-282,-189,-104,-14,46,92,107,104,86,93,81,82,77,54,8,-36,-67,-64,-68,-47,4,59,122,170,199,213,203,172,134,7,-288,-694,-1237,-509,339,774,637,425,185,-21,-91,-130,-148,-175,-225,-274,-301,-320,-383,-439,-481,-510,-507,-495,-414,-310,-247,-187,-134,-81,-13,34,59,61,45,42,9,-7,-8,-16,-44,-95,-142,-157,-154,-139,-87,-3,76,122
2018-05-17,17:40:14.704,131,144,135,122,101,10,-202,-482,-950,-519,213,575,581,405,192,3,-66,-91,-108,-136,-166,-195,-231,-258,-275,-312,-372,-408,-409,-391,-347,-276,-186,-145,-99,-27,21,66,114,116,103,103,95,61,34,27,16,-46,-101,-99,-80,-67,-49,11,91,145,178,196,200,181,159,109,-132,-419,-827,-679,201,632,674,393,184,43,-13,-41,-82,-114,-140,-165,-204,-255,-307,-348,-403,-458,-469,-466,-439,-370,-279,-207,-133,-59,21,72,133,158,154,152,141,114,90,75,75,32,-28,-57,-45,-27,-13,34,127,189,246,274,298,279,265,238,114,-208,-631,-1169,-422,577,1088,718,322,107
2018-05-17,17:40:15.741,9,-51,-75,-102,-140,-185,-226,-268,-311,-380,-451,-531,-578,-588,-559,-497,-406,-333,-265,-181,-74,38,111,172,182,162,158,172,179,175,171,186,162,68,30,39,15,27,77,154,210,274,313,306,296,240,245,172,-80,-486,-1241,-821,229,1034,998,617,306,105,15,-36,-53,-75,-131,-166,-228,-278,-327,-384,-447,-489,-515,-490,-437,-357,-253,-175,-120,-64,31,125,160,190,179,171,158,149,126,120,138,114,64,33,8,-2,2,41,101,174,212,237,256,258,235,196,156,-20,-225,-747,-864,-8,638,778,620,410,129,-20,-69,-84,-116,-136,-151,-170,-229,-280,-315,-365,-402,-418
2018-05-17,17:40:16.778,-388,-348,-298,-205,-139,5,82,145,201,205,182,131,40,-8,-44,-55,-49,-91,-129,-143,-141,-130,-124,-105,-50,38,105,141,159,152,162,157,133,2,-188,-523,-798,-109,466,783,690,465,205,62,9,-9,-34,-70,-118,-151,-190,-250,-328,-375,-436,-472,-462,-445,-384,-309,-230,-150,-48,52,144,192,230,251,242,227,216,191,165,147,116,36,-17,-15,-34,-3,32,78,148,225,243,239,235,208,183,117,-151,-511,-921,-681,290,855,839,427,123,-10,-41,-48,-99,-131,-180,-236,-283,-339,-384,-449,-525,-607,-648,-633,-576,-525,-436,-359,-282,-179,-42,54,118,141,140,155,151,152
2018-05-17,17:40:17.815,166,165,180,175,142,91,51,43,46,54,95,191,261,321,358,359,355,344,337,232,-8,-412,-1140,-620,358,1166,1049,681,355,132,40,20,-6,-57,-114,-159,-208,-247,-295,-365,-419,-468,-494,-469,-388,-316,-254,-180,-99,3,94,143,185,215,189,179,153,123,124,118,120,133,91,24,-7,-21,-31,-28,15,71,150,209,218,199,180,166,147,51,-229,-482,-880,-357,335,645,541,325,132,-12,-63,-85,-108,-147,-165,-181,-216,-268,-304,-340,-396,-420,-443,-420,-365,-293,-213,-154,-87,-20,42,96,142,154,147,135,110,84,73,64,43,9,-22,-63,-68,-72,-61,-26,36,87
2018-05-17,17:40:27.032,224,47,-28,-68,-101,-139,-179,-223,-253,-303,-373,-442,-510,-576,-603,-592,-541,-450,-362,-258,-149,-14,97,180,254,269,247,237,216,192,182,143,123,112,114,118,100,32,-36,-24,-30,-56,-54,12,89,145,164,184,185,158,117,71,-115,-355,-697,-765,32,402,454,268,97,-77,-173,-217,-247,-266,-303,-338,-371,-407,-457,-524,-577,-618,-637,-626,-577,-508,-435,-359,-267,-170,-70,0,34,59,82,78,58,41,28,13,15,30,27,32,23,-21,-74,-76,-65,-61,-13,68,145,212,238,263,280,287,299,251,44,-186,-543,-252,670,1054,956,636,400,269,217,198,195,185,166,149
2018-05-17,17:40:27.507,126,87,55,6,-66,-114,-119,-96,-26,52,139,262,413,576,696,776,823,837,811,752,683,648,654,652,652,644,637,649,648,570,466,414,400,379,371,433,526,596,630,632,602,552,507,460,314,29,-404,-765,193,921,1161,734,399,163,27,-28,-76,-131,-170,-227,-301,-369,-436,-516,-609,-678,-729,-727,-688,-636,-569,-470,-353,-205,-47,67,135,173,163,128,84,54,50,15,-10,-42,-42,-83,-99,-101,-158,-247,-299,-317,-354,-367,-309,-223,-163,-135,-122,-138,-165,-172,-223,-364,-622,-971,-1330,-536,92,287,72,-135,-345,-466,-507,-510,-542,-582,-606,-638,-670,-704,-770,-833,-865,-888
2018-05-17,17:40:28.545,-878,-833,-756,-649,-562,-442,-303,-190,-75,22,49,40,52,36,21,30,20,23,24,20,24,20,-3,-67,-86,-88,-120,-138,-47,39,98,128,145,132,116,98,89,-33,-270,-542,-831,-181,361,514,410,254,58,-79,-134,-146,-159,-186,-208,-235,-271,-308,-359,-417,-471,-512,-510,-474,-423,-351,-276,-190,-66,82,183,230,283,289,268,239,212,198,173,141,116,123,120,113,48,-55,-108,-110,-147,-158,-108,-12,63,83,98,98,86,63,38,-93,-371,-666,-1020,-191,525,751,433,134,-91,-172,-205,-237,-271,-294,-324,-348,-391,-450,-519,-617,-685,-695,-702,-686,-627,-547,-454,-338,-176,-16
2018-05-17,17:40:29.582,106,206,284,308,301,278,245,210,216,228,203,188,197,196,142,60,3,-3,-20,-55,-10,91,172,219,256,246,205,193,169,89,-162,-498,-1060,-521,483,1014,776,363,90,-33,-78,-111,-130,-166,-191,-213,-252,-333,-427,-492,-569,-629,-646,-616,-552,-456,-355,-224,-68,106,257,388,458,478,469,463,426,400,395,375,356,372,369,355,309,219,180,169,142,102,131,219,294,341,363,359,359,328,300,216,-10,-324,-826,-446,364,744,643,404,206,43,-26,-74,-104,-139,-165,-215,-260,-299,-339,-403,-471,-521,-530,-530,-477,-372,-255,-174,-59,88,177,247,281,294,288,282,245,219
2018-05-17,17:40:30.619,196,180,166,151,127,97,46,27,7,-16,-44,-6,74,166,190,199,209,192,165,151,91,-107,-345,-743,-430,320,569,521,378,224,39,-50,-91,-106,-127,-145,-176,-213,-248,-292,-352,-419,-470,-502,-491,-449,-368,-281,-172,-51,80,163,233,287,322,317,285,254,226,196,184,178,163,144,123,54,-26,-39,-40,-56,-39,27,128,198,213,240,243,232,197,133,-92,-354,-832,-703,284,808,767,411,151,-15,-77,-98,-126,-158,-183,-205,-257,-324,-372,-446,-543,-621,-645,-624,-574,-487,-398,-271,-111,46,198,310,397,434,428,422,381,331,299,271,251,231,223,214,188,93,42,44
2018-05-17,17:40:31.656,13,-22,25,122,221,277,295,304,284,263,222,143,-78,-428,-1021,-708,360,961,850,429,136,-27,-101,-123,-147,-185,-219,-255,-285,-346,-407,-484,-557,-642,-668,-664,-603,-491,-375,-232,-71,102,256,366,430,448,431,406,382,352,309,286,252,244,245,239,223,176,85,35,18,0,-46,-15,74,155,209,226,218,201,173,127,24,-224,-480,-901,-452,335,626,478,270,116,-20,-75,-120,-145,-175,-212,-235,-266,-303,-360,-418,-490,-526,-547,-547,-491,-399,-307,-202,-63,70,162,222,269,295,294,275,254,230,215,175,140,130,141,112,102,45,-18,-27,-43,-76,-76,-35,47,145,165
2018-05-17,17:40:32.693,169,159,148,136,115,-34,-313,-549,-790,-86,391,515,347,165,17,-80,-118,-136,-159,-185,-213,-254,-293,-338,-383,-441,-496,-558,-567,-537,-494,-421,-332,-202,-72,34,125,186,216,242,234,201,156,135,119,87,98,68,59,84,74,28,-69,-121,-146,-153,-130,-110,-32,14,34,68,88,88,81,64,-8,-270,-529,-979,-646,378,752,604,162,-64,-151,-224,-242,-223,-237,-261,-319,-337,-343,-344,-342,-272,-85,-279,-214,-299,-746,-480,-237,40,352,692,1039,1012,969,300,-16,156,301,45,-21,644,612,620,785,-421,-760,-20,-582,-88,222,-742,-427,457,392,-763,-378,-353,422,382,335,240
2018-05-17,17:40:33.730,155,113,-113,-457,-876,-1149,-290,339,684,331,55,-167,-363,-481,-567,-689,-824,-897,-1049,-1198,-1229,-1291,-1324,-1279,-1309,-1270,-1197,-1079,-956,-795,-641,-427,-238,-88,64,195,178,193,222,263,237,159,128,47,-36,-168,-233,-350,-536,-671,-740,-723,-664,-570,-471,-342,-122,113,220,393,574,756,958,1151,1198,1455,1449,1418,1941,2426,2852,2191,1559,1584,1671,1876,1677,1262,1083,791,608,570,449,375,215,-254,-406,-411,-334,-309,-267,-121,-83,39,183,216,205,223,204,217,218,174,118,75,101,58,-61,-75,-79,-198,-332,-359,-344,-341,-397,-287,-156,-35,92,174,307,338,324,302,287,-26,-446,-816
2018-05-17,17:40:34.768,-840,-321,-233,-317,-544,-684,-861,-1089,-1097,-974,-896,-815,-723,-666,-629,-514,-396,-285,-168,-3,211,447,820,1243,1546,2296,1839,1507,2009,2096,1638,1394,827,259,655,1043,1002,543,93,221,-184,-671,-679,-679,-703,-568,-489,-398,-350,-291,-36,53,90,135,31,-2,-47,-170,-389,-750,-1365,-1358,-443,115,218,-202,-490,-698,-740,-709,-667,-660,-687,-662,-691,-693,-740,-770,-805,-845,-831,-754,-708,-627,-505,-370,-219,-55,25,70,42,38,32,-29,-18,-51,-73,-145,-89,-40,-21,74,151,265,322,330,448,729,1271,1053,957,1664,2052,1486,846,794,738,646,766,624,140,-21,-687,-1293,-364,305,448,283
2018-05-17,17:40:35.805,-67,-519,-758,-937,-1005,-922,-836,-805,-756,-702,-679,-708,-715,-745,-793,-736,-705,-636,-472,-353,-266,-122,-39,9,-26,-30,-126,-242,-305,-293,-261,-257,-211,-195,-149,-124,-28,31,61,87,113,196,158,168,201,266,389,421,373,333,264,132,47,-129,-479,-609,-855,-330,-23,49,-15,-115,-156,-200,-136,-2,67,153,268,381,477,613,759,844,1194,1339,539,391,427,311,217,247,275,269,423,318,264,482,185,-106,-63,-297,-505,-444,-472,-526,-599,-417,-409,-423,-455,-470,-392,-376,-275,-172,-89,18,99,135,104,101,94,74,-132,-481,-897,-1288,-544,14,238,-52,-257,-433,-504,-524,-577,-555
2018-05-17,17:40:36.842,-559,-506,-448,-400,-424,-389,-440,-511,-480,-484,-476,-474,-384,-305,-240,-136,-113,-19,40,51,80,121,105,147,192,227,269,293,336,445,802,1477,1486,903,644,898,1449,1198,1156,1240,918,865,618,854,857,487,382,533,362,28,-300,-585,-1459,-966,-524,250,405,-116,-502,-709,-811,-790,-767,-770,-659,-624,-638,-611,-609,-674,-779,-817,-920,-872,-805,-676,-653,-550,-435,-315,-160,-97,29,142,145,146,151,132,190,175,290,352,402,463,481,472,437,278,196,133,99,-49,-60,2,-152,-254,-270,-373,-404,-290,-217,-188,-290,-327,-243,420,747,938,1480,1869,1236,1006,1169,1237,1466,2520,1827,1378
2018-05-17,17:40:37.879,787,204,445,446,508,241,35,-51,-315,-540,-504,-191,-175,-347,-415,-359,-322,-213,-131,-47,-6,-12,51,42,-10,-48,-90,-105,-69,-126,-216,-271,-296,-301,-353,-396,-381,-398,-447,-522,-583,-581,-606,-523,-594,-883,-1110,-1306,-473,113,322,78,-201,-389,-357,-354,-361,-426,-511,-473,-559,-649,-779,-858,-983,-1096,-1185,-1306,-1205,-1113,-954,-507,139,294,359,173,293,783,337,229,1127,1209,844,1097,1684,1724,1367,1023,354,-555,-424,310,637,-71,-129,462,-302,-675,-279,-144,-370,-669,-398,-176,-131,-108,-176,-403,-765,-1357,-705,146,836,714,271,-134,-372,-489,-563,-626,-689,-757,-892,-1001,-1103,-1153,-1191,-1221
2018-05-17,17:40:38.916,-1179,-1092,-917,-710,-573,-451,-289,-89,149,316,478,554,622,624,606,596,551,528,379,234,194,116,-41,-39,-92,-137,-113,-162,-73,-16,47,126,264,430,579,645,771,864,967,1092,1115,971,968,695,1171,1752,1743,1606,1203,882,692,450,289,238,85,-90,-194,-378,-462,-627,-823,-991,-1149,-1293,-1248,-1084,-934,-776,-567,-403,-229,-86,-58,-8,20,-14,-43,-105,-140,-202,-254,-243,-270,-350,-375,-421,-440,-438,-467,-459,-406,-374,-336,-238,-78,0,85,176,246,182,149,134,-66,-172,-521,-287,255,447,436,198,42,-146,-262,-343,-356,-382,-415,-372,-329,-324,-320,-289,-243,-143,230,223,230,759
2018-05-17,17:40:39.954,1207,723,511,588,1227,1850,1061,221,1154,1194,-1,138,723,207,-302,-1,102,-17,13,-301,-344,-259,-176,-267,-275,-247,-157,-48,20,142,199,217,225,224,181,-71,-382,-845,-283,582,1026,779,323,54,-139,-273,-382,-429,-446,-397,-401,-444,-203,-145,-97,-20,-129,-82,-100,-86,-63,35,129,291,431,481,529,531,466,402,330,291,211,155,160,143,176,221,289,381,416,360,400,586,808,685,857,775,818,1503,1576,703,1108,1543,1074,480,1547,2331,-2008,-2178,-207,-868,1566,1493,-417,466,-148,-352,-430,-330,-443,-715,-560,-584,-738,-767,-902,-1129,-1271,-1334,-1312,-1245,-1151,-1000,-834,-605,-409,-358
2018-05-17,17:40:40.991,-279,-241,-199,-219,-300,-384,-432,-474,-403,-387,-376,-303,-305,-286,-248,-218,-161,-117,-31,-39,27,116,139,80,104,47,14,-47,-96,-315,-596,-772,-834,-175,-4,33,-63,-147,-230,-271,-199,-145,-122,-66,7,70,200,301,377,756,382,342,786,1036,826,628,727,420,435,352,149,197,346,422,442,170,-298,-505,-583,-619,-566,-582,-455,-441,-552,-570,-467,-433,-403,-395,-338,-280,-254,-269,-227,-153,-233,-301,-335,-471,-803,-1088,-1434,-1073,-466,-151,-74,-290,-443,-548,-566,-496,-505,-411,-379,-326,-296,-284,-302,-342,-364,-431,-481,-537,-566,-530,-462,-319,-184,-132,-63,-18,-81,-49,22,-3,-5,-26
2018-05-17,17:40:42.028,62,138,150,213,339,401,444,562,692,863,1118,1407,1471,1404,1327,1456,1503,1632,1215,1048,973,750,216,-131,-161,10,551,909,967,222,-397,-307,-353,-375,-345,-421,-538,-533,-540,-626,-753,-823,-915,-1014,-1086,-1102,-1124,-1047,-943,-827,-579,-364,-250,-272,-264,-248,-269,-286,-311,-257,-187,-159,-185,-121,-151,-57,39,31,102,135,183,229,250,278,308,313,340,320,269,240,237,197,59,-225,-421,-654,-145,353,451,354,149,75,28,66,67,134,264,459,651,883,1164,1120,1107,1130,1428,1575,1122,737,654,674,624,514,455,422,387,235,146,162,-18,-238,-401,-642,-706,-546,-565,-608,-417,-289
2018-05-17,17:40:43.065,-346,-306,-223,-166,-178,-109,-29,19,94,121,68,60,5,-40,-101,-336,-589,-891,-948,-163,130,202,91,36,-28,-95,21,130,213,209,237,281,187,130,32,-24,-81,-146,-268,-332,-263,-329,-372,-193,-141,-141,-158,-196,-220,-226,-189,-122,-120,-73,-52,-4,105,254,378,558,762,864,1156,1609,1359,1466,1928,1774,1187,994,958,791,511,232,222,-69,-725,-955,-1289,-696,-77,252,-258,-791,-1081,-969,-956,-897,-891,-889,-879,-842,-827,-877,-928,-1094,-1209,-1241,-1238,-1217,-1187,-1103,-950,-746,-514,-470,-440,-378,-378,-364,-375,-388,-413,-347,-283,-246,-196,-128,-64,22,113,28,21,65,89,61,119,78
2018-05-17,17:40:44.102,133,186,230,256,219,196,125,43,-6,-246,-543,-733,-725,89,376,432,211,42,58,224,394,497,561,673,798,962,1130,1247,1239,1361,1573,1277,891,666,482,312,218,213,224,221,182,169,130,59,-78,-242,-388,-463,-565,-565,-509,-500,-506,-584,-568,-516,-479,-444,-408,-388,-317,-271,-210,-61,-37,-19,62,40,-11,-58,-182,-405,-685,-1054,-526,-3,164,115,-5,-42,-186,-179,-176,-142,-71,52,43,24,-38,-120,-118,-121,-218,-262,-328,-448,-555,-505,-468,-426,-362,-360,-380,-425,-338,-286,-263,-182,-104,-96,8,128,188,496,733,914,1075,1247,1491,1805,1788,1642,1716,1407,995,656,525,553
2018-05-17,17:40:45.139,526,427,255,111,-256,-543,-1244,-1063,-176,412,398,-139,-506,-703,-699,-670,-636,-649,-651,-709,-766,-755,-797,-937,-958,-956,-1075,-1133,-1115,-1056,-974,-797,-697,-579,-438,-325,-180,-96,-14,-28,-7,62,110,166,233,237,226,284,319,411,377,342,355,251,253,336,285,253,275,240,270,297,266,181,82,35,43,-210,-509,-589,-339,481,651,622,569,545,645,641,951,1313,1094,1193,1423,1475,1405,1287,995,639,360,64,-231,-311,-403,-402,-405,-400,-498,-515,-507,-614,-761,-767,-624,-664,-679,-684,-682,-733,-662,-549,-574,-530,-502,-567,-621,-597,-492,-407,-368,-367,-348,-264,-198,-161,-134,-173,-186,-201
2018-05-17,17:40:46.177,-255,-158,-320,-466,-698,-576,160,350,419,412,353,229,221,245,291,274,204,155,93,63,-61,-142,-237,-300,-389,-432,-472,-457,-427,-362,-312,-231,-139,-40,44,136,175,299,386,483,649,878,1215,1301,1249,1489,2099,2246,1708,1445,913,809,810,626,461,425,443,-37,-313,-545,-559,-634,-528,-653,-919,-1115,-1341,-1780,-2152,-1240,-298,132,-220,-595,-809,-903,-950,-944,-888,-823,-736,-677,-713,-624,-632,-736,-795,-897,-887,-860,-921,-871,-733,-515,-241,45,254,417,538,640,683,696,653,594,583,530,532,567,535,493,496,431,367,314,227,109,18,16,-26,-105,-144,-128,-50,56,193,265,310,374
2018-05-17,17:40:47.214,465,408,251,321,367,1012,1572,1783,1610,1530,1422,1323,1431,1116,646,366,136,-9,-45,-175,-372,-636,-896,-1078,-1186,-1389,-1471,-1520,-1549,-1379,-1143,-1013,-857,-658,-549,-535,-446,-341,-312,-265,-217,-197,-200,-243,-227,-148,-90,-158,-136,-191,-224,-254,-269,-237,-233,-220,-115,-33,60,241,304,385,471,518,593,500,355,202,-31,329,857,967,955,835,679,487,457,335,239,172,103,3,-62,-104,-175,-185,-200,-211,-202,-176,-94,85,235,441,803,1188,1594,1831,1966,2395,2426,2190,1753,1238,1192,1072,792,903,1062,573,248,508,-193,-758,-727,-676,-620,-614,-538,-477,-499,-641,-618,-422,-252,-261,-190,-305
2018-05-17,17:40:48.251,-320,-281,-561,-721,-1047,-803,131,644,644,161,-190,-305,-361,-355,-427,-474,-491,-525,-626,-665,-772,-905,-949,-962,-979,-925,-932,-827,-716,-541,-371,-287,-177,-119,-45,-14,28,20,12,-79,-142,-152,-233,-282,-285,-321,-351,-371,-392,-319,-266,-246,-215,-198,-174,-46,86,141,287,567,740,878,1203,1569,1677,1268,1027,771,178,-213,-460,22,773,652,-32,-45,-139,-507,-840,-886,-999,-1166,-1314,-1388,-1329,-1297,-1324,-1422,-1434,-1513,-1515,-1468,-1389,-1277,-1172,-954,-789,-617,-380,-259,-121,-50,-113,-135,-224,-289,-300,-326,-448,-455,-440,-341,-287,-281,-176,-3,-75,-93,77,162,165,68,122,229,304,283,276,316
2018-05-17,17:40:49.288,379,346,277,171,38,-148,-409,18,268,292,233,55,-47,-99,-145,-127,-75,-59,5,39,114,181,185,450,831,684,863,1118,1143,1075,1021,1062,1116,970,779,704,479,403,334,271,178,127,27,-84,-210,-269,-425,-510,-620,-590,-545,-501,-534,-536,-575,-472,-400,-402,-398,-297,-263,-102,7,56,54,92,104,5,-221,-486,-835,-1042,-92,451,522,135,-39,-180,-274,-230,-178,-108,-64,-79,-101,-110,-144,-258,-354,-341,-441,-478,-411,-366,-233,-124,-30,146,210,246,322,416,449,447,454,462,502,540,558,608,658,788,860,870,976,1053,1124,1025,1245,1430,1081,891,629,317,223,55,146,363
2018-05-17,17:40:50.325,343,200,99,-46,-132,-246,-466,-734,-1462,-1475,-507,5,164,-60,-342,-665,-841,-838,-836,-755,-732,-725,-684,-675,-726,-722,-687,-748,-765,-710,-731,-712,-591,-495,-302,-178,-123,-66,45,91,102,170,157,146,198,157,224,190,277,292,216,239,252,218,75,-7,77,51,7,33,68,116,161,157,110,87,47,23,-16,-193,-404,-567,-478,216,418,539,524,469,410,469,634,837,1221,1585,1524,1269,1284,1272,416,-39,-16,-210,-271,-68,-414,-787,-733,-528,-509,-580,-393,-338,-328,-425,-685,-590,-506,-608,-767,-821,-827,-801,-720,-610,-577,-526,-493,-506,-470,-425,-297,-286,-290,-302,-220,-197,-153,-52
2018-05-17,17:40:51.362,-91,-114,-107,-126,-145,-272,-568,-854,-1031,-45,609,809,569,305,190,159,153,193,192,142,71,132,35,-9,-73,-155,-236,-310,-399,-476,-447,-459,-415,-249,-62,139,294,407,505,606,704,761,896,1019,1267,1244,1475,1864,1698,1698,2019,1580,1300,1323,1358,1128,844,278,-46,-159,0,42,-149,-18,52,-145,-624,-668,-667,-910,-1111,-1442,-1801,-2270,-1375,-615,-304,-559,-699,-755,-847,-867,-780,-724,-683,-636,-602,-588,-602,-634,-706,-736,-732,-723,-716,-647,-531,-347,-245,-153,161,354,392,549,659,602,574,707,649,594,663,716,700,619,525,451,401,340,246,197,178,175,105,27,-10,-13,0,32
2018-05-17,17:40:52.400,80,71,56,169,340,316,-31,-118,165,1011,1255,1484,1891,1667,1614,1961,2095,1969,1478,964,862,614,453,24,-185,-97,-449,-705,-963,-1088,-1297,-1504,-1594,-1679,-1511,-1326,-1170,-941,-877,-726,-598,-532,-529,-487,-425,-430,-456,-476,-480,-399,-377,-410,-460,-457,-471,-513,-598,-647,-696,-642,-636,-568,-418,-287,-105,-47,10,73,169,220,224,23,-259,-414,-319,713,1009,1004,659,446,226,187,145,78,97,51,-34,-69,-189,-262,-337,-410,-461,-479,-497,-423,-294,-162,183,336,604,1150,1415,1267,1306,1536,2062,1885,1618,1654,1985,1961,1124,644,357,321,341,93,22,10,-99,-297,-542,-690,-871,-895,-928,-1047
2018-05-17,17:40:53.437,-1129,-971,-925,-877,-808,-730,-733,-675,-646,-662,-636,-775,-1014,-1483,-1414,-439,219,505,286,49,-202,-298,-384,-376,-445,-432,-395,-455,-453,-415,-484,-593,-513,-572,-471,-416,-358,-247,-39,76,220,364,461,455,505,516,476,455,416,413,387,311,258,199,154,285,348,79,242,611,275,354,484,-59,-61,575,604,624,1277,1808,1596,1440,2107,2952,2120,1637,1452,1415,913,465,-11,448,716,897,690,-23,-427,-773,-1047,-1217,-1296,-1363,-1497,-1527,-1579,-1688,-1705,-1697,-1676,-1671,-1647,-1542,-1470,-1302,-1144,-981,-794,-592,-408,-282,-143,-27,-20,-36,-83,-78,-170,-236,-261,-296,-280,-252,-255,-242,-133,-75,-3,-13
2018-05-17,17:40:54.474,-33,-10,43,105,189,170,246,302,371,496,547,506,476,449,423,370,143,-157,-372,-282,598,776,711,379,245,120,71,110,142,165,194,307,366,402,527,682,810,1404,1494,736,716,1167,1078,1108,556,86,146,163,369,429,144,-256,-427,-161,-165,-415,-599,-1057,-1236,-986,-1016,-948,-958,-1121,-1111,-1054,-965,-833,-858,-841,-771,-706,-673,-676,-605,-496,-400,-299,-230,-289,-320,-286,-272,-341,-391,-603,-973,-1311,-375,308,628,598,376,221,118,188,194,180,206,104,68,99,14,-26,-98,-206,-251,-316,-420,-377,-347,-325,-309,-288,-247,-164,-71,-18,38,116,182,232,292,360,497,604,807,1369
2018-05-17,17:40:55.511,1373,1249,1430,1603,1887,2176,2106,1783,1264,1192,1120,920,712,516,220,146,115,-197,-335,-225,-215,-408,-646,-952,-1313,-1858,-1520,-666,-195,-67,-235,-334,-509,-625,-599,-561,-527,-473,-458,-460,-454,-415,-395,-469,-555,-571,-569,-553,-511,-439,-369,-270,-169,-76,54,253,301,417,580,676,762,754,710,706,669,624,588,570,553,525,562,545,535,505,428,416,373,350,273,293,354,437,523,581,594,624,645,692,758,843,652,239,527,1143,1654,2048,1268,615,267,495,713,322,357,346,18,-813,-1048,-590,-629,-629,-1157,-1389,-1554,-1394,-1331,-1374,-1155,-877,-758,-766,-618,-463,-487,-465,-524,-595,-700,-734
2018-05-17,17:40:56.548,-717,-660,-574,-584,-487,-465,-491,-483,-410,-395,-422,-417,-512,-572,-594,-650,-594,-598,-536,-456,-297,-116,0,30,1,37,106,42,-118,-403,-646,-1064,-215,451,832,701,377,169,18,-58,-78,-100,-112,-115,-158,-192,-216,-196,-165,-207,-170,-155,-125,-55,196,264,242,723,919,867,1184,1226,1336,1510,1493,1392,1325,1168,1077,1453,1088,180,144,-116,-185,-117,-257,-330,-570,-673,-685,-615,-639,-721,-847,-827,-807,-815,-808,-779,-764,-805,-780,-808,-924,-1131,-1430,-1562,-633,-22,242,142,12,-284,-420,-500,-476,-476,-546,-588,-560,-571,-559,-574,-649,-739,-788,-813,-778,-628,-581,-388,-117,76,254,341,404,425
2018-05-17,17:40:57.585,500,504,437,404,399,357,278,244,191,170,119,126,123,150,226,181,165,248,352,437,565,685,798,847,953,1104,1218,1358,1927,1850,1064,983,779,508,100,599,1041,1346,834,127,-166,-331,-622,-629,-651,-799,-870,-957,-1057,-1111,-1190,-1315,-1531,-1769,-1928,-2044,-1966,-1835,-1729,-1468,-1169,-870,-563,-403,-239,-62,31,56,118,55,-71,-69,-115,-171,-192,-166,-80,-51,-17,46,73,6,-43,-2,7,68,163,224,252,317,393,456,503,477,439,406,339,234,-19,-270,-628,-138,698,851,746,426,271,289,317,374,471,606,765,889,1036,1120,1265,1506,1212,978,974,1080,975,748,460,456,503,515
2018-05-17,17:40:58.623,482,438,414,470,83,-219,-172,-254,-414,-665,-931,-850,-784,-1068,-1044,-980,-913,-929,-906,-939,-754,-536,-587,-597,-473,-356,-340,-332,-235,-44,-15,-81,-198,-209,-206,-396,-676,-861,-1099,-549,108,399,522,447,369,226,172,186,206,230,155,134,58,-19,-154,-224,-323,-449,-538,-699,-876,-968,-1004,-1047,-995,-845,-718,-620,-462,-332,-180,-32,167,295,464,600,722,961,1185,1608,1249,1363,1456,1447,1516,1275,1062,927,784,853,1052,818,741,1325,1334,728,-136,-904,-1408,-755,-104,-463,-1011,-1532,-1923,-1142,-207,411,272,-205,-497,-563,-564,-524,-505,-547,-451,-418,-490,-600,-617,-697,-873,-957,-1069,-1132,-1033,-945
2018-05-17,17:40:59.660,-847,-637,-442,-104,199,366,479,591,669,569,517,518,500,468,427,450,417,318,366,259,241,161,83,59,22,-12,-97,-142,-294,-362,-339,-281,-178,-116,-8,172,454,667,791,1105,1464,1529,1960,1621,979,788,771,1258,2434,2058,1364,834,451,255,323,533,190,-398,-430,-251,-361,-781,-793,-776,-1112,-1571,-1709,-1470,-1365,-1448,-1454,-1323,-1079,-812,-588,-529,-397,-288,-182,-128,-144,-134,-183,-217,-228,-239,-236,-309,-353,-401,-363,-289,-300,-219,-43,20,48,36,-41,-9,76,19,37,140,259,232,276,279,174,98,66,60,-78,-296,-462,-747,-350,54,126,177,76,9,-17,-13,89,378,1725,1546
2018-05-17,17:41:00.697,369,655,2311,1844,705,1195,987,679,180,280,1014,1660,118,-1541,-440,520,855,1465,1191,-244,-1551,-1545,184,127,-647,-373,-148,-403,-565,-558,-483,-446,-437,-433,-414,-339,-338,-388,-476,-497,-415,-412,-488,-421,-470,-405,-315,-333,-243,-2,98,91,44,-77,-283,-578,-80,780,1058,1003,718,535,382,276,184,63,-27,-31,-131,-159,-168,-195,-230,-283,-318,-381,-352,-266,-263,-154,21,148,391,627,1167,1406,1537,1535,1549,1463,1919,2067,785,220,293,604,963,1556,-227,-860,606,547,93,-1519,-941,90,222,-655,-1043,-706,-1288,-784,-638,-670,-693,-620,-454,-472,-625,-708,-693,-788,-1047,-1442,-1816,-843,-177,190
2018-05-17,17:41:01.734,-67,-363,-575,-738,-756,-661,-621,-636,-475,-356,-255,-215,-168,-226,-231,-312,-294,-300,-319,-250,-166,-117,-121,-64,-44,32,79,-58,-107,-188,-205,-223,-232,-218,-161,-144,-58,94,378,516,1066,1026,804,1135,1191,891,854,1914,1779,1417,2711,2741,-2407,-2202,-1017,424,728,11,206,297,-81,-480,-784,-1252,-780,-209,147,157,-60,-322,-571,-743,-861,-902,-949,-988,-997,-986,-979,-970,-961,-927,-900,-879,-835,-776,-703,-582,-495,-390,-271,-185,-205,-218,-155,-119,-186,-155,-145,-133,-132,-152,-160,-58,40,83,115,210,241,211,198,126,24,18,16,-50,-17,16,84,122,238,309,298,301,301,266,278,97
2018-05-17,17:41:02.771,-235,-453,-777,97,685,834,611,307,55,-64,-100,-128,-142,-144,-138,-178,-207,-235,-261,-310,-391,-462,-524,-554,-560,-528,-459,-332,-170,-11,171,312,394,406,418,419,410,353,281,245,207,169,158,166,126,109,143,159,164,170,178,166,98,20,-37,-23,31,93,140,181,318,454,525,568,576,556,538,502,333,77,-445,-664,498,1169,1442,988,565,261,102,23,0,-38,-87,-131,-169,-191,-234,-294,-363,-472,-562,-613,-623,-601,-544,-434,-268,-80,111,262,390,459,498,518,518,485,445,396,355,301,272,246,200,176,140,92,80,81,73,77,104,33,-36,-48,-25,-40,-82,-64
2018-05-17,17:41:03.809,-51,9,66,38,3,6,-14,-30,-78,-319,-551,-900,-598,141,361,333,143,-37,-218,-296,-325,-354,-375,-379,-385,-400,-416,-454,-493,-540,-614,-678,-701,-687,-659,-572,-478,-370,-228,-93,-8,49,97,134,142,98,65,46,21,-16,-53,-67,-66,-79,-98,-94,-81,-88,-76,-56,-42,-43,-103,-150,-147,-122,-103,-127,-117,-67,-27,62,78,69,81,73,71,57,-119,-360,-669,-740,168,587,753,521,264,55,-29,-65,-81,-98,-119,-139,-158,-181,-230,-277,-328,-396,-474,-524,-543,-535,-493,-420,-333,-172,0,142,245,299,346,363,347,328,318,286,271,242,204,177,162,159,151,166,194,179
2018-05-17,17:41:04.846,185,190,188,132,51,-4,30,71,48,69,129,201,306,330,330,323,304,285,234,28,-285,-616,-795,238,796,940,540,219,26,-58,-88,-88,-105,-154,-188,-220,-265,-289,-344,-429,-521,-623,-683,-714,-708,-641,-564,-436,-270,-107,74,202,299,373,401,396,381,326,272,235,206,192,171,145,131,136,145,135,113,114,125,115,98,104,79,0,-80,-98,-59,-34,-70,-24,21,110,165,176,167,159,151,145,67,-156,-468,-1051,-633,331,845,840,521,236,71,-11,-75,-95,-113,-118,-153,-210,-239,-288,-316,-402,-466,-528,-559,-565,-529,-457,-362,-238,-69,62,161,247,303,349,366,351
2018-05-17,17:41:05.883,331,314,242,226,200,171,138,105,92,91,98,106,110,121,104,101,76,1,-56,-52,-41,-59,-99,-35,9,61,114,134,140,135,131,123,40,-182,-408,-817,-433,280,553,554,387,199,9,-69,-98,-111,-147,-154,-178,-231,-239,-256,-300,-352,-409,-482,-517,-511,-470,-394,-295,-177,-52,77,179,261,310,339,351,334,304,283,272,246,208,173,147,114,103,98,104,119,103,97,110,120,90,3,-58,-80,-56,-52,-81,-24,-4,70,152,156,144,142,133,121,71,-210,-465,-910,-405,544,927,790,374,65,-79,-132,-144,-158,-178,-187,-221,-282,-309,-340,-400,-473,-554,-622,-673,-688
2018-05-17,17:41:06.920,-642,-561,-479,-338,-149,30,180,317,396,441,471,470,430,394,361,328,290,263,231,232,227,209,203,198,169,169,174,184,171,146,130,113,69,-8,-75,-96,-54,-56,-95,-46,2,93,128,117,118,112,90,67,-43,-306,-592,-1184,-486,406,904,761,379,62,-97,-176,-191,-200,-223,-255,-280,-309,-345,-393,-434,-510,-603,-683,-721,-722,-691,-604,-493,-349,-181,-21,130,250,333,380,405,409,389,332,303,269,237,202,161,164,161,148,151,114,113,131,145,124,112,109,96,49,-18,-46,-23,-18,-50,-56,13,46,131,162,155,149,126,115,85,-62,-295,-564,-935,-127,443,679
2018-05-17,17:41:07.957,542,340,114,-5,-89,-123,-132,-149,-183,-211,-235,-256,-299,-365,-428,-491,-538,-545,-533,-482,-418,-331,-228,-97,30,122,184,237,268,261,257,240,214,171,138,110,76,51,24,19,29,37,29,26,33,32,30,25,-20,-75,-125,-102,-76,-130,-117,-69,-16,50,69,66,55,36,27,-18,-220,-464,-743,-803,159,659,776,452,139,-99,-177,-217,-239,-236,-270,-310,-328,-361,-409,-447,-496,-577,-650,-707,-736,-710,-658,-565,-451,-284,-97,83,206,300,365,401,429,438,391,357,318,281,257,233,216,217,201,200,205,200,198,198,196,190,191,191,184,119,30,-36,-1,32,14,-4
2018-05-17,17:41:08.994,74,122,220,256,252,230,234,229,188,26,-252,-580,-829,107,791,1052,743,403,145,41,-12,-22,-48,-92,-113,-123,-156,-210,-250,-311,-388,-476,-548,-596,-602,-546,-474,-361,-217,-52,125,250,345,417,460,482,480,423,380,344,299,270,234,222,205,200,188,174,153,152,163,145,131,108,102,97,58,-10,-51,-47,-28,-81,-90,-16,35,101,114,108,102,92,78,55,-108,-353,-674,-847,12,463,593,457,274,48,-103,-169,-192,-214,-225,-245,-278,-305,-343,-381,-429,-493,-550,-600,-635,-619,-563,-510,-420,-290,-161,-32,54,112,161,200,212,198,174,153,125,83,39,29,31,22
2018-05-17,17:41:10.032,10,3,2,16,25,30,35,42,-6,-89,-126,-88,-45,-64,-58,0,44,144,173,183,198,194,169,129,-52,-332,-599,-731,375,931,1019,614,270,45,-38,-55,-69,-79,-102,-137,-157,-180,-210,-264,-340,-426,-515,-581,-611,-591,-548,-468,-328,-162,17,186,328,439,532,573,592,577,542,491,442,403,372,357,334,310,303,299,290,278,276,258,243,238,228,175,86,17,16,76,59,34,114,147,241,278,279,267,247,236,188,62,-214,-534,-1052,-264,622,1082,811,398,64,-80,-125,-142,-175,-213,-218,-238,-244,-267,-318,-354,-389,-438,-514,-536,-518,-497,-411,-273,-115,51,249,423
2018-05-17,17:41:19.533,-801,281,852,917,523,202,20,-66,-108,-136,-176,-201,-230,-249,-279,-333,-395,-482,-561,-635,-700,-732,-729,-676,-594,-477,-300,-132,21,169,287,367,423,445,414,370,333,283,239,212,183,161,150,146,138,130,153,100,25,-32,-32,21,18,-35,27,61,122,197,209,200,202,185,154,76,-163,-472,-1026,-817,199,789,859,535,267,68,-49,-86,-131,-152,-169,-180,-206,-253,-293,-337,-412,-497,-576,-636,-643,-627,-583,-490,-367,-232,-73,67,177,248,312,346,363,358,323,286,251,205,170,132,118,125,112,113,99,48,-2,-24,-4,1,-2,0,73,108,169,190,189,178,153,133
2018-05-17,17:41:20.957,105,-54,-322,-660,-978,-123,435,671,583,426,207,43,-44,-79,-95,-121,-147,-186,-215,-243,-274,-326,-380,-430,-475,-518,-505,-461,-405,-339,-221,-81,29,114,193,264,301,318,318,292,257,222,203,183,153,108,92,94,73,62,53,1,-49,-40,-4,7,-15,24,60,120,188,194,182,175,154,145,71,-185,-486,-908,-676,242,689,784,517,257,42,-39,-102,-123,-137,-166,-197,-209,-234,-280,-319,-380,-459,-523,-574,-603,-582,-526,-455,-356,-200,-52,89,205,295,351,388,394,384,353,326,287,249,218,199,173,153,152,148,157,109,42,-3,-18,9,25,21,52,71,143,204,208
2018-05-17,17:41:21.994,204,186,165,125,9,-270,-564,-987,-279,521,866,710,388,94,-52,-106,-133,-164,-171,-202,-223,-248,-277,-319,-382,-440,-509,-596,-647,-659,-634,-566,-485,-377,-226,-60,99,220,303,347,371,381,360,335,294,237,191,155,128,116,119,119,99,56,-15,-59,-38,-13,-16,-27,31,85,151,212,214,207,201,181,143,10,-299,-632,-1111,-401,487,843,660,347,104,-38,-110,-143,-171,-199,-226,-252,-284,-319,-365,-434,-506,-583,-661,-707,-712,-701,-647,-555,-433,-263,-70,71,198,276,330,367,379,367,323,283,232,193,161,142,126,89,59,4,-58,-88,-74,-41,-32,-43,-2,46,129,212
2018-05-17,17:41:23.031,225,209,194,187,159,42,-227,-615,-1200,-476,481,919,749,402,135,-18,-89,-115,-147,-171,-205,-249,-273,-300,-344,-403,-488,-564,-642,-676,-684,-632,-570,-478,-341,-175,-1,149,258,334,411,439,431,393,354,317,280,242,213,185,160,152,129,87,17,-16,29,54,27,39,80,115,192,222,216,209,193,180,145,-31,-308,-727,-1069,-158,462,719,576,396,167,23,-57,-77,-107,-141,-162,-179,-216,-242,-279,-339,-405,-451,-496,-529,-530,-470,-401,-306,-181,-59,61,148,214,283,303,309,296,274,251,206,175,138,104,84,74,60,2,-41,-57,-40,-34,-22,-30,5,36,116,163,172
2018-05-17,17:41:24.068,160,151,148,120,-24,-301,-594,-916,-179,390,620,511,329,150,21,-29,-46,-66,-96,-119,-142,-176,-212,-254,-296,-360,-425,-499,-528,-533,-510,-455,-366,-259,-131,-9,95,193,250,279,298,304,283,265,246,227,191,151,120,100,84,73,8,-48,-89,-49,-20,-15,1,53,97,174,225,229,229,219,198,147,-66,-406,-739,-787,324,863,919,481,199,35,-43,-63,-75,-111,-147,-181,-206,-238,-273,-317,-371,-449,-526,-599,-643,-650,-603,-533,-428,-297,-133,34,162,277,372,430,437,424,389,337,308,296,244,207,181,177,165,164,164,137,58,-12,-39,-6,23,8,25,84,141,227
2018-05-17,17:41:25.106,243,237,238,207,185,131,-133,-462,-890,-775,307,867,924,500,165,-11,-89,-132,-155,-177,-205,-235,-257,-284,-324,-371,-445,-524,-606,-669,-701,-688,-658,-583,-479,-325,-156,20,160,259,336,402,421,394,375,351,312,280,240,207,193,174,158,152,159,159,143,140,131,74,-7,-48,-1,15,-33,-28,37,86,169,182,174,168,151,119,77,-117,-415,-770,-964,38,527,698,481,247,30,-83,-145,-153,-151,-175,-197,-221,-239,-276,-328,-367,-416,-473,-527,-557,-560,-514,-462,-390,-284,-163,-35,75,170,236,271,290,300,282,238,213,198,146,104,88,88,79,67,61,61,71,74,67
2018-05-17,17:41:26.143,23,-30,-64,-12,8,-48,-35,22,66,130,137,134,129,116,94,45,-152,-407,-715,-807,86,493,625,448,254,47,-49,-99,-127,-143,-156,-167,-189,-223,-264,-292,-314,-371,-437,-495,-530,-529,-496,-435,-355,-258,-120,16,110,192,251,283,318,311,294,271,244,209,174,142,117,95,95,82,83,86,96,95,90,39,-27,-81,-71,-24,-25,-9,59,98,194,222,208,193,173,162,123,-87,-421,-721,-740,343,909,960,519,160,-27,-109,-143,-156,-179,-213,-215,-235,-263,-302,-343,-395,-472,-553,-617,-667,-667,-643,-592,-506,-372,-198,-29,133,274,371,439,462,459,440,404,365,339,308
2018-05-17,17:41:27.180,263,256,235,217,206,203,205,189,176,183,188,183,142,59,-14,-39,6,47,15,57,105,178,251,262,239,229,191,158,85,-215,-482,-937,-368,599,1018,884,445,120,-48,-124,-141,-151,-174,-193,-218,-240,-278,-331,-371,-428,-509,-591,-665,-703,-701,-669,-598,-483,-350,-167,2,141,278,353,396,429,424,379,352,311,268,225,207,170,167,160,152,148,139,120,125,138,129,93,24,-37,-36,1,-35,-86,-9,30,118,157,156,142,127,104,88,-2,-276,-546,-1060,-520,296,694,634,395,165,-18,-114,-152,-166,-182,-205,-230,-251,-287,-320,-347,-392,-450,-519,-569,-588,-563,-513,-440
2018-05-17,17:41:28.217,-333,-235,-114,-6,93,172,223,274,280,264,247,205,182,168,128,75,58,77,72,73,47,40,42,39,12,16,-25,-86,-113,-85,-56,-96,-112,-75,-29,37,77,85,77,68,41,-10,-164,-392,-744,-1062,-225,347,666,566,387,112,-55,-136,-153,-161,-201,-229,-234,-250,-314,-359,-364,-396,-472,-536,-587,-570,-547,-501,-445,-341,-179,-5,94,196,272,331,351,385,371,336,375,497,678,780,104,-215,-135,122,533,501,131,-9,9,226,332,-150,-168,-48,29,80,47,-10,71,73,164,231,199,163,164,152,141,8,-386,-734,-1049,-388,397,575,552,341,241,124,51,25,39,54
2018-05-17,17:41:29.254,52,61,27,-38,-89,-171,-232,-274,-321,-300,-265,-246,-174,-81,-33,48,194,322,400,431,548,649,729,739,680,661,663,594,559,605,727,550,519,534,548,480,488,318,-137,-436,-417,-195,-56,43,144,277,199,162,70,-89,-70,-131,-309,-891,-1081,-291,437,707,613,480,204,-35,-164,-121,-90,-130,-196,-273,-298,-229,-260,-325,-365,-387,-405,-465,-485,-482,-471,-414,-312,-258,-201,-102,-83,-13,51,71,98,113,84,45,53,18,-41,-35,-18,-8,-22,-81,-121,-134,-218,-298,-279,-309,-376,-312,-343,-325,-299,-291,-269,-205,-156,-133,-127,76,235,-250,-687,-1062,-1083,146,839,1282,426,-108
2018-05-17,17:41:30.291,-44,-252,-401,67,139,-112,-104,-300,-300,-272,-544,-906,-1042,-885,-907,-880,-739,-604,-577,-579,-454,-242,-100,117,222,279,190,58,115,98,35,49,96,111,51,11,18,3,-20,6,37,40,-11,-25,-73,-74,42,67,86,165,224,275,253,216,289,288,289,220,-86,-447,-952,-1074,-138,451,896,772,584,258,-45,-241,-408,-505,-576,-574,-516,-425,-323,-324,-258,-287,-569,-678,-79,-47,-578,-640,-680,-400,-44,122,328,663,850,820,470,215,161,282,266,151,149,153,134,86,41,52,118,135,108,70,139,198,132,64,-92,-206,-232,-244,-185,-124,-94,-86,-93,-124,-171,-301,-548,-732
2018-05-17,17:41:31.329,-987,-193,322,686,722,598,424,152,-1,10,96,110,76,81,61,29,-17,-51,-144,-245,-346,-402,-397,-397,-434,-319,-261,-226,-163,-127,-72,-2,50,104,140,214,283,544,606,258,421,739,212,21,5,-164,-55,234,296,439,367,193,-192,-345,-261,-174,-71,33,109,124,196,209,166,133,47,-130,-688,-1285,-517,346,878,621,298,26,-245,-335,-282,-235,-244,-280,-301,-313,-315,-350,-368,-417,-470,-564,-577,-570,-546,-471,-376,-256,-63,121,332,420,708,704,665,697,631,592,555,462,364,269,224,173,104,171,204,152,116,-8,-121,-176,-134,-101,-62,-14,64,182,213,87,216,123
2018-05-17,17:41:32.366,56,152,165,5,-142,-336,-1069,-860,-24,724,892,571,350,1,-160,-179,-187,-141,-113,-134,-161,-189,-195,-215,-154,-154,-212,-276,-371,-515,-558,-520,-421,-214,15,148,205,230,280,316,301,286,308,351,338,312,298,262,241,231,232,195,226,237,205,232,228,240,221,196,185,162,186,153,162,128,62,15,-16,-65,-119,-274,-461,-865,-1305,-390,81,410,398,299,132,204,367,-392,-790,-683,-521,-377,-28,241,-24,-577,-874,-826,-714,-689,-531,-123,-252,-522,-549,-113,375,177,-3,192,447,547,585,599,604,591,563,553,552,510,495,547,507,409,302,223,202,262,257,331,393,410
2018-05-17,17:41:33.403,426,416,393,436,472,485,509,571,609,669,623,346,5,-644,-192,829,1527,1800,1502,1192,743,405,268,302,216,116,94,41,-10,-70,-183,-325,-425,-445,-528,-536,-515,-616,-595,-521,-447,-266,3,217,275,294,210,256,339,689,702,267,-214,-252,-100,11,-171,-221,-87,-346,-479,-522,-388,-319,-571,-714,-669,-603,-534,-448,-409,-406,-371,-363,-345,-395,-419,-519,-715,-1292,-1641,-837,-415,-238,-348,-426,-524,-643,-715,-692,-656,-660,-636,-577,-546,-515,-523,-537,-541,-571,-608,-663,-681,-650,-616,-535,-454,-376,-245,-89,18,52,81,120,109,68,62,33,0,-31,-63,-94,-136,-131,-96,-188,-243,-272
2018-05-17,17:41:34.440,-334,-353,-281,-170,-92,74,70,-1,111,339,687,624,162,76,175,-66,-319,-385,-523,-409,422,720,1075,1031,626,352,164,-220,-244,-280,-139,-271,-297,-112,-165,-277,-300,-378,-448,-497,-584,-624,-572,-464,-344,-209,-32,156,334,460,523,507,482,448,420,402,309,302,313,272,236,206,181,149,180,176,139,53,56,77,81,92,83,112,130,185,176,142,156,133,105,48,-116,-333,-764,-1135,-359,115,449,413,266,83,-78,-109,-71,-119,-221,-289,-265,-252,-115,91,-228,-510,-483,-463,-453,-464,-423,-327,-339,-212,-42,44,161,282,476,416,311,317,376,344,301,274,248,236,187,218
2018-05-17,17:41:35.477,297,298,237,151,74,-34,-109,-140,-119,-77,-28,16,-4,12,32,42,62,60,79,86,17,-216,-465,-961,-860,180,762,1039,844,631,276,83,0,-12,-21,-73,-147,-198,-260,-345,-463,-617,-669,-724,-782,-839,-869,-770,-693,-590,-445,-267,-90,80,228,343,422,767,798,466,490,529,496,469,21,-218,-219,-105,72,163,238,176,101,54,-65,-200,-176,-64,57,151,222,253,270,274,285,278,300,214,-19,-511,-1188,-523,170,486,328,109,21,-106,-187,-255,-273,-255,-228,-226,-241,-239,-222,-230,-271,-274,-320,-365,-376,-298,-253,-146,-61,39,217,390,470,530,551,565,563,505,427,400
2018-05-17,17:41:36.514,316,278,213,170,114,110,87,19,-68,-131,-209,-253,-234,-183,-105,71,73,-42,-6,29,187,422,615,634,116,-359,-537,-490,-665,-190,690,1106,1035,514,141,-153,-260,-78,-65,-232,-302,-271,-165,-307,-368,-288,-323,-386,-396,-410,-434,-500,-554,-563,-494,-349,-190,-69,37,125,175,178,130,86,77,88,57,40,72,24,71,72,52,75,92,79,23,-4,44,49,132,126,191,237,258,300,296,257,244,198,131,31,-211,-529,-1208,-1226,-171,605,957,653,417,99,-66,-130,-130,-134,-92,15,-15,151,393,-466,-707,-656,-665,-738,-753,-665,-459,-505,-507,-389,-334,-126,-11,112,255,355
