2018-05-17,10:29:44.370,185,183,185,179,166,186,217,209,231,266,256,230,197,166,162,165,158,145,149,137,-69,-449,-127,1019,1446,761,-458,-948,-734,-232,17,164,212,227,239,245,239,239,245,256,265,278,285,279,293,319,346,370,398,399,402,384,324,224,105,2,-86,-139,-153,-155,-137,-125,-123,-89,-84,-91,-68,-51,-43,-37,-28,-13,-5,-7,0,2,0,3,5,9,20,26,33,40,38,45,55,68,60,46,55,55,55,61,70,71,100,137,154,138,114,86,64,68,46,39,32,30,-50,-435,-515,476,1409,1125,-42,-1003,-1004,-440,-93,81,137,142,157,168,176,179,168,165
2018-05-17,10:29:45.408,180,203,209,218,239,259,283,300,314,336,341,322,286,201,93,-38,-150,-227,-267,-284,-267,-238,-220,-217,-214,-183,-184,-182,-162,-149,-134,-123,-120,-114,-85,-74,-68,-80,-71,-45,-30,-19,-16,-12,0,-1,7,17,12,10,1,21,5,9,13,0,14,11,50,80,85,54,20,-7,-17,-15,-11,-14,-15,-22,-159,-577,-485,698,1468,905,-439,-1200,-955,-377,-77,75,115,140,150,161,176,179,171,177,194,201,210,239,254,268,295,317,334,345,353,355,311,205,71,-55,-156,-217,-259,-281,-276,-248,-223,-213,-204,-186,-179,-178,-178,-171,-165,-158,-143,-129,-119,-102,-95,-75
2018-05-17,10:29:46.445,-67,-49,-56,-38,-27,-12,-4,-8,2,-2,11,24,34,87,121,111,76,51,31,34,40,43,57,61,27,-307,-603,195,1356,1318,246,-906,-1044,-494,-75,149,222,235,244,262,269,268,278,287,304,308,321,346,358,377,390,408,441,447,443,429,397,309,151,18,-83,-158,-191,-189,-168,-147,-134,-123,-112,-97,-85,-97,-88,-77,-68,-66,-80,-80,-60,-70,-80,-71,-67,-76,-91,-103,-118,-123,-133,-145,-145,-145,-164,-142,-105,-112,-153,-201,-229,-243,-253,-280,-288,-306,-325,-495,-960,-810,388,1039,410,-922,-1654,-1380,-841,-556,-405,-380,-380,-380,-380,-386,-388,-384,-386,-388,-379,-373
2018-05-17,10:29:47.482,-362,-323,-295,-292,-267,-231,-205,-214,-241,-304,-421,-577,-696,-766,-806,-836,-840,-822,-793,-756,-720,-703,-686,-652,-619,-572,-544,-533,-520,-498,-482,-478,-461,-447,-427,-394,-391,-384,-378,-378,-363,-368,-362,-349,-328,-312,-318,-301,-289,-266,-241,-197,-190,-162,-130,-105,-111,-145,-144,-143,-141,-113,-78,-72,-87,-194,-574,-545,513,1338,962,-224,-1014,-916,-394,-61,134,191,236,261,275,312,326,324,342,341,342,379,399,418,448,472,517,554,559,582,600,579,501,411,292,199,149,113,99,103,112,117,114,118,154,162,156,179,226,250,246,239,237,251,271,285,289,298,329,345,336,319
2018-05-17,10:29:48.519,316,340,358,350,318,306,305,325,336,336,341,329,344,375,394,376,347,311,303,312,319,330,322,314,236,-138,-144,823,1539,1219,172,-528,-528,-128,162,324,365,384,412,414,417,413,393,378,375,375,384,391,383,385,375,394,424,426,412,418,372,292,181,64,-12,-44,-81,-115,-126,-116,-96,-76,-72,-51,-14,2,-9,-1,3,10,19,8,28,43,48,28,29,32,40,30,13,36,54,49,52,43,17,14,18,35,44,46,37,30,36,58,37,-5,-31,-12,-1,7,46,62,40,10,-3,-31,-38,-22,-33,-15,-21,-106,-470,-595,315,1237,1041,-37,-1033,-998
2018-05-17,10:29:49.556,-461,-160,19,67,65,83,115,125,125,125,121,125,137,143,156,154,154,169,202,213,225,230,229,217,190,113,8,-116,-216,-247,-255,-248,-236,-216,-224,-227,-223,-214,-176,-138,-137,-153,-137,-109,-95,-80,-77,-74,-55,-40,-35,-47,-31,-29,-40,-19,-7,4,-13,-15,6,3,6,0,8,2,-4,-18,-14,-8,-12,-23,-23,-29,-47,-42,-28,-33,-26,-20,-15,-20,-22,22,43,38,11,-11,-20,-14,2,-2,-13,-3,-113,-506,-570,446,1352,1051,-184,-1101,-1020,-445,-122,43,74,105,116,112,128,120,116,124,117,137,163,178,175,180,191,218,232,247,268,267,261,214
2018-05-17,10:29:50.593,129,20,-91,-149,-193,-220,-240,-243,-215,-189,-183,-176,-163,-153,-148,-133,-108,-101,-110,-95,-79,-67,-60,-47,-37,-38,-36,-43,-39,-29,-28,-33,-31,-44,-37,-18,-13,-16,-8,-11,-13,-8,-21,-13,-12,-18,-20,-16,-23,-23,-34,-23,-17,-16,-5,-17,-13,0,-6,-13,7,-7,-11,31,58,61,35,4,-17,-24,-28,-37,-36,-45,-147,-534,-567,508,1355,1008,-215,-1029,-945,-429,-139,24,54,66,88,93,80,83,95,88,73,83,103,111,116,133,140,162,171,171,184,196,180,140,67,-20,-101,-170,-219,-242,-239,-232,-210,-199,-196,-193,-175,-146,-137,-130,-128,-127,-112,-111
2018-05-17,10:29:51.631,-97,-81,-64,-65,-53,-55,-57,-40,-34,-21,-7,0,-2,16,13,-2,-8,-6,2,1,9,3,-4,9,9,0,5,9,4,-8,8,2,2,24,37,51,79,99,73,33,23,21,7,24,33,16,-26,-297,-557,83,1021,1073,236,-703,-865,-551,-193,-18,68,97,119,132,141,136,128,136,148,151,177,170,177,194,200,192,196,216,216,201,187,148,97,-3,-104,-171,-221,-249,-252,-241,-237,-232,-222,-216,-199,-201,-182,-175,-163,-148,-144,-130,-109,-107,-92,-83,-95,-82,-87,-76,-77,-85,-60,-42,-37,-57,-41,-22,-20,-11,-7,-2,-4,-22,-19,-19,-19,-18,-29,-24
2018-05-17,10:29:52.668,-33,-7,7,15,0,-44,-79,-85,-87,-78,-91,-85,-96,-337,-625,-173,836,1105,436,-604,-904,-617,-247,-64,37,52,60,82,87,92,96,102,123,135,136,137,149,155,174,198,219,227,231,230,226,194,121,26,-69,-141,-207,-243,-245,-233,-214,-208,-197,-181,-177,-150,-137,-142,-138,-137,-136,-118,-102,-87,-83,-86,-85,-79,-71,-72,-46,-42,-59,-55,-48,-37,-23,-11,-11,-8,12,18,13,11,16,12,0,-16,-14,-12,-8,-15,-33,-16,-21,-10,33,59,78,66,20,0,-17,-24,-17,-21,-36,-67,-367,-653,29,1108,1206,306,-790,-999,-565,-199,1,83,85,88,106,107
2018-05-17,10:29:53.705,96,101,100,96,103,113,112,117,132,160,192,216,223,228,237,235,192,120,18,-85,-168,-212,-238,-260,-252,-231,-222,-222,-203,-183,-184,-178,-155,-142,-137,-123,-117,-92,-85,-83,-66,-73,-70,-56,-43,-59,-58,-42,-41,-46,-43,-29,-8,-5,-26,-20,-12,-14,-15,-24,-8,4,-8,-14,0,3,-3,-9,-17,-25,-33,-36,-28,-33,-33,0,26,34,7,-12,-33,-32,-6,2,-14,-20,-41,-319,-660,-89,1066,1278,393,-822,-1172,-716,-223,2,101,108,119,144,155,162,171,171,172,184,186,171,172,199,209,213,243,238,251,254,236,197,119,16,-113,-197,-280,-324,-316,-298
2018-05-17,10:29:54.742,-284,-271,-249,-229,-221,-196,-183,-155,-154,-147,-135,-125,-116,-96,-84,-85,-77,-60,-49,-65,-49,-42,-34,-34,-40,-38,-29,-31,-29,-32,-25,-22,-19,-10,-8,-7,10,8,-3,5,3,0,-11,-17,-31,-9,0,3,50,77,64,32,-6,-24,-5,-16,-24,-22,-10,-75,-403,-601,167,1103,982,-28,-964,-1070,-598,-182,19,105,122,142,152,155,173,160,159,154,154,157,153,163,173,177,191,209,220,225,206,185,145,70,-39,-164,-241,-263,-296,-300,-281,-257,-240,-220,-200,-203,-190,-180,-150,-119,-101,-79,-78,-71,-70,-65,-49,-42,-25,-8,-3,-3,1,0,7,9,4,4
2018-05-17,10:29:56.079,26,16,1,12,15,28,10,11,17,19,27,7,21,18,0,2,18,25,42,67,73,38,32,-11,-17,-3,0,-27,-20,-41,-316,-586,40,1000,1019,155,-800,-1006,-661,-230,-16,104,125,147,153,115,144,199,170,152,156,182,173,161,190,227,220,253,261,257,260,237,199,114,-15,-123,-202,-290,-272,-258,-277,-267,-264,-257,-234,-215,-206,-207,-190,-178,-160,-153,-143,-124,-120,-126,-92,-62,-62,-55,-53,-40,-34,-28,-45,-46,-14,0,-8,-12,-3,-8,10,25,28,9,10,20,7,5,22,32,25,10,14,24,39,33,38,84,80,97,86,44,14,6,-2,13
2018-05-17,10:29:57.117,14,-14,-102,-464,-573,358,1193,899,-193,-1058,-1034,-503,-148,35,91,90,101,110,109,111,114,125,103,100,142,147,170,177,203,242,270,280,276,279,260,216,117,-10,-110,-195,-243,-262,-277,-276,-258,-238,-217,-209,-191,-198,-204,-197,-177,-163,-155,-155,-156,-136,-114,-118,-102,-88,-73,-61,-58,-49,-36,-48,-47,-40,-43,-27,-21,-18,-20,2,10,2,1,11,10,2,0,3,-7,-7,-14,-7,-13,-16,-23,-38,-15,-30,-18,30,57,55,25,-12,-29,-35,-43,-53,-43,-33,-118,-473,-578,346,1166,866,-208,-1068,-1045,-487,-147,28,84,102,127,122,131,132,130,140,144,161
2018-05-17,10:29:58.154,166,184,180,172,194,223,240,265,274,272,264,203,106,-6,-89,-166,-232,-256,-245,-237,-238,-219,-190,-162,-151,-150,-148,-131,-117,-101,-105,-114,-97,-90,-81,-81,-70,-63,-64,-59,-53,-44,-36,-25,-23,-27,-46,-34,-31,-35,-36,-28,-14,-23,-29,-36,-26,-23,-25,-22,-25,-36,-45,-40,-34,-16,-27,-1,47,58,38,12,-18,-44,-36,-22,-20,-22,-19,-209,-558,-224,823,1122,467,-591,-1005,-767,-313,-69,48,76,89,105,108,104,93,91,109,110,114,125,134,132,145,164,174,182,187,197,203,185,121,26,-81,-177,-235,-271,-262,-256,-237,-220,-208,-192,-168,-159,-146,-142
2018-05-17,10:29:59.191,-137,-115,-120,-102,-83,-84,-63,-38,-55,-55,-38,-41,-36,-39,-29,-16,-13,-6,0,0,9,17,7,8,10,-1,3,-4,-9,-3,-22,-13,-13,-7,0,-18,-29,-24,-22,-30,-31,-35,-41,-18,22,29,25,3,-30,-41,-26,0,2,-14,-22,-102,-454,-503,435,1203,877,-202,-1022,-942,-405,-80,93,114,120,137,137,130,132,139,149,145,147,156,173,184,192,220,237,253,264,270,270,257,210,126,9,-106,-188,-226,-251,-252,-250,-238,-216,-202,-186,-175,-164,-155,-148,-136,-130,-128,-109,-90,-94,-95,-89,-79,-74,-71,-60,-55,-46,-41,-47,-45,-46,-41,-40,-50,-36,-29
2018-05-17,10:30:00.228,-40,-34,-18,-15,-17,-31,-20,-16,-17,-10,-7,-5,-1,1,2,-10,-27,-20,-18,-10,28,56,63,20,-23,-31,-32,-27,-34,-25,-29,-74,-379,-631,87,1101,1075,109,-961,-1120,-609,-191,9,82,97,114,129,139,143,141,144,167,176,166,185,187,200,229,249,260,270,276,271,258,222,141,21,-99,-187,-239,-274,-292,-276,-270,-246,-244,-235,-210,-192,-180,-166,-158,-148,-144,-131,-112,-110,-108,-95,-76,-79,-61,-55,-51,-39,-37,-38,-29,-39,-37,-25,-23,-25,-26,-10,0,2,2,1,7,22,0,7,13,12,11,7,10,23,14,9,9,35,23,20,67,96,97
2018-05-17,10:30:01.265,47,3,-7,-3,-11,-19,-32,-30,-120,-477,-534,385,1172,893,-166,-991,-957,-466,-161,10,61,84,97,107,110,107,107,107,116,104,113,117,131,146,152,175,205,217,216,213,210,165,81,-24,-116,-190,-227,-243,-247,-250,-239,-216,-193,-174,-162,-164,-143,-139,-126,-109,-101,-97,-89,-86,-62,-45,-46,-49,-39,-32,-46,-28,8,3,-14,0,3,0,-1,-13,-21,-14,0,1,-14,-20,-27,-34,-28,-25,-19,-21,-12,-26,-20,-22,-15,27,51,50,26,-19,-25,-19,-14,-20,-10,-19,-74,-370,-575,166,1089,1022,106,-834,-945,-520,-166,17,96,110,120,126,129,138,132,135
2018-05-17,10:30:02.303,145,144,133,142,173,193,211,221,229,230,240,240,214,178,100,1,-110,-177,-230,-256,-271,-269,-247,-228,-219,-220,-200,-184,-168,-159,-163,-141,-128,-121,-112,-100,-102,-95,-84,-84,-74,-63,-64,-58,-45,-65,-66,-43,-40,-48,-42,-42,-36,-25,-8,-11,-20,-21,-15,-15,-2,-13,-23,-26,-17,-9,3,3,-11,-12,5,8,7,50,70,58,57,22,-14,-23,-8,-5,-31,-19,-51,-326,-638,-64,1026,1177,323,-821,-1103,-636,-211,-1,52,59,107,150,146,128,132,141,135,122,120,137,156,164,177,189,206,228,241,243,241,220,154,45,-79,-175,-228,-264,-282,-265,-252,-237
2018-05-17,10:30:03.340,-217,-190,-174,-150,-148,-150,-154,-137,-141,-131,-109,-110,-112,-104,-82,-75,-61,-51,-55,-55,-51,-54,-56,-49,-42,-46,-23,-30,-29,-19,-16,-2,8,1,8,9,6,7,3,0,13,19,24,24,24,25,18,11,-7,0,16,14,54,88,99,71,17,-6,-4,-10,-9,-8,-16,-32,-229,-606,-253,904,1284,544,-705,-1175,-787,-277,-40,64,83,97,105,118,126,119,115,120,121,131,134,145,153,183,207,195,207,219,223,220,200,152,61,-44,-141,-209,-251,-265,-267,-260,-254,-232,-216,-202,-193,-197,-184,-171,-159,-148,-148,-138,-123,-117,-114,-100,-86,-68,-62,-71,-66,-68
2018-05-17,10:30:04.377,-64,-56,-57,-51,-32,-32,-33,-26,-20,-17,-32,-36,-12,0,-3,-12,-1,-6,-12,-33,-37,-27,-24,27,66,48,19,-6,-16,-14,-23,-25,-31,-23,-57,-354,-591,103,1066,1029,88,-879,-1024,-611,-187,13,95,126,134,159,163,165,174,176,172,185,204,194,197,211,226,244,256,277,283,275,256,227,146,45,-57,-150,-206,-229,-247,-251,-253,-228,-210,-195,-182,-182,-172,-173,-168,-160,-144,-138,-134,-116,-105,-94,-86,-84,-79,-71,-70,-62,-58,-50,-51,-40,-37,-27,-21,-35,-25,-5,7,-1,8,15,10,4,-7,3,0,7,41,66,70,36,5,-28,-36,-28,-33,-37
2018-05-17,10:30:05.414,-47,-79,-337,-621,-39,967,1066,239,-783,-1010,-654,-238,-29,74,90,96,109,123,144,152,146,136,138,161,173,180,187,209,235,262,269,278,285,276,250,196,95,-22,-102,-156,-191,-197,-181,-172,-141,-128,-115,-98,-88,-65,-62,-49,-25,1,6,5,0,17,24,32,33,41,60,70,64,72,77,73,69,71,67,59,66,72,82,77,91,93,92,93,85,81,83,83,76,81,82,97,106,101,153,194,187,153,128,106,109,121,116,100,98,60,-230,-561,57,1131,1204,348,-773,-1008,-520,-128,50,99,101,120,131,129,124,129,129,127,114,102,106,133,153,162
2018-05-17,10:30:06.451,159,162,168,158,145,129,108,39,-76,-180,-279,-339,-373,-401,-404,-384,-367,-354,-349,-336,-324,-308,-290,-296,-285,-264,-253,-251,-236,-242,-234,-227,-224,-204,-189,-172,-173,-170,-157,-147,-158,-164,-143,-123,-110,-107,-106,-101,-100,-98,-95,-84,-78,-69,-53,-38,-24,-30,-20,-22,-35,-48,-32,-14,-17,26,50,57,38,-7,-28,-30,-26,-32,-41,-39,-52,-307,-691,-207,938,1180,374,-842,-1198,-735,-279,-50,37,51,69,85,93,98,97,97,113,113,104,110,127,148,156,166,178,201,220,240,229,201,127,35,-69,-162,-231,-271,-299,-293,-267,-249,-245,-238,-214,-202,-203,-188,-173,-166
2018-05-17,10:30:07.489,-151,-146,-134,-119,-95,-96,-94,-75,-44,-54,-59,-56,-61,-45,-32,-32,-28,-18,-21,-12,-6,-6,-18,-13,3,-1,-3,-12,-20,-9,-15,-20,-21,-19,-16,-24,-19,-12,12,57,67,52,32,15,-12,-37,-34,-19,-9,-11,-102,-476,-552,433,1203,886,-257,-1053,-991,-457,-130,32,85,110,122,129,142,155,149,146,151,160,156,171,191,221,234,241,241,256,264,275,244,195,117,24,-75,-159,-209,-217,-218,-214,-198,-189,-182,-155,-135,-121,-120,-117,-96,-81,-78,-48,-44,-47,-40,-21,0,12,25,31,31,49,64,64,71,81,94,111,122,141,162,173,167,179,181,176
2018-05-17,10:30:08.526,184,187,181,189,179,178,201,208,207,194,192,234,268,248,212,177,147,144,157,175,165,150,121,-122,-458,37,1118,1253,416,-745,-1048,-665,-273,-79,-27,-34,-40,-42,-66,-92,-117,-135,-150,-146,-157,-168,-207,-221,-247,-247,-258,-261,-285,-309,-345,-389,-477,-589,-687,-791,-896,-928,-937,-942,-939,-924,-918,-909,-918,-933,-926,-932,-917,-918,-902,-910,-895,-896,-872,-872,-871,-840,-824,-795,-781,-764,-751,-746,-729,-716,-693,-631,-584,-561,-561,-536,-474,-431,-400,-344,-294,-260,-230,-189,-152,-160,-137,-93,-33,45,83,94,90,82,93,86,95,98,113,104,-14,-391,-340,783,1566,1116,-194,-969
2018-05-17,10:30:09.563,-728,-70,280,470,510,533,567,582,589,596,584,586,602,607,604,586,589,599,626,656,690,722,727,722,702,639,526,387,270,161,96,69,66,67,73,86,93,99,147,197,245,260,263,263,243,225,243,246,257,258,266,256,267,275,263,253,225,215,229,234,227,221,231,241,245,241,251,238,223,237,234,229,202,207,198,193,226,222,213,190,157,126,117,108,83,71,79,-8,-350,-475,370,1186,944,-117,-942,-1005,-557,-158,14,109,143,160,171,175,194,203,215,212,212,240,276,292,304,321,346,371,389,391,373,347,290,219,93,-29,-111,-165,-196,-209
2018-05-17,10:30:10.600,-209,-202,-196,-184,-154,-152,-159,-161,-149,-133,-121,-115,-102,-102,-112,-101,-100,-98,-109,-109,-109,-96,-76,-81,-86,-61,-55,-32,-16,-21,-34,-6,-14,-7,11,36,35,37,42,42,28,31,88,116,108,42,18,2,-3,5,17,23,-5,-99,-472,-637,308,1315,1136,-30,-1053,-1146,-640,-235,-8,89,101,121,132,136,135,144,130,140,161,175,195,211,228,258,268,274,287,307,317,294,249,162,19,-112,-210,-266,-293,-281,-274,-261,-232,-212,-194,-180,-175,-171,-169,-155,-158,-139,-124,-114,-103,-91,-102,-102,-94,-86,-60,-60,-53,-73,-74,-53,-46,-40,-36,-41,-41,-35,-43,-51
2018-05-17,10:30:11.637,-64,-67,-70,-45,-51,-5,35,42,17,-24,-52,-47,-44,-43,-44,-65,-78,-193,-598,-673,430,1403,1014,-357,-1306,-1211,-547,-161,29,87,108,141,151,147,152,145,156,170,180,189,201,221,236,277,300,314,323,336,335,300,244,132,3,-114,-209,-267,-291,-294,-275,-250,-227,-211,-188,-161,-165,-155,-152,-148,-137,-133,-114,-104,-96,-89,-93,-73,-67,-53,-43,-40,-46,-46,-40,-35,-44,-60,-51,-38,-43,-52,-59,-57,-47,-32,-46,-26,21,45,35,-15,-43,-42,-37,-32,-34,-42,-57,-111,-437,-662,181,1236,1134,1,-1049,-1180,-668,-225,-5,85,89,110,129,141,138,137,124,132
2018-05-17,10:30:12.675,187,202,204,208,222,242,247,266,272,273,284,253,185,79,-41,-144,-214,-260,-280,-278,-264,-244,-220,-211,-206,-199,-173,-160,-158,-160,-152,-131,-132,-134,-118,-93,-77,-52,-56,-51,-49,-47,-46,-44,-29,-28,-22,-22,-28,-17,-12,-11,-10,-13,0,46,67,46,22,4,-7,-16,-13,-9,-10,-13,-99,-454,-583,313,1231,1008,-76,-1016,-1074,-574,-203,11,76,85,105,112,112,127,126,132,135,136,156,168,181,197,224,234,261,288,291,284,257,192,69,-57,-165,-251,-289,-306,-302,-286,-270,-236,-206,-194,-178,-163,-154,-142,-136,-122,-100,-94,-69,-60,-64,-62,-52,-42,-36,-39
2018-05-17,10:30:13.712,-38,-24,-38,-32,-14,-20,-14,-15,-19,-24,-21,-27,-23,-28,-30,-24,-36,-43,-13,-19,-24,28,41,42,21,-7,-25,-35,-22,-18,-26,-26,-71,-387,-707,-49,1144,1294,333,-918,-1217,-716,-263,-9,59,69,90,109,123,123,120,127,139,132,156,155,172,193,201,232,248,262,273,259,260,213,116,-15,-152,-245,-294,-323,-336,-325,-324,-280,-253,-241,-237,-226,-191,-160,-142,-142,-128,-98,-89,-73,-62,-66,-53,-47,-32,-35,-26,-18,6,13,5,1,4,13,25,19,2,31,41,29,21,28,25,20,42,44,33,9,-1,19,6,4,20,-3,42,78,79,48,8,-16
2018-05-17,10:30:14.749,-30,-24,-35,-50,-58,-70,-310,-719,-302,972,1398,592,-738,-1280,-905,-357,-108,16,40,52,80,98,107,108,101,117,125,133,136,145,164,188,191,210,237,240,258,237,199,142,44,-63,-171,-243,-266,-278,-299,-297,-244,-239,-241,-217,-202,-206,-184,-170,-167,-148,-150,-139,-127,-123,-122,-115,-90,-79,-68,-60,-53,-51,-49,-57,-55,-61,-45,-34,-20,-20,-11,-10,-10,-4,-8,3,1,-9,-8,6,15,46,61,74,42,16,-1,-4,-9,-7,-15,-4,-32,-318,-622,21,1053,1091,210,-819,-1028,-633,-208,-5,102,129,133,134,138,151,149,147,157,166,163,179,185,190,202,220
2018-05-17,10:30:15.786,232,242,239,235,226,188,105,-10,-116,-207,-267,-288,-284,-262,-251,-241,-217,-206,-209,-204,-192,-179,-166,-162,-142,-141,-136,-124,-103,-97,-88,-76,-60,-41,-37,-47,-43,-25,-33,-28,-17,-18,-15,-21,-19,-19,4,18,1,4,28,19,7,0,0,18,15,37,85,107,94,59,29,14,14,0,-8,-11,-24,-119,-494,-578,399,1291,989,-195,-1146,-1034,-442,-112,48,89,97,104,122,141,147,154,159,161,158,155,161,178,200,205,228,265,266,253,257,242,191,91,-13,-122,-195,-242,-259,-255,-245,-225,-225,-210,-199,-181,-164,-161,-155,-137,-134,-130,-126,-123,-123,-113,-99,-97
2018-05-17,10:30:16.823,-79,-75,-68,-51,-47,-40,-42,-43,-43,-44,-38,-34,-36,-37,-30,-35,-35,-30,-13,-7,-24,-25,-16,-12,-3,-8,39,78,76,49,2,-23,-15,-7,-13,-20,-26,-44,-248,-615,-282,868,1284,572,-652,-1157,-794,-292,-41,58,64,90,109,107,109,105,115,126,121,133,142,151,156,177,198,206,210,229,229,214,185,118,33,-71,-168,-225,-260,-270,-272,-255,-228,-220,-203,-186,-188,-176,-153,-141,-128,-125,-114,-101,-92,-88,-79,-77,-58,-50,-37,-33,-27,-29,-19,-22,-17,-23,-24,-12,-9,-11,-24,-13,-8,-14,-13,-18,-18,-13,-6,44,69,75,37,15,0,2,-8,-10
2018-05-17,10:30:17.860,-22,-8,-34,-304,-595,6,1020,1111,274,-743,-980,-609,-189,16,104,122,123,135,150,159,158,150,149,139,128,139,139,164,193,217,236,236,241,244,243,197,118,9,-100,-176,-220,-244,-247,-236,-225,-210,-199,-181,-170,-153,-136,-131,-136,-128,-114,-100,-84,-86,-83,-68,-68,-62,-53,-57,-44,-48,-47,-40,-37,-31,-28,-27,-28,-20,-19,-35,-24,-13,-18,-15,-9,-20,-14,0,-11,32,72,69,48,12,-20,-27,-37,-56,-44,-26,-46,-264,-632,-267,878,1231,519,-724,-1159,-740,-280,-49,37,57,78,83,108,123,128,125,129,138,155,152,158,171,198,218,240,244,252,249
2018-05-17,10:30:18.898,241,219,153,54,-55,-164,-220,-234,-233,-225,-224,-208,-200,-187,-173,-162,-163,-159,-147,-145,-133,-132,-119,-93,-93,-76,-57,-64,-63,-48,-35,-14,-17,-13,-10,-7,-6,-10,-4,2,-3,-5,-5,0,-9,-18,-24,-7,-4,20,62,91,67,19,-16,-24,-28,-30,-30,-28,-34,-184,-573,-441,647,1268,740,-499,-1211,-935,-361,-82,52,92,111,122,133,128,133,139,143,154,165,176,187,199,201,198,224,245,267,276,263,226,157,53,-57,-150,-215,-257,-262,-259,-252,-234,-212,-213,-210,-199,-190,-177,-168,-158,-146,-148,-129,-100,-93,-94,-89,-71,-58,-53,-43,-34,-21,-32,-28,-30
2018-05-17,10:30:37.395,-45,24,54,52,28,-21,-42,-22,-20,-25,-23,-16,-24,-143,-561,-579,578,1484,1007,-411,-1343,-1328,-694,-161,75,186,203,217,223,250,253,264,281,282,277,287,319,329,344,375,392,393,394,394,385,341,225,59,-96,-223,-308,-342,-344,-330,-313,-286,-258,-239,-224,-196,-174,-181,-175,-171,-167,-134,-112,-109,-95,-83,-79,-74,-72,-52,-42,-43,-42,-45,-54,-53,-57,-36,-31,-20,0,29,48,36,-1,-23,-22,-26,-35,-43,-43,-37,-153,-573,-607,466,1390,1088,-148,-1015,-1065,-631,-238,-45,55,94,111,129,143,165,154,131,128,129,139,160,180,201,234,270,292,300,305,297
2018-05-17,10:30:37.995,265,183,64,-63,-172,-254,-297,-318,-300,-277,-261,-247,-234,-228,-216,-194,-180,-188,-198,-192,-182,-170,-147,-141,-123,-122,-109,-77,-59,-44,-46,-33,-28,-30,-32,-33,-33,-42,-59,-48,-42,-31,20,50,56,42,10,-15,-22,-19,-21,-16,-26,-30,-145,-561,-514,637,1436,978,-348,-1202,-1146,-547,-116,83,179,188,191,204,228,227,225,227,219,220,238,264,286,302,328,354,362,369,371,366,332,269,166,28,-110,-216,-273,-287,-290,-287,-261,-236,-221,-211,-198,-188,-164,-164,-150,-139,-142,-134,-123,-120,-103,-102,-105,-108,-93,-74,-57,-55,-77,-75,-58,-50,-64,-53,-18,-26,-26,20
2018-05-17,10:30:39.032,36,33,-3,-38,-58,-36,-31,-27,-31,-21,-51,-406,-838,-116,1365,1661,485,-1038,-1449,-1007,-388,-101,69,128,152,149,148,142,151,149,138,155,182,207,220,230,264,312,345,314,290,284,278,237,147,12,-144,-278,-354,-393,-392,-380,-377,-352,-314,-276,-253,-252,-232,-205,-193,-179,-165,-171,-162,-144,-118,-110,-101,-92,-79,-73,-96,-78,-42,-38,-34,35,67,68,45,7,6,8,-6,-7,0,-2,-18,-217,-651,-385,838,1384,689,-637,-1221,-1038,-429,-60,111,179,193,220,247,264,271,263,268,267,253,255,271,297,314,320,333,343,339,331,334,291,196,70,-62,-157,-229,-255
2018-05-17,10:30:40.069,-271,-256,-255,-246,-232,-214,-203,-193,-177,-165,-159,-147,-144,-137,-124,-125,-114,-109,-107,-99,-92,-91,-96,-94,-73,-71,-56,-36,-42,-31,24,45,31,17,1,0,6,-4,-10,-27,-37,-131,-516,-664,275,1328,1206,68,-963,-1068,-663,-236,-38,68,106,115,136,130,97,95,109,126,136,144,164,180,198,219,250,275,278,286,288,273,217,110,-29,-156,-251,-308,-326,-323,-311,-289,-256,-247,-218,-217,-212,-190,-173,-161,-164,-148,-119,-111,-123,-107,-92,-65,-58,-59,-52,-42,-36,-28,-18,-1,-1,-3,8,7,9,6,3,5,7,50,83,95,105,82,40,39,53,60,55,62
2018-05-17,10:30:41.107,69,-42,-537,-656,542,1743,1447,0,-1073,-1095,-546,-154,55,136,169,192,196,214,221,218,224,229,237,236,247,261,272,304,335,349,362,362,372,364,305,201,68,-46,-148,-213,-240,-244,-233,-220,-205,-179,-170,-149,-134,-124,-111,-118,-97,-79,-72,-46,-30,-7,7,27,29,18,7,-4,-6,-3,0,11,3,19,34,19,46,97,101,55,4,-20,-32,-26,-29,-32,-39,-43,-191,-718,-728,633,1707,1189,-367,-1376,-1323,-695,-225,4,82,96,116,132,157,154,168,162,160,178,188,206,227,236,256,264,278,277,276,246,195,113,-9,-177,-312,-404,-452,-467,-459,-452,-423,-397
2018-05-17,10:30:42.144,-368,-336,-319,-309,-302,-295,-276,-255,-240,-228,-207,-191,-166,-150,-131,-128,-129,-136,-133,-123,-111,-106,-89,-82,-57,-54,-26,33,54,58,33,19,-3,-4,-1,3,6,11,3,-273,-723,-235,1155,1677,807,-614,-1068,-793,-310,-85,46,95,102,123,140,137,146,141,147,152,157,158,180,193,200,230,238,232,227,230,222,184,119,15,-100,-205,-255,-288,-275,-260,-244,-212,-188,-184,-178,-168,-158,-164,-155,-143,-122,-105,-105,-98,-89,-91,-79,-67,-63,-80,-83,-63,-47,-58,-44,17,56,45,8,-22,-16,-14,-20,-15,-20,-12,-65,-386,-669,37,1150,1213,258,-851,-1095,-806,-295,-42
2018-05-17,10:30:43.181,81,117,129,141,149,149,142,143,142,139,157,168,176,188,202,205,228,237,230,209,182,146,57,-67,-150,-199,-225,-235,-226,-214,-203,-187,-184,-179,-169,-159,-142,-142,-130,-120,-123,-114,-95,-107,-98,-94,-85,-64,-41,-24,-24,-33,-7,6,-4,-10,-12,-16,-16,-17,13,15,29,70,73,63,44,34,11,0,8,-10,-18,-18,-42,-349,-797,-234,1167,1590,695,-686,-1164,-846,-363,-108,23,57,67,90,100,103,108,105,95,102,122,128,139,166,186,226,260,276,297,321,317,266,166,32,-114,-243,-320,-346,-341,-338,-327,-297,-277,-269,-264,-253,-244,-232,-218,-202,-193,-186
2018-05-17,10:30:44.218,-173,-161,-141,-138,-110,-82,-79,-82,-80,-84,-67,-61,-65,-80,-64,-51,-39,16,59,62,21,-26,-48,-39,-39,-39,-47,-42,-45,-113,-501,-708,270,1384,1196,-48,-1165,-1309,-746,-211,25,161,177,186,213,220,231,249,257,242,260,273,259,260,281,306,340,361,363,351,340,301,203,70,-65,-183,-264,-299,-299,-296,-295,-277,-252,-223,-214,-202,-201,-190,-165,-148,-138,-117,-103,-92,-91,-87,-76,-73,-80,-62,-43,-36,-43,-42,-44,-44,-47,-32,-13,-22,20,63,54,35,7,-11,-44,-54,-49,-43,-36,-55,-213,-663,-619,556,1499,1113,-196,-1055,-1022,-549,-218,-35,41,46,75,98
2018-05-17,10:30:45.255,118,125,138,135,136,131,150,168,177,197,230,257,280,286,286,277,246,168,46,-83,-188,-257,-298,-313,-281,-252,-226,-205,-222,-225,-213,-196,-193,-198,-186,-161,-152,-142,-130,-112,-95,-90,-84,-76,-64,-72,-44,-30,-47,19,63,47,10,-35,-47,-57,-45,-42,-45,-31,-23,-169,-568,-464,625,1331,850,-345,-1049,-1009,-502,-130,43,117,144,158,163,180,186,170,157,164,182,205,216,225,256,299,324,337,354,364,348,311,207,70,-58,-168,-231,-268,-261,-257,-262,-229,-203,-188,-172,-159,-150,-149,-143,-143,-133,-135,-125,-117,-94,-95,-105,-92,-85,-86,-82,-80,-72,-75,-74,-65
2018-05-17,10:30:46.293,-56,-45,-34,-36,-35,-30,-13,-15,7,72,79,56,11,0,-11,-11,-21,-37,-41,-39,-91,-442,-841,-99,1379,1618,472,-961,-1365,-940,-372,-127,30,92,115,129,147,145,155,187,201,207,218,219,215,223,244,265,290,294,301,307,313,289,197,60,-86,-217,-305,-354,-356,-344,-324,-314,-292,-261,-245,-232,-209,-190,-183,-170,-164,-146,-123,-104,-90,-82,-62,-61,-54,-51,-41,-42,-40,-28,-32,-28,-33,-32,-21,-6,55,108,120,83,45,29,6,7,-2,-21,-9,-10,-143,-620,-646,547,1520,1087,-272,-1190,-1149,-559,-154,47,141,158,169,173,167,192,198,191,187,192,207,223
2018-05-17,10:30:47.330,239,262,291,307,314,328,327,314,283,212,83,-57,-168,-242,-293,-311,-313,-295,-283,-266,-241,-223,-222,-218,-200,-184,-177,-184,-169,-149,-137,-129,-123,-113,-100,-100,-99,-108,-107,-78,-46,-38,-26,41,49,41,0,-20,-26,-28,-33,-58,-46,-32,-43,-242,-678,-325,943,1482,759,-564,-1139,-970,-430,-106,60,122,133,153,168,165,158,149,163,167,191,223,245,259,260,279,304,319,325,334,323,264,156,7,-146,-245,-301,-330,-342,-331,-320,-299,-281,-257,-234,-214,-202,-189,-171,-169,-159,-132,-126,-118,-107,-95,-87,-90,-77,-69,-74,-61,-53,-38,-5,2,6,12,18,6,18,16
2018-05-17,10:30:48.367,28,25,26,28,32,60,109,110,84,37,23,15,10,10,14,12,3,-123,-599,-689,498,1681,1353,-97,-1194,-1210,-609,-200,-3,97,120,122,128,139,142,135,135,149,159,162,189,213,219,237,256,266,277,293,308,285,235,134,-1,-129,-220,-288,-324,-336,-327,-306,-277,-261,-252,-229,-227,-214,-195,-174,-156,-162,-180,-159,-142,-127,-105,-91,-89,-89,-81,-80,-67,-76,-77,-65,-56,-65,-75,-69,-55,-42,-35,-1,38,58,34,3,-19,-38,-42,-45,-53,-72,-66,-166,-637,-682,521,1502,1080,-298,-1247,-1239,-635,-151,53,137,156,173,187,194,194,184,176,196,212,212,218,218
2018-05-17,10:30:49.404,247,295,316,349,364,370,360,332,259,144,0,-131,-223,-271,-295,-313,-292,-269,-265,-248,-230,-238,-230,-206,-166,-127,-106,-99,-86,-66,-41,-27,-36,-28,-28,-32,-24,-17,-24,-33,-40,-17,-12,-3,47,73,57,20,-26,-30,-20,-16,-18,0,-9,-47,-306,-731,-241,1038,1454,668,-607,-1080,-872,-379,-123,-1,51,69,89,88,88,87,78,90,101,130,157,181,205,236,254,277,292,311,321,307,256,154,16,-112,-215,-278,-299,-290,-282,-275,-254,-244,-228,-211,-208,-204,-194,-179,-152,-135,-130,-123,-123,-128,-129,-113,-105,-85,-98,-114,-113,-99,-85,-78,-49,-50,-44,-27,-27,-5
2018-05-17,10:30:50.441,2,0,-1,-8,0,3,26,71,89,56,14,-3,-25,-44,-37,-35,-35,-50,-154,-549,-655,360,1355,1056,-192,-1191,-1232,-619,-144,85,179,200,223,232,238,242,229,239,236,232,235,233,239,272,297,310,324,328,316,308,306,279,175,37,-93,-196,-262,-296,-294,-281,-254,-234,-233,-219,-199,-194,-180,-161,-162,-146,-138,-118,-103,-96,-101,-98,-86,-83,-72,-81,-63,-53,-55,-44,-49,-48,-43,-39,-28,-20,-13,-11,29,78,70,27,-13,-27,-43,-55,-55,-50,-49,-30,-188,-697,-621,683,1590,1050,-407,-1320,-1213,-573,-189,7,100,122,150,149,147,169,156,166,202,205,182,175
2018-05-17,10:30:51.479,234,207,239,264,314,325,303,291,290,237,99,-32,-162,-302,-363,-387,-400,-375,-381,-353,-313,-288,-254,-244,-254,-281,-205,-156,-220,-151,-107,-137,-151,-111,-101,-124,-85,-90,-57,-82,-70,-10,-40,-43,-46,-26,-8,19,86,81,48,54,18,2,-19,6,1,-10,-77,-182,-537,-688,334,1329,1060,-135,-1071,-1103,-601,-158,29,155,192,188,193,189,165,187,182,159,181,189,193,210,195,233,257,253,282,375,363,300,238,144,-14,-146,-161,-202,-246,-274,-262,-277,-324,-152,-97,-190,-181,-100,-108,-153,-145,-149,-50,-54,-120,-37,-13,-78,-87,-13,-28,-46,-13,25,-7,-45,7,14
2018-05-17,10:30:52.516,-66,14,100,97,106,57,0,-64,-94,-38,-34,-50,-106,-99,-173,-598,-483,749,1452,835,-519,-1295,-1110,-499,-170,44,155,152,137,154,158,191,172,102,187,203,212,268,219,166,299,343,308,315,351,371,315,178,85,-14,-227,-349,-292,-313,-321,-318,-331,-287,-277,-273,-193,-159,-154,-172,-160,-132,-136,-132,-114,-74,-58,-61,-69,-37,-30,-52,-66,-65,-91,-111,-76,-92,4,43,-18,-38,8,47,66,32,-7,-45,-69,-66,-57,-83,-33,0,-246,-736,-397,1020,1560,721,-757,-1359,-1089,-474,-41,160,169,161,155,174,164,242,275,213,199,215,207,208,191,193,359,330,371,347
2018-05-17,10:30:53.553,287,353,253,110,133,-31,-181,-272,-282,-287,-369,-310,-233,-186,-194,-211,-169,-158,-181,-185,-142,-131,-129,-148,-138,-106,-120,-165,-94,-18,-35,-68,-81,-33,-29,-66,-92,-58,-30,-48,-8,53,89,33,-37,-50,-80,-107,-73,35,22,-27,-207,-668,-481,739,1383,826,-490,-1228,-1117,-484,-83,34,88,223,236,195,216,197,195,189,191,210,239,247,228,213,265,315,310,260,241,334,319,210,92,-48,-166,-271,-324,-326,-335,-358,-307,-247,-226,-225,-222,-205,-140,-133,-139,-130,-122,-103,-128,-117,-103,-117,-106,-87,-68,-76,-68,-61,-74,-95,-72,-10,-29,-17,57,84,44,-23,-22,-19
2018-05-17,10:30:54.590,-33,12,-14,-22,-15,-93,-432,-653,250,1367,1220,12,-901,-998,-673,-223,4,74,121,189,149,58,146,245,162,69,125,178,265,284,258,265,285,304,291,278,308,278,134,121,94,-84,-239,-281,-296,-321,-334,-286,-280,-273,-222,-232,-205,-176,-168,-142,-141,-161,-166,-148,-135,-111,-109,-112,-89,-90,-81,-41,-64,-98,-93,-5,-5,-54,-39,37,89,44,6,-34,-71,-9,-22,14,-1,-35,-99,-400,-713,20,1304,1317,248,-1019,-1327,-928,-320,-15,189,216,207,228,243,238,232,236,235,241,261,275,270,275,291,297,299,305,300,286,272,225,113,-26,-154,-249,-305,-321,-314,-299
2018-05-17,10:30:55.627,-282,-253,-230,-216,-192,-177,-165,-162,-153,-129,-115,-109,-103,-84,-66,-40,-11,-10,7,19,28,35,13,26,50,55,66,120,122,102,64,22,11,4,-1,-6,-11,-16,-73,-407,-796,-125,1224,1541,602,-704,-1091,-794,-314,-99,31,54,58,66,90,95,106,110,110,114,117,125,143,161,176,193,207,218,228,232,232,190,116,3,-135,-223,-284,-312,-325,-323,-321,-307,-273,-260,-244,-222,-204,-184,-169,-155,-155,-158,-150,-128,-113,-134,-129,-121,-97,-99,-101,-77,-61,-72,-82,-23,23,44,1,-27,-25,-13,-10,-17,-29,-30,-40,-208,-591,-347,729,1226,681,-504,-1057,-948,-430,-71
2018-05-17,10:30:56.664,109,169,169,160,156,150,158,162,157,160,173,198,203,208,217,233,245,263,287,302,306,273,192,62,-54,-165,-236,-266,-267,-252,-237,-220,-198,-180,-162,-157,-135,-120,-110,-109,-97,-88,-81,-69,-63,-66,-54,-48,-45,-54,-45,-43,-30,-31,-26,-26,-18,-22,-14,34,63,55,21,12,-5,-28,-33,-41,-30,-27,-53,-292,-763,-435,948,1659,966,-477,-1161,-1017,-488,-191,-14,36,57,80,85,93,113,117,132,147,164,176,194,217,233,258,273,285,286,293,276,217,114,-15,-162,-274,-335,-358,-375,-360,-330,-319,-293,-254,-237,-233,-232,-219,-213,-193,-184,-164,-132,-122,-112,-105
2018-05-17,10:30:57.702,-95,-84,-62,-51,-62,-64,-48,-28,-28,-4,68,84,58,10,-9,-11,-15,0,-6,-10,-5,-81,-482,-741,251,1502,1366,66,-1117,-1244,-719,-251,-32,84,134,148,155,170,189,201,213,222,230,236,247,265,286,297,320,338,360,371,365,332,254,123,-36,-155,-260,-307,-318,-313,-284,-260,-235,-225,-216,-205,-183,-180,-172,-164,-164,-140,-119,-121,-112,-95,-83,-75,-67,-67,-58,-32,-45,-54,3,36,33,-5,-45,-43,-5,-9,-38,-51,-40,-64,-400,-752,4,1318,1471,388,-871,-1106,-746,-281,-63,46,65,86,103,110,106,113,123,121,129,159,182,228,268,271,258,267,288,307
2018-05-17,10:30:58.739,311,280,211,101,-42,-170,-266,-310,-331,-337,-317,-298,-273,-249,-243,-231,-223,-208,-194,-172,-160,-154,-139,-142,-128,-96,-84,-77,-81,-65,-62,-56,-46,-49,6,63,77,62,23,-5,-6,-12,-18,-20,-21,-31,-189,-626,-538,659,1449,927,-373,-1121,-1038,-502,-143,36,115,136,152,182,196,206,176,178,215,222,223,240,261,286,292,302,312,321,331,324,271,177,65,-66,-163,-231,-271,-275,-273,-255,-248,-230,-219,-217,-205,-191,-179,-161,-151,-147,-123,-122,-114,-105,-94,-84,-87,-82,-63,-65,-62,-24,-7,-12,18,59,35,-8,-24,-46,-41,-39,-48,-38,-42,-54,-299,-745,-330,1055
2018-05-17,10:30:59.776,1576,713,-684,-1206,-956,-413,-122,34,77,90,121,135,155,166,141,126,142,152,168,184,195,225,253,281,298,306,305,278,227,127,-3,-132,-221,-289,-319,-315,-303,-288,-271,-257,-238,-225,-215,-201,-195,-174,-161,-147,-140,-136,-126,-110,-97,-74,-59,-30,-9,-9,13,86,93,60,17,-3,-1,11,7,-16,-29,-35,-118,-522,-698,359,1521,1293,-17,-1094,-1132,-588,-195,2,101,124,138,139,151,159,163,166,178,187,198,203,219,255,272,295,319,334,343,330,304,203,66,-76,-189,-259,-282,-287,-286,-279,-249,-216,-209,-207,-180,-184,-191,-157,-151,-132,-124,-125,-114,-118,-117,-108
2018-05-17,10:31:00.813,-98,-70,-45,-48,-58,11,25,6,-27,-57,-79,-67,-77,-87,-100,-91,-151,-539,-787,149,1399,1315,63,-1162,-1334,-804,-286,-44,89,124,140,162,160,138,127,125,138,154,172,187,208,231,262,288,307,310,323,307,252,169,38,-100,-207,-286,-320,-318,-301,-276,-272,-255,-253,-255,-233,-207,-193,-178,-162,-155,-132,-113,-91,-79,-83,-83,-68,-50,-33,5,62,69,69,21,-3,-12,-14,-18,-18,-27,-29,-103,-442,-624,232,1235,1092,29,-937,-1059,-607,-133,58,179,197,195,203,213,217,216,215,216,226,227,243,251,264,266,280,286,302,307,302,282,212,76,-33,-130,-216,-243
2018-05-17,10:31:01.850,-244,-246,-234,-222,-212,-193,-182,-177,-169,-162,-164,-151,-135,-114,-113,-120,-111,-101,-106,-94,-60,-53,-61,-4,23,38,23,-13,-29,-27,-39,-47,-26,-29,-36,-220,-649,-397,818,1481,867,-380,-1032,-893,-388,-121,-15,43,18,45,110,137,110,137,156,140,137,138,177,207,203,224,263,294,305,287,262,207,104,-28,-135,-254,-356,-332,-321,-345,-328,-279,-287,-282,-258,-215,-190,-183,-180,-175,-153,-158,-168,-157,-114,-82,-48,-48,-71,-72,-36,-85,-92,-22,14,-6,-35,-79,-116,-156,-132,-121,-136,-67,-57,-417,-735,42,1307,1347,201,-1020,-1276,-801,-281,-49,50,73,127,105,82,173
2018-05-17,10:31:02.888,187,215,235,228,213,156,271,292,225,254,395,382,363,355,318,227,60,-140,-179,-268,-257,-247,-263,-270,-273,-302,-279,-187,-180,-228,-229,-117,-99,-117,-93,-75,-66,-67,-59,-58,-49,-50,-43,-45,-46,-22,-16,0,74,100,64,32,22,3,22,25,22,29,23,-82,-497,-567,519,1483,1103,-185,-1120,-1098,-506,-82,108,201,245,262,258,276,278,276,262,258,295,316,323,325,331,338,357,363,379,370,362,333,243,110,-27,-159,-247,-286,-309,-293,-280,-273,-248,-245,-242,-218,-207,-202,-181,-153,-151,-135,-120,-106,-106,-101,-93,-92,-92,-77,-83,-83,-43,0,0,-29,-60,-67
2018-05-17,10:31:03.925,-77,-85,-81,-70,-72,-84,-219,-659,-586,576,1421,1012,-264,-1062,-1009,-508,-173,-27,47,63,80,91,98,108,127,122,125,145,158,160,177,190,204,222,227,244,250,246,212,131,15,-93,-174,-238,-269,-277,-273,-260,-250,-232,-234,-223,-213,-206,-200,-174,-145,-126,-131,-120,-101,-95,-92,-91,-83,-83,-95,-87,-63,-39,-31,25,76,68,28,-5,-37,-49,-66,-71,-59,-55,-100,-442,-801,-47,1294,1535,473,-885,-1248,-852,-309,-82,49,84,104,139,149,145,148,147,159,164,181,194,217,249,280,287,296,298,306,290,254,199,70,-69,-176,-266,-317,-325,-323,-316,-306,-273,-246,-225
2018-05-17,10:31:04.962,-188,-168,-183,-174,-149,-137,-122,-110,-108,-106,-87,-85,-87,-77,-68,-73,-86,-82,-81,-55,-30,-3,68,123,124,75,44,13,-8,-14,0,3,-2,-35,-329,-810,-285,1208,1757,832,-654,-1210,-897,-374,-135,24,71,80,104,117,130,128,136,142,146,164,180,204,219,224,248,267,272,272,266,262,214,115,-6,-122,-213,-263,-302,-308,-297,-277,-259,-240,-226,-206,-202,-190,-170,-164,-145,-163,-173,-162,-130,-104,-84,-82,-76,-60,-45,-65,-63,-43,-66,-55,-4,36,44,43,-2,-49,-81,-82,-70,-62,-61,-114,-478,-683,198,1237,1131,28,-1008,-1184,-736,-196,15,116,134,171,191,183
2018-05-17,10:31:05.999,180,201,197,189,193,202,209,225,235,254,277,283,281,282,274,231,170,91,-11,-114,-169,-185,-217,-232,-233,-212,-195,-186,-187,-180,-156,-130,-140,-134,-115,-114,-113,-95,-93,-98,-94,-70,-62,-57,-51,-5,8,11,27,78,107,94,70,24,5,9,-3,-13,-7,-13,-69,-437,-785,-2,1335,1570,534,-757,-1067,-705,-288,-97,30,59,77,96,90,109,120,115,124,120,137,166,170,181,217,229,238,244,243,233,231,186,105,-3,-103,-199,-264,-280,-279,-280,-272,-259,-254,-243,-224,-203,-184,-162,-145,-144,-147,-140,-128,-110,-121,-113,-92,-61,-58,-89,-97,-78,-54,-45,-62,-85
2018-05-17,10:31:07.036,-78,-8,29,21,-14,-48,-64,-65,-62,-50,-48,-43,-93,-469,-759,111,1377,1370,189,-1061,-1286,-780,-236,3,136,158,163,169,195,195,207,228,251,265,276,283,289,305,315,314,324,328,316,302,265,189,58,-93,-211,-286,-331,-343,-321,-296,-274,-239,-207,-191,-179,-169,-140,-124,-112,-104,-106,-100,-81,-86,-74,-57,-38,-43,-43,-48,-36,-10,-12,-31,-10,44,51,33,-4,-29,-42,-38,-40,-51,-48,-45,-134,-555,-696,324,1426,1279,75,-978,-1078,-651,-249,-62,68,80,87,116,112,114,119,116,123,141,152,168,182,202,224,236,246,266,277,274,254,185,53,-69,-180,-247
2018-05-17,10:31:08.074,-295,-314,-311,-301,-291,-277,-263,-244,-221,-223,-209,-185,-171,-161,-159,-150,-143,-131,-122,-117,-108,-102,-90,-58,-41,-41,15,44,42,22,-6,-21,-22,-15,-12,-21,-21,-47,-301,-609,-104,981,1229,435,-713,-1052,-785,-276,-18,117,145,157,178,190,204,200,180,186,199,201,209,227,236,237,241,243,251,257,275,260,214,117,-3,-96,-180,-225,-252,-270,-242,-214,-192,-173,-160,-128,-130,-129,-117,-105,-107,-110,-101,-74,-56,-56,-49,-54,-41,-36,-47,-61,-39,-20,-15,-9,48,60,22,-2,-21,-45,-28,-33,-30,-35,-25,-145,-619,-705,464,1659,1413,98,-926,-968,-544,-246,-60,33
2018-05-17,10:31:09.111,47,60,76,67,65,75,91,101,116,130,153,169,186,212,249,262,273,280,259,206,117,-12,-144,-243,-322,-349,-339,-333,-328,-308,-287,-277,-257,-263,-265,-248,-226,-202,-182,-162,-152,-139,-120,-93,-80,-78,-62,-62,-43,-19,-14,-10,68,89,61,37,3,4,7,-2,-6,-19,-10,-50,-346,-683,-59,1170,1342,384,-840,-1192,-862,-296,-52,85,132,140,153,152,149,160,159,158,171,187,205,216,254,282,303,324,342,346,336,308,240,139,16,-116,-219,-259,-262,-270,-284,-250,-216,-204,-189,-176,-179,-167,-150,-142,-125,-104,-89,-99,-108,-102,-104,-87,-64,-60,-61,-3,41,41
2018-05-17,10:31:10.148,21,-17,-41,-55,-49,-45,-48,-42,-51,-194,-595,-440,662,1291,794,-367,-1009,-941,-477,-155,9,84,113,124,127,131,143,146,139,164,181,192,207,211,214,235,251,263,280,289,282,246,152,13,-121,-207,-267,-291,-315,-329,-299,-282,-268,-263,-246,-210,-193,-170,-167,-163,-144,-109,-105,-99,-82,-82,-62,-53,-68,-70,-58,-34,-57,-40,25,48,22,-24,-27,-18,-12,-1,-14,-2,-5,-110,-514,-597,450,1471,1199,-48,-1057,-1106,-579,-184,17,96,104,134,136,129,161,162,177,192,200,210,230,253,275,299,319,321,336,344,351,304,198,65,-67,-178,-257,-298,-297,-297,-287,-271
2018-05-17,10:31:11.185,-236,-230,-210,-205,-195,-194,-164,-156,-150,-134,-105,-105,-109,-85,-58,-55,-64,-50,-27,-32,-40,58,64,17,-22,-38,-35,-37,-50,-45,-44,-49,-132,-568,-813,219,1558,1472,138,-1096,-1275,-780,-283,-54,77,104,106,117,131,126,135,152,147,149,147,151,166,194,239,278,302,309,317,295,248,174,52,-101,-229,-310,-354,-353,-352,-335,-305,-285,-255,-240,-224,-207,-189,-172,-157,-152,-142,-124,-120,-109,-89,-85,-82,-81,-40,-38,-52,-6,52,64,19,13,6,-1,3,3,-17,-24,-43,-246,-669,-352,905,1433,714,-597,-1134,-927,-402,-109,36,112,152,163,169,175,178,178,179,192
2018-05-17,10:31:12.222,199,210,231,251,265,277,295,308,308,313,287,245,159,36,-66,-160,-230,-251,-257,-251,-234,-238,-210,-182,-184,-178,-166,-164,-160,-145,-123,-105,-95,-83,-76,-81,-71,-59,-50,-55,-35,8,30,14,-27,-44,-58,-46,-26,-25,-34,-44,-157,-609,-644,493,1487,1150,-133,-1030,-1043,-560,-186,1,81,100,117,136,136,137,133,127,142,150,160,179,194,219,235,249,274,293,304,291,225,120,-12,-138,-244,-314,-343,-339,-334,-318,-288,-258,-241,-216,-207,-201,-174,-160,-135,-133,-121,-110,-104,-90,-97,-87,-78,-79,-74,-53,-41,-20,57,79,65,44,13,-7,-3,0,-9,-17,-35,-127
2018-05-17,10:31:13.260,-587,-737,425,1596,1288,-56,-1072,-1099,-566,-179,19,115,136,153,169,182,181,179,183,186,196,209,218,245,264,272,287,312,323,328,317,287,218,89,-48,-180,-266,-312,-327,-331,-309,-280,-273,-264,-247,-234,-231,-215,-207,-184,-156,-141,-137,-117,-104,-90,-78,-78,-85,-72,-48,-24,-39,8,57,40,5,-16,-44,-62,-61,-67,-65,-56,-66,-263,-780,-463,1024,1715,910,-587,-1223,-999,-435,-149,-5,54,71,99,125,133,144,148,143,160,176,188,198,219,245,274,293,287,278,289,281,225,108,-20,-153,-246,-314,-351,-342,-306,-294,-269,-256,-238,-227,-225,-196,-169,-165,-149,-141,-138
2018-05-17,10:31:14.297,-125,-114,-99,-72,-47,-38,-15,3,13,59,69,53,23,-21,-45,-50,-48,-49,-62,-63,-106,-411,-695,62,1232,1236,255,-829,-1044,-691,-219,-16,92,124,154,176,168,168,158,165,179,191,189,208,219,244,262,277,295,298,307,307,266,203,100,-20,-108,-191,-249,-261,-248,-242,-238,-222,-200,-189,-185,-175,-162,-137,-128,-115,-102,-91,-88,-79,-76,-71,-75,-75,-41,-54,-59,19,48,39,6,-30,-58,-59,-53,-62,-72,-73,-89,-350,-754,-230,1129,1513,607,-762,-1215,-901,-356,-106,56,102,111,121,136,150,144,144,150,159,170,188,203,241,263,295,307,284,290,295,273,198
2018-05-17,10:31:15.334,61,-72,-198,-293,-337,-359,-347,-319,-296,-269,-256,-250,-229,-226,-211,-194,-182,-162,-142,-123,-114,-104,-96,-84,-90,-73,-34,-19,-18,14,87,89,49,28,5,-14,-28,-20,-6,0,-17,-178,-645,-596,678,1644,1116,-336,-1230,-1100,-491,-153,49,139,171,185,191,194,199,198,205,207,229,234,240,255,281,301,311,317,320,315,313,256,160,45,-110,-221,-276,-304,-326,-319,-288,-282,-269,-253,-236,-222,-211,-198,-194,-169,-139,-124,-113,-115,-102,-98,-80,-82,-59,-43,-44,-20,47,44,18,-14,-49,-75,-77,-68,-44,-28,-29,-157,-593,-641,477,1433,1075,-214,-1118,-1121,-627,-217,-27,67
2018-05-17,10:31:16.371,88,111,130,134,152,163,170,174,192,194,191,207,230,260,278,277,273,279,268,217,120,1,-110,-193,-254,-274,-287,-268,-253,-240,-232,-208,-204,-193,-180,-163,-133,-103,-98,-94,-76,-62,-67,-72,-56,-47,-49,-17,43,46,6,-36,-59,-72,-68,-67,-60,-52,-49,-176,-581,-510,598,1435,1031,-191,-984,-930,-443,-125,34,101,117,129,156,146,171,174,164,185,209,234,236,249,261,278,283,275,273,283,249,219,127,-6,-114,-200,-262,-274,-280,-278,-268,-238,-224,-221,-191,-184,-194,-171,-161,-146,-133,-118,-110,-107,-92,-88,-80,-62,-69,-45,-51,-62,18,63,36,-20,-40,-53
2018-05-17,10:31:17.408,-55,-58,-55,-45,-34,-96,-480,-779,61,1362,1437,239,-1022,-1250,-749,-271,-59,68,103,110,110,129,147,139,133,155,178,181,202,225,265,296,298,317,333,341,339,302,204,71,-53,-179,-270,-310,-315,-300,-271,-259,-249,-220,-210,-203,-179,-162,-165,-172,-173,-165,-160,-167,-164,-136,-111,-94,-74,-54,-46,9,40,45,2,-28,-41,-31,-20,-36,-31,-30,-97,-546,-833,205,1593,1541,212,-1019,-1157,-680,-254,-32,89,108,116,133,140,148,156,163,171,175,187,192,210,232,256,270,279,279,277,274,240,150,35,-99,-200,-252,-283,-303,-291,-275,-265,-234,-222,-203,-193,-183,-176,-171
2018-05-17,10:31:18.445,-143,-139,-122,-112,-100,-76,-89,-92,-72,-49,-40,-7,45,53,37,0,-36,-46,-43,-44,-58,-39,-53,-214,-714,-590,764,1607,1028,-391,-1085,-955,-443,-136,5,79,102,107,99,123,131,123,136,153,175,177,195,195,214,236,244,262,266,242,223,179,87,-26,-144,-214,-267,-284,-270,-245,-232,-216,-199,-173,-179,-181,-171,-158,-144,-138,-141,-156,-134,-99,-112,-108,-93,-88,-77,-4,27,13,-23,-40,-34,-25,-17,-31,-39,-40,-99,-475,-743,120,1391,1441,308,-871,-1017,-618,-216,-38,68,91,109,135,138,142,169,175,168,171,172,190,198,202,224,255,285,287,281,267,244,162
2018-05-17,10:31:19.483,55,-72,-156,-228,-254,-258,-254,-244,-232,-219,-196,-181,-178,-166,-148,-138,-125,-117,-120,-116,-109,-95,-91,-91,-76,-66,-50,6,53,38,-3,-41,-60,-73,-74,-72,-64,-53,-75,-393,-844,-224,1314,1760,679,-879,-1380,-969,-355,-93,76,86,120,151,146,164,176,181,177,189,208,221,235,270,279,287,307,317,324,304,267,191,52,-76,-203,-301,-333,-351,-329,-315,-284,-265,-240,-214,-191,-194,-173,-170,-163,-148,-149,-146,-137,-118,-109,-114,-101,-87,-69,5,41,28,-10,-36,-43,-41,-18,-19,-16,-31,-66,-389,-820,-177,1295,1689,643,-787,-1196,-823,-316,-82,66,118,126,144,158,170
2018-05-17,10:31:20.520,172,161,168,182,188,200,217,220,240,257,249,251,270,275,247,175,59,-53,-172,-252,-277,-282,-284,-274,-260,-228,-214,-208,-197,-166,-145,-136,-122,-113,-99,-94,-120,-106,-65,-49,-85,-59,9,17,-17,-45,-50,-54,-40,-25,-28,-53,-73,-230,-650,-487,711,1375,841,-394,-1040,-937,-473,-159,0,69,86,99,112,119,119,120,142,140,165,184,197,202,210,232,242,243,255,264,241,173,68,-46,-138,-203,-241,-255,-231,-223,-224,-211,-189,-184,-171,-170,-162,-125,-104,-100,-95,-95,-84,-70,-60,-49,-49,-33,32,61,36,-10,-24,-26,-29,-33,-32,-21,-21,-91,-513,-700,337,1510
2018-05-17,10:31:21.557,1333,57,-1018,-1081,-574,-208,-3,80,94,100,109,138,146,132,130,147,162,169,193,218,234,239,236,252,267,268,262,211,103,-16,-140,-213,-279,-304,-310,-294,-278,-265,-243,-218,-206,-207,-188,-176,-157,-144,-127,-113,-100,-98,-95,-71,-37,-55,-66,19,59,38,-10,-48,-68,-55,-33,-36,-39,-51,-86,-402,-830,-126,1359,1629,453,-1042,-1435,-943,-315,-54,109,153,161,185,201,189,189,201,206,212,221,245,271,297,305,329,344,348,346,333,289,186,41,-127,-248,-333,-374,-386,-375,-346,-322,-301,-278,-256,-246,-223,-209,-185,-159,-138,-132,-123,-118,-96,-70,-66,-63,0,75,67
2018-05-17,10:31:22.594,16,-21,-42,-53,-34,-46,-54,-54,-73,-320,-757,-310,1046,1529,666,-708,-1183,-879,-331,-53,85,126,130,147,164,176,188,181,188,197,229,234,249,260,274,286,295,304,304,293,258,180,66,-67,-170,-230,-273,-286,-282,-265,-257,-233,-208,-192,-169,-164,-161,-150,-144,-117,-120,-124,-114,-92,-71,-76,-65,-1,26,2,-24,-37,-49,-50,-57,-56,-52,-41,-135,-543,-618,446,1442,1166,-50,-935,-965,-551,-184,-9,75,89,102,104,106,104,121,130,155,172,190,201,208,225,234,242,264,270,267,264,213,109,-22,-138,-209,-263,-284,-289,-276,-279,-271,-252,-227,-202,-193,-200,-178,-152
2018-05-17,10:31:23.631,-151,-126,-118,-90,-90,-73,-51,-47,-30,29,57,30,-3,-29,-54,-62,-66,-64,-59,-49,-85,-419,-812,-106,1364,1663,522,-877,-1205,-735,-286,-65,60,86,106,118,127,129,153,164,152,166,187,211,242,254,266,275,306,318,313,300,263,185,32,-106,-192,-270,-294,-315,-301,-283,-268,-246,-237,-235,-207,-188,-179,-161,-141,-139,-126,-115,-94,-83,-57,-55,-60,25,62,53,7,-31,-38,-31,-44,-76,-69,-49,-110,-499,-807,95,1495,1518,216,-1097,-1298,-730,-234,11,116,133,153,159,159,154,141,143,154,165,174,186,210,235,254,278,301,307,303,290,246,154,12,-118,-215,-298
2018-05-17,10:31:24.669,-337,-329,-318,-300,-290,-274,-238,-219,-172,-117,-53,-13,-50,-80,-112,-131,-99,-133,-148,-71,16,12,-24,-59,-90,-162,-123,-181,-191,-342,-372,-290,-605,-427,780,1464,881,-417,-1070,-945,-439,-104,59,119,147,177,177,177,176,174,190,193,214,200,225,255,271,286,315,339,331,317,303,239,121,3,-87,-165,-214,-229,-235,-234,-228,-220,-205,-192,-191,-182,-171,-148,-133,-136,-114,-109,-120,-85,-68,-63,-6,28,27,-7,-46,-65,-53,-40,-45,-35,-41,-64,-366,-723,-72,1217,1464,508,-745,-1063,-713,-282,-61,64,93,110,120,135,135,130,144,141,137,122,150,189,198,218,252,282
2018-05-17,10:31:25.706,296,292,294,256,150,12,-124,-223,-276,-308,-341,-345,-333,-309,-298,-273,-251,-234,-215,-211,-198,-171,-161,-138,-117,-116,-101,-76,-83,-67,10,33,22,-14,-52,-66,-54,-31,-19,-23,-3,-96,-509,-662,381,1534,1269,-41,-1133,-1165,-581,-177,42,135,142,151,151,150,158,161,179,201,220,231,234,251,270,297,339,356,355,355,309,262,159,10,-128,-222,-276,-298,-307,-312,-290,-252,-242,-231,-225,-211,-198,-188,-174,-165,-156,-135,-123,-115,-114,-89,-80,-66,-16,23,22,-14,-38,-74,-72,-59,-70,-68,-65,-97,-418,-756,-9,1333,1507,373,-920,-1205,-791,-295,-62,65,105,127,137,149
2018-05-17,10:31:26.743,170,161,170,187,189,193,186,173,183,205,230,260,285,290,289,236,138,18,-108,-205,-266,-307,-339,-328,-303,-281,-259,-243,-222,-204,-201,-173,-146,-127,-102,-94,-100,-93,-59,-60,-65,-9,35,35,11,-22,-59,-62,-37,-21,-10,-5,-10,-240,-634,-183,1053,1428,628,-578,-953,-717,-303,-96,18,43,55,74,71,69,82,85,103,128,135,159,166,169,205,228,240,266,279,275,236,162,69,-37,-143,-205,-230,-245,-250,-230,-207,-197,-184,-173,-171,-167,-153,-135,-127,-109,-83,-74,-72,-68,-58,-54,-59,-8,45,44,20,-8,-35,-38,-15,-22,-29,-38,-51,-277,-683,-232,1037,1457
2018-05-17,10:31:27.780,613,-679,-1124,-798,-319,-76,53,86,80,98,130,142,152,161,165,176,187,200,212,229,239,253,279,281,292,320,270,170,38,-96,-201,-269,-307,-319,-326,-326,-302,-313,-308,-285,-265,-244,-239,-213,-189,-160,-148,-136,-112,-96,-87,-74,-45,-39,-43,22,49,41,0,-38,-55,-47,-44,-36,-16,-12,-100,-526,-664,457,1641,1323,-94,-1178,-1194,-622,-215,-5,80,104,119,125,118,116,132,155,172,190,221,245,268,277,307,330,347,352,352,331,277,168,24,-102,-209,-274,-317,-327,-316,-306,-265,-242,-247,-239,-219,-211,-211,-201,-183,-165,-141,-127,-125,-132,-118,-74,-70,-68,1,38
2018-05-17,10:31:28.817,39,7,-24,-49,-51,-34,-25,-34,-39,-114,-489,-655,294,1416,1263,56,-974,-1062,-633,-190,-15,68,96,116,130,142,142,155,168,171,178,190,210,210,226,243,243,251,266,260,252,221,140,29,-88,-185,-252,-298,-310,-285,-275,-269,-256,-236,-212,-197,-182,-168,-159,-148,-133,-111,-100,-90,-72,-53,-48,-32,28,55,32,-6,-39,-45,-27,-27,-32,-28,-41,-147,-511,-511,493,1325,992,-129,-920,-928,-505,-138,49,111,132,146,151,156,153,155,156,154,152,160,187,212,238,259,270,290,293,286,272,225,130,5,-120,-203,-258,-273,-272,-267,-243,-234,-226,-207,-198,-173,-156,-165
2018-05-17,10:31:29.855,-154,-137,-129,-114,-102,-93,-80,-85,-54,-49,-61,-32,40,36,4,-22,-47,-49,-44,-41,-33,-30,-32,-210,-700,-524,845,1659,990,-420,-1187,-1025,-468,-145,26,76,93,104,117,132,136,149,164,175,199,210,220,239,252,276,293,309,309,298,275,218,99,-57,-181,-272,-337,-367,-372,-354,-334,-310,-294,-276,-269,-250,-229,-189,-163,-152,-137,-119,-107,-96,-65,-69,-71,-47,-29,-40,34,68,51,22,-14,-38,-27,-9,-14,-6,-4,-50,-374,-773,-68,1371,1581,428,-1008,-1364,-882,-316,-50,108,131,135,134,141,135,147,157,178,193,203,218,235,260,271,302,319,314,329,307,279
2018-05-17,10:31:30.892,210,89,-45,-151,-240,-293,-313,-310,-303,-285,-264,-251,-236,-218,-204,-185,-165,-148,-143,-120,-104,-97,-93,-97,-74,-70,-50,-36,-51,-17,28,50,34,8,-24,-30,-26,-31,-23,-21,-22,-215,-649,-381,884,1571,924,-454,-1091,-923,-413,-129,36,99,108,101,112,104,113,117,119,119,142,164,179,213,225,224,227,233,254,274,259,226,137,20,-104,-198,-266,-292,-307,-303,-292,-287,-261,-240,-221,-190,-168,-145,-132,-102,-80,-74,-80,-74,-77,-65,-46,-12,-28,-3,72,82,62,5,-24,-23,-31,-39,-31,-36,-55,-268,-677,-402,790,1420,799,-468,-1111,-959,-447,-137,42,87,99,110
2018-05-17,10:31:31.929,126,132,137,139,129,140,156,176,186,214,241,255,271,271,271,265,245,204,125,4,-96,-177,-229,-265,-259,-258,-251,-246,-228,-215,-215,-209,-187,-172,-156,-148,-137,-114,-106,-96,-86,-81,-65,-54,-54,-44,-27,-13,-12,56,70,49,6,-15,-42,-45,-36,-40,-50,-41,-80,-418,-826,-126,1321,1616,488,-940,-1348,-916,-349,-66,96,126,122,127,145,151,166,162,171,195,226,227,228,239,262,290,305,300,295,283,274,215,98,-41,-183,-280,-329,-344,-332,-327,-322,-308,-285,-255,-235,-230,-221,-192,-174,-159,-143,-115,-92,-71,-57,-51,-40,-31,-37,-32,-27,-34,-28,-29,-26,45
2018-05-17,10:31:32.966,67,48,21,0,-31,-45,-46,-43,-28,-37,-141,-587,-703,412,1555,1279,-84,-1162,-1179,-600,-174,14,115,141,147,151,152,190,188,194,188,193,192,195,212,229,247,256,266,261,244,241,213,136,48,-59,-167,-218,-268,-274,-265,-268,-256,-245,-240,-241,-223,-206,-177,-157,-141,-123,-101,-86,-75,-75,-83,-86,-72,-71,-67,-39,-36,-35,7,50,40,2,-24,-15,-16,-17,-25,-28,-32,-108,-477,-659,228,1291,1241,138,-907,-1044,-659,-231,-35,56,60,76,98,111,116,125,127,132,150,158,171,177,200,231,243,247,240,238,239,214,153,59,-58,-153,-215,-237,-257,-253,-234,-244
2018-05-17,10:31:34.003,-234,-233,-206,-182,-166,-135,-118,-109,-87,-68,-45,-41,-36,-35,-38,-45,-57,-32,-6,-31,-6,26,26,-8,-33,-48,-52,-52,-55,-39,-39,-51,-305,-752,-321,1020,1573,767,-635,-1203,-897,-375,-104,61,106,124,128,146,149,158,161,174,174,175,188,206,222,234,232,238,249,261,260,222,178,79,-33,-137,-226,-264,-276,-278,-256,-248,-232,-224,-217,-192,-174,-166,-154,-132,-135,-104,-86,-83,-107,-102,-91,-79,-71,-63,-51,-45,-33,-12,-1,53,71,52,7,-19,-39,-64,-62,-61,-52,-51,-117,-543,-865,82,1494,1563,263,-1138,-1391,-843,-290,-31,100,124,137,145,162,169,157,173
2018-05-17,10:31:35.040,192,197,205,229,243,260,274,292,288,294,282,253,231,141,22,-99,-209,-294,-332,-335,-327,-300,-276,-259,-241,-209,-182,-160,-161,-155,-154,-132,-111,-94,-100,-105,-101,-87,-81,-79,-86,-65,-50,-46,-10,40,58,36,-8,-30,-25,-17,-19,-15,-16,-12,-177,-646,-531,680,1526,1074,-274,-1041,-936,-440,-98,58,124,132,140,141,138,145,161,138,138,146,148,164,189,210,219,223,217,214,204,189,162,100,3,-83,-153,-199,-207,-211,-206,-208,-214,-200,-203,-174,-162,-146,-124,-132,-128,-101,-93,-92,-80,-81,-84,-71,-46,-35,-35,18,44,39,4,-34,-30,-37,-47,-36,-14,-23
2018-05-17,10:31:36.078,-52,-335,-796,-266,1111,1523,563,-866,-1322,-1005,-401,-79,80,118,144,183,193,176,182,200,209,226,233,244,244,250,283,295,295,297,297,281,252,176,72,-50,-148,-231,-294,-303,-293,-289,-273,-245,-214,-201,-209,-189,-163,-142,-147,-141,-121,-116,-121,-104,-98,-93,-81,-56,-47,-42,-29,-28,0,55,80,64,17,-3,-21,-33,-25,-12,-9,-18,-117,-638,-819,423,1764,1547,77,-1097,-1136,-596,-220,-15,81,99,105,124,119,113,122,133,152,172,178,180,214,229,241,248,266,265,256,245,207,129,22,-89,-189,-256,-295,-295,-296,-288,-265,-247,-233,-217,-196,-186,-158,-165,-128,-112
2018-05-17,10:31:37.115,-116,-107,-98,-89,-64,-54,-52,-52,-60,-35,-25,-34,-10,37,39,15,-4,-27,-46,-41,-58,-69,-66,-62,-135,-577,-781,299,1470,1278,-22,-1100,-1200,-687,-207,21,132,141,145,157,165,182,182,178,165,173,185,203,222,227,247,257,246,241,246,239,198,146,61,-57,-163,-223,-250,-272,-284,-260,-267,-246,-231,-237,-234,-218,-189,-169,-157,-146,-135,-108,-83,-73,-75,-76,-72,-58,-41,-42,-12,30,42,30,-5,-25,-16,-11,-20,-19,-33,-36,-140,-583,-574,596,1508,1077,-222,-959,-893,-439,-129,32,104,114,122,125,135,143,152,152,161,169,173,175,198,208,222,231,218,226
2018-05-17,10:31:38.152,226,221,170,96,5,-87,-165,-219,-242,-262,-265,-254,-244,-226,-203,-182,-166,-154,-153,-121,-98,-91,-83,-73,-61,-68,-51,-38,-39,-60,-71,-39,-23,-18,34,64,54,-3,-45,-60,-67,-71,-66,-80,-75,-96,-391,-820,-180,1268,1585,525,-912,-1335,-906,-303,-18,137,164,169,184,192,187,190,176,194,204,207,239,246,269,317,324,322,316,303,282,258,171,47,-84,-199,-280,-324,-356,-361,-346,-330,-312,-308,-293,-266,-256,-241,-222,-210,-198,-172,-157,-132,-128,-117,-118,-116,-108,-98,-102,-70,-74,-64,6,49,53,3,-25,-16,-19,-29,-11,-4,1,-16,-276,-753,-319,1104,1624,751
2018-05-17,10:31:39.189,-701,-1132,-834,-315,-72,65,119,130,150,155,160,168,177,184,188,182,184,199,215,220,240,262,260,266,260,237,172,84,-29,-128,-198,-245,-260,-266,-261,-248,-245,-235,-224,-212,-200,-191,-189,-175,-160,-153,-117,-101,-99,-90,-97,-124,-101,-72,-83,-75,8,25,29,0,-36,-33,-16,-30,-25,-15,-18,-37,-301,-663,-161,1002,1306,506,-696,-1024,-784,-280,-49,79,121,141,141,162,150,156,174,191,194,200,184,195,223,244,257,262,262,259,229,186,130,18,-104,-198,-255,-286,-297,-279,-256,-250,-228,-209,-199,-190,-174,-168,-161,-156,-139,-117,-119,-111,-110,-93,-83,-60,-60,-83
2018-05-17,10:31:40.226,-58,-34,-37,-7,51,83,62,14,-12,1,31,23,3,-1,-16,-151,-560,-514,625,1527,1097,-161,-979,-945,-466,-139,38,96,102,136,128,129,148,159,158,159,173,196,200,225,244,253,273,291,296,303,296,255,162,10,-129,-225,-289,-335,-341,-323,-316,-301,-286,-267,-257,-243,-230,-225,-195,-171,-150,-153,-154,-133,-103,-81,-69,-62,-64,-62,-38,-51,-18,45,50,31,-19,-43,-20,-27,-37,-23,-28,-43,-105,-516,-731,287,1520,1339,29,-1157,-1309,-723,-192,51,163,172,170,167,162,164,163,165,177,177,184,200,226,252,257,273,279,269,262,257,217,124,-6,-124,-235,-287
2018-05-17,10:31:41.264,-305,-308,-306,-278,-261,-254,-240,-224,-206,-202,-179,-154,-130,-107,-93,-83,-58,-53,-68,-70,-56,-40,-21,-22,-33,9,38,39,8,-33,-31,-31,-23,-16,-35,-32,-56,-319,-683,-171,1029,1362,559,-644,-1033,-795,-320,-79,59,96,110,116,116,125,125,133,134,141,171,182,200,226,241,250,262,263,256,228,180,107,3,-103,-179,-231,-255,-264,-260,-234,-225,-223,-202,-188,-185,-165,-150,-150,-151,-128,-111,-98,-101,-88,-72,-72,-70,-46,-62,-62,6,55,55,27,-10,-36,-22,-24,-33,-26,-20,-24,-299,-648,-97,1054,1324,523,-608,-995,-768,-317,-67,71,106,117,121,134,150,151
2018-05-17,10:31:42.301,145,155,170,179,192,207,220,239,257,271,280,267,250,209,135,31,-82,-154,-216,-255,-263,-249,-227,-223,-216,-205,-185,-178,-177,-148,-132,-131,-118,-110,-101,-97,-91,-76,-67,-72,-63,-54,-30,-26,-33,12,48,58,24,-13,-26,-29,-27,-27,-37,-38,-49,-279,-724,-378,971,1605,847,-555,-1239,-968,-417,-120,42,87,98,128,151,148,147,146,140,158,176,183,200,228,263,288,285,285,293,284,240,150,33,-96,-206,-300,-335,-344,-323,-316,-314,-297,-295,-278,-244,-219,-198,-179,-156,-145,-152,-131,-107,-102,-91,-79,-79,-82,-77,-55,-71,-63,2,50,40,0,-37,-14,11,13
2018-05-17,10:31:43.338,12,14,3,-46,-425,-804,18,1377,1424,222,-1055,-1296,-804,-270,-16,123,138,150,172,179,176,188,210,200,208,224,230,233,249,285,291,321,324,317,308,267,163,44,-87,-168,-232,-270,-269,-270,-269,-233,-223,-220,-213,-221,-197,-172,-166,-141,-137,-136,-126,-112,-98,-85,-78,-55,-32,-37,-27,18,43,29,10,-33,-59,-43,-42,-54,-40,-35,-72,-393,-721,5,1222,1347,339,-816,-1051,-710,-259,-45,72,92,100,107,108,113,108,112,139,153,167,177,193,204,214,218,242,261,247,222,168,78,-17,-97,-184,-238,-260,-256,-260,-250,-225,-205,-199,-198,-169,-161,-156,-137,-116,-108
2018-05-17,10:31:44.375,-93,-78,-59,-72,-84,-86,-75,-45,-59,-62,16,47,28,-7,-20,-30,-38,-41,-35,-29,-39,-79,-423,-690,185,1405,1358,210,-922,-1082,-660,-242,-35,62,86,109,127,134,132,144,174,178,173,184,209,224,247,275,275,265,275,277,255,223,137,16,-114,-195,-233,-262,-261,-257,-258,-232,-220,-211,-189,-187,-183,-156,-128,-131,-128,-120,-116,-91,-78,-79,-57,-46,-53,-47,-37,-13,0,-7,44,96,85,43,11,-18,-36,-34,-40,-50,-40,-55,-273,-798,-518,1019,1835,1006,-596,-1292,-1040,-461,-171,2,58,75,103,118,105,114,128,138,162,187,201,210,240,260,281,300,282,277
2018-05-17,10:31:45.412,255,218,144,30,-96,-217,-283,-320,-324,-319,-303,-284,-272,-255,-240,-227,-210,-195,-177,-157,-134,-119,-107,-111,-103,-98,-66,-61,-40,-34,-32,0,58,85,60,16,-11,-25,-31,-34,-41,-31,-26,-129,-538,-689,339,1413,1157,-65,-1047,-1094,-591,-153,41,141,146,144,149,164,172,170,182,187,201,213,226,240,275,279,281,291,277,261,238,183,82,-24,-127,-194,-236,-240,-248,-245,-218,-199,-198,-201,-183,-158,-155,-142,-133,-125,-98,-88,-87,-79,-70,-52,-48,-44,-46,-57,-21,31,49,34,-5,-38,-42,-27,-21,-9,-12,-25,-76,-411,-661,140,1282,1288,250,-864,-1078,-719,-266,-59
2018-05-17,10:31:46.450,49,75,81,95,103,107,114,124,121,143,171,171,175,198,224,236,239,257,254,231,183,87,-48,-153,-219,-256,-273,-279,-269,-251,-237,-211,-200,-202,-183,-170,-157,-147,-136,-112,-102,-81,-59,-46,-21,-16,-24,-22,-31,-46,-42,-32,-40,-29,26,56,37,-23,-34,-42,-56,-47,-45,-40,-40,-93,-453,-788,6,1400,1582,437,-929,-1237,-737,-276,-63,71,101,138,166,165,172,178,186,197,195,195,198,213,256,273,276,281,278,278,256,205,146,20,-110,-204,-258,-276,-281,-273,-255,-229,-212,-202,-190,-184,-179,-161,-157,-140,-120,-97,-83,-80,-82,-82,-83,-79,-73,-75,-77,-61
2018-05-17,10:31:47.487,-40,-39,-39,32,64,40,2,-20,-45,-63,-63,-58,-77,-85,-169,-588,-866,119,1470,1470,195,-1098,-1276,-772,-278,-75,41,84,98,125,150,159,161,180,178,185,209,236,255,253,268,270,266,257,245,213,158,63,-60,-144,-213,-240,-248,-259,-241,-202,-194,-190,-200,-196,-171,-160,-156,-142,-129,-122,-115,-102,-105,-102,-91,-86,-73,-47,-41,-37,5,29,49,23,-11,-33,-24,-16,-12,-16,-14,-21,-239,-653,-316,892,1427,748,-492,-962,-781,-342,-91,52,97,94,115,112,116,107,123,130,141,145,144,189,194,183,201,204,205,197,179,142,85,3,-68,-124,-167,-186,-189,-190
2018-05-17,10:31:48.524,-189,-185,-168,-159,-156,-146,-139,-134,-115,-109,-111,-100,-77,-61,-60,-63,-55,-20,-6,-10,1,8,-3,27,53,59,42,3,-29,-39,-39,-41,-48,-74,-85,-294,-735,-434,829,1467,795,-536,-1170,-986,-421,-107,50,92,112,135,149,146,156,142,149,172,168,168,174,200,230,249,280,275,288,277,235,162,54,-86,-193,-241,-272,-281,-288,-269,-265,-272,-242,-212,-219,-205,-176,-146,-116,-92,-86,-79,-81,-84,-70,-64,-69,-66,-65,-47,-30,-38,8,68,90,68,19,10,18,22,9,8,-10,-31,-153,-636,-700,509,1632,1288,-85,-1097,-1105,-569,-208,-14,83,107,117,118,130,142
2018-05-17,10:31:49.561,139,158,166,170,181,194,220,247,284,307,321,313,294,255,179,61,-73,-183,-246,-287,-312,-300,-284,-275,-251,-239,-242,-230,-212,-209,-208,-199,-194,-184,-157,-142,-132,-132,-111,-116,-119,-115,-97,-69,-67,-22,45,40,19,-22,-43,-49,-43,-30,-23,-19,-33,-162,-641,-582,663,1544,1003,-390,-1191,-1090,-522,-129,59,141,152,170,193,181,170,189,200,212,216,237,257,292,312,324,314,308,301,278,229,137,20,-87,-189,-249,-283,-293,-273,-267,-249,-214,-194,-185,-164,-159,-154,-137,-122,-109,-92,-83,-92,-79,-69,-62,-64,-44,-41,-23,26,56,61,40,14,-8,-16,-22,-16,-26
2018-05-17,10:31:50.598,-47,-70,-316,-709,-243,971,1366,611,-562,-953,-762,-322,-71,36,55,59,74,86,101,101,112,124,126,144,145,170,185,205,230,233,231,227,212,170,70,-53,-141,-202,-226,-232,-226,-205,-190,-181,-167,-156,-164,-166,-160,-133,-135,-133,-118,-91,-87,-101,-94,-93,-98,-93,-65,-47,-34,0,26,31,-2,-38,-60,-57,-40,-39,-52,-43,-43,-212,-678,-483,789,1479,859,-461,-1155,-984,-428,-114,51,101,116,133,139,146,142,154,165,172,190,188,214,259,279,296,311,307,302,290,251,137,0,-111,-190,-241,-273,-286,-274,-250,-238,-231,-221,-216,-209,-176,-158,-157,-144,-125,-105,-106
2018-05-17,10:31:51.635,-96,-77,-68,-61,-63,-59,-25,-20,-13,47,101,95,36,5,-8,3,14,5,-9,-10,-53,-379,-815,-140,1342,1679,596,-823,-1195,-783,-322,-85,44,79,103,116,123,134,139,141,154,169,179,199,223,239,265,306,318,318,328,298,226,103,-54,-182,-258,-291,-303,-303,-296,-288,-273,-257,-236,-237,-233,-232,-222,-223,-215,-192,-164,-160,-155,-148,-143,-137,-122,-88,-91,-70,-13,7,6,-35,-79,-69,-55,-55,-42,-38,-41,-59,-377,-779,-93,1288,1462,360,-980,-1290,-844,-258,-12,127,162,170,183,196,203,213,223,228,235,233,257,292,311,311,319,316,324,311,262,177,52,-79
2018-05-17,10:31:52.673,-197,-258,-281,-291,-286,-261,-247,-219,-202,-193,-175,-163,-151,-148,-134,-130,-113,-86,-66,-55,-60,-59,-38,-28,-29,25,66,73,55,35,9,-12,-22,-21,-26,-30,-25,-149,-563,-537,530,1374,1010,-142,-907,-882,-465,-153,-4,69,92,98,101,115,105,107,118,130,150,172,190,200,225,243,257,254,253,229,180,104,-16,-108,-177,-216,-226,-236,-236,-232,-230,-219,-187,-172,-169,-167,-163,-150,-148,-141,-137,-125,-103,-102,-95,-95,-85,-82,-69,-38,-4,5,-19,-64,-81,-69,-50,-47,-49,-35,-40,-265,-676,-292,939,1407,669,-593,-1113,-875,-352,-66,78,126,131,131,141,155,161,166
2018-05-17,10:31:53.710,182,205,214,220,219,245,286,322,340,332,305,265,185,64,-66,-171,-242,-285,-308,-310,-290,-269,-237,-216,-194,-165,-165,-140,-133,-127,-118,-106,-102,-91,-78,-58,-49,-47,-27,5,5,-7,26,78,92,83,43,12,23,18,8,4,3,-16,-236,-736,-381,1058,1773,973,-471,-1105,-848,-339,-65,100,142,159,169,185,188,193,207,206,215,213,239,267,296,317,345,365,372,363,343,255,115,-33,-165,-231,-272,-296,-311,-306,-286,-269,-253,-242,-237,-222,-218,-209,-189,-186,-174,-150,-138,-139,-138,-143,-130,-105,-95,-79,-16,14,-4,-60,-95,-99,-77,-76,-83,-75,-75,-105,-409,-820
2018-05-17,10:31:54.747,-124,1208,1347,290,-958,-1245,-852,-303,-35,93,117,125,144,142,152,162,172,203,232,240,257,264,279,294,343,342,335,319,275,178,39,-90,-205,-281,-333,-346,-331,-317,-302,-273,-240,-220,-193,-172,-154,-145,-135,-117,-96,-93,-81,-75,-60,-57,-53,-13,-8,-1,66,98,99,67,26,20,27,24,19,27,13,-37,-346,-623,78,1196,1274,351,-736,-941,-622,-209,-11,82,106,118,128,126,126,139,152,163,168,181,203,214,221,239,253,273,281,268,232,175,77,-41,-144,-197,-229,-237,-235,-216,-201,-176,-141,-132,-133,-137,-139,-130,-128,-124,-116,-110,-99,-93,-91,-81,-75,-81
2018-05-17,10:31:55.784,-60,-52,-48,8,46,48,10,-27,-62,-66,-55,-44,-49,-41,-86,-425,-723,39,1285,1360,263,-1000,-1284,-798,-278,-15,100,117,128,137,139,147,177,201,193,211,230,253,275,288,296,305,311,303,294,253,161,45,-95,-218,-290,-322,-333,-339,-319,-306,-280,-264,-253,-229,-200,-189,-178,-164,-160,-152,-148,-144,-130,-108,-99,-93,-55,-33,-50,-7,43,50,23,-18,-43,-23,-22,-30,-21,-33,-52,-285,-788,-454,992,1720,913,-572,-1242,-965,-413,-139,32,71,80,99,123,106,104,106,120,143,176,190,216,250,285,291,300,300,306,279,197,68,-75,-189,-259,-305,-323,-322,-318,-307
2018-05-17,10:31:56.821,-297,-286,-273,-264,-249,-230,-209,-196,-171,-161,-163,-167,-156,-140,-133,-99,-82,-79,-19,26,36,9,-61,-83,-78,-87,-83,-76,-55,-72,-299,-723,-325,940,1399,623,-645,-1141,-907,-374,-77,90,135,138,133,152,173,188,195,196,207,218,225,237,249,268,282,293,296,274,234,178,70,-52,-153,-231,-267,-292,-295,-275,-240,-222,-209,-191,-181,-160,-157,-146,-138,-121,-113,-108,-94,-73,-65,-64,-46,-32,-32,5,50,54,31,-13,-42,-28,-23,-36,-34,-25,-39,-239,-676,-336,907,1404,718,-485,-987,-802,-351,-88,51,95,103,108,123,115,108,117,134,144,149,185,214,233,239,269
2018-05-17,10:31:57.859,271,278,275,257,192,95,-18,-114,-193,-230,-245,-246,-243,-228,-221,-212,-203,-209,-202,-184,-172,-163,-155,-150,-136,-128,-118,-118,-92,-82,-76,-54,-51,-72,-4,20,20,5,-25,-44,-37,-38,-42,-49,-52,-83,-403,-769,-24,1337,1471,329,-987,-1277,-819,-289,-9,127,152,162,174,172,182,194,190,198,202,203,221,257,277,280,312,319,303,284,256,192,56,-72,-175,-256,-296,-301,-296,-283,-269,-250,-229,-219,-219,-204,-207,-186,-159,-138,-111,-99,-87,-65,-49,-41,-48,-45,-18,-15,-39,19,61,64,28,-16,-37,-38,-25,-17,-30,-23,-58,-393,-822,-180,1289,1649,597,-779,-1179,-792
2018-05-17,10:31:58.896,-288,-66,61,95,90,109,114,132,140,151,154,177,199,205,216,237,259,280,309,310,311,285,208,87,-64,-172,-261,-321,-350,-349,-331,-302,-279,-266,-262,-232,-208,-203,-185,-171,-154,-145,-126,-109,-115,-110,-108,-101,-67,-67,-54,16,41,41,4,-24,-41,-44,-39,-30,-31,-6,-61,-401,-663,80,1189,1192,202,-849,-1045,-700,-225,3,109,129,153,162,161,156,163,170,174,182,186,198,213,232,255,258,248,251,241,211,132,45,-42,-137,-188,-211,-221,-228,-218,-212,-218,-194,-179,-163,-154,-143,-133,-127,-110,-86,-67,-44,-44,-39,-41,-56,-27,-24,-21,7,30,67,60,-4
2018-05-17,10:31:59.933,-30,-37,-38,-22,-19,-13,-25,-186,-627,-491,658,1392,918,-260,-939,-856,-413,-123,29,71,91,108,108,112,128,127,115,135,160,172,190,207,229,246,265,273,274,259,231,145,31,-82,-196,-269,-307,-319,-314,-292,-286,-269,-240,-233,-206,-193,-195,-191,-179,-173,-166,-148,-135,-120,-101,-106,-95,-87,-71,-62,-62,-2,48,49,21,-27,-50,-38,-36,-41,-31,-29,-36,-292,-736,-260,1071,1484,597,-738,-1230,-897,-336,-42,130,169,162,181,200,195,193,197,187,180,173,183,222,252,286,306,319,317,306,296,258,160,13,-112,-179,-245,-287,-294,-280,-264,-247,-233,-219,-205,-205,-193
2018-05-17,10:32:00.970,-165,-137,-128,-137,-121,-97,-91,-84,-74,-69,-76,-64,-31,-42,-55,1,42,45,10,-23,-28,-25,-31,-18,-8,-23,-69,-400,-770,-78,1253,1516,496,-772,-1106,-780,-315,-84,49,91,93,91,111,124,119,128,141,170,192,207,232,254,286,310,311,291,253,222,138,29,-75,-174,-249,-283,-303,-310,-292,-278,-252,-235,-227,-217,-205,-192,-160,-146,-128,-125,-107,-97,-88,-89,-98,-88,-58,-49,-58,2,34,35,15,-23,-34,-26,-34,-17,-19,-30,-47,-270,-610,-107,1064,1300,529,-600,-966,-762,-299,-35,105,128,130,134,126,127,140,140,134,153,159,164,181,210,240,256,258,250
2018-05-17,10:32:02.007,246,230,179,89,-21,-114,-164,-202,-228,-241,-230,-205,-191,-183,-165,-158,-152,-141,-129,-109,-86,-85,-80,-70,-76,-73,-69,-78,-79,-52,-26,-34,-11,40,35,8,-18,-45,-39,-45,-41,-25,-25,-32,-199,-639,-501,677,1490,1049,-223,-989,-898,-431,-149,23,82,103,115,114,111,86,94,123,135,147,170,198,213,242,267,271,265,260,222,168,81,-42,-155,-245,-304,-316,-300,-259,-259,-247,-227,-227,-231,-213,-211,-211,-195,-167,-147,-125,-111,-104,-100,-90,-77,-56,-59,-46,-11,-19,-13,44,50,52,13,-29,-40,-26,-32,-27,-22,-25,-76,-445,-706,225,1484,1400,154,-1079,-1236,-677
2018-05-17,10:32:34.033,-808,-328,-75,11,21,34,72,69,66,75,102,112,89,97,144,172,194,226,212,212,196,199,182,158,121,49,-61,-174,-242,-280,-307,-312,-285,-268,-264,-248,-217,-206,-224,-226,-203,-178,-178,-189,-181,-214,-212,-212,-214,-210,-199,-189,-161,-156,-122,-102,-68,-37,-69,-115,-147,-156,-176,-185,-188,-167,-198,-475,-885,-313,940,1184,318,-913,-1260,-998,-399,-108,57,92,120,137,159,172,179,206,216,229,271,280,301,299,307,310,289,227,168,131,123,127,70,-16,-132,-234,-382,-303,-203,-132,-134,-107,-65,-31,-6,43,66,82,74,70,59,64,79,86,73,79,84,83,116,133
2018-05-17,10:32:35.245,170,168,131,65,31,25,44,41,31,25,9,-161,-539,-337,719,1338,872,-285,-898,-876,-460,-160,13,78,75,73,52,32,39,46,20,12,30,46,52,66,67,43,14,-2,-39,-75,-135,-218,-311,-417,-521,-595,-656,-718,-737,-769,-779,-753,-768,-806,-818,-832,-850,-874,-901,-901,-891,-905,-914,-894,-857,-824,-862,-923,-934,-932,-924,-836,-778,-805,-842,-854,-840,-815,-806,-789,-783,-788,-791,-1044,-1496,-1022,409,931,42,-1373,-1907,-1579,-1000,-707,-573,-533,-516,-618,-570,-421,-383,-360,-338,-334,-304,-266,-263,-242,-246,-243,-215,-203,-210,-213,-243,-293,-388,-489,-552,-611,-646,-647,-626,-586,-564,-549
2018-05-17,10:32:36.282,-489,-424,-394,-394,-338,-275,-238,-195,-178,-148,-97,-105,-91,-6,21,5,17,23,58,101,139,132,95,80,92,76,89,120,155,192,129,-319,-545,577,1940,1851,439,-815,-881,-363,56,301,438,451,464,507,557,592,621,642,635,651,688,673,703,767,782,787,738,705,721,728,668,586,493,393,326,301,278,260,284,341,356,356,385,404,426,441,465,485,487,490,491,490,520,536,488,449,455,513,537,509,451,441,458,426,422,429,402,377,419,456,458,237,-181,229,1426,1834,1080,-171,-570,-359,84,333,450,481,497,499,494,484,503,496,484,511,547,555,562,579
2018-05-17,10:32:37.319,555,532,502,501,538,538,503,436,311,200,124,104,80,62,68,77,92,108,132,138,128,132,151,174,192,155,104,101,115,88,94,112,108,110,125,178,207,213,181,145,116,111,99,107,125,114,38,-320,-603,319,1573,1498,279,-931,-1138,-677,-174,60,151,167,176,203,185,161,174,185,178,179,189,209,243,249,270,256,259,246,200,163,66,-28,-63,-164,-242,-273,-312,-303,-357,-339,-227,-202,-163,-151,-110,-62,4,9,1,16,25,33,5,-19,-7,12,20,39,15,86,99,20,-40,-78,-110,-147,-160,-182,-197,-199,-390,-932,-784,621,1661,1053,-486,-1343,-1211,-620
2018-05-17,10:32:38.357,-334,-153,-98,-103,-110,-98,-90,-90,-97,-99,-105,-119,-110,-69,-43,-14,-5,-25,-40,-44,-79,-135,-213,-342,-473,-570,-619,-650,-652,-646,-642,-610,-582,-561,-542,-530,-503,-494,-464,-422,-397,-392,-396,-404,-402,-364,-320,-278,-262,-199,-193,-220,-277,-301,-291,-253,-263,-291,-291,-288,-295,-561,-840,-134,942,938,-66,-1125,-1285,-929,-474,-286,-98,-10,32,8,-54,-23,11,-2,35,75,168,244,228,238,278,262,234,222,200,162,123,40,-45,-154,-222,-225,-233,-224,-192,-202,-214,-179,-157,-140,-135,-103,-69,-79,-65,-38,-39,-45,-17,36,35,40,100,148,185,179,143,115,115,123,139,141
2018-05-17,10:32:39.394,137,127,-50,-446,-169,1001,1609,1054,-174,-747,-610,-171,83,211,277,296,307,333,360,372,393,439,470,472,496,505,531,537,555,546,519,521,491,404,286,179,54,-28,-42,-65,-145,-170,-138,-106,-93,-100,-81,-73,-37,-22,-14,-16,-3,-14,2,33,19,6,-5,2,-2,76,109,76,0,-29,-17,57,46,0,-13,-30,-79,-393,-805,-139,1377,1814,773,-750,-1168,-751,-264,-28,98,141,169,185,190,212,224,217,209,227,236,262,270,274,300,309,250,262,270,232,126,21,-62,-160,-168,-174,-198,-205,-188,-176,-175,-161,-153,-136,-116,-121,-110,-136,-100,-64,-121,-82,-84,-78
2018-05-17,10:32:40.431,-82,-135,-145,-131,-132,-68,-34,-35,-52,-77,-86,-49,-32,-48,-56,-71,-136,-529,-787,167,1366,1235,-17,-1177,-1307,-823,-254,-14,84,79,41,17,-5,-10,0,12,45,41,31,61,92,104,98,96,61,17,-38,-127,-229,-350,-478,-634,-718,-683,-681,-719,-678,-694,-753,-734,-651,-685,-697,-646,-605,-629,-628,-614,-611,-631,-618,-601,-609,-624,-590,-554,-554,-566,-626,-629,-614,-644,-695,-669,-651,-667,-857,-1241,-1033,66,674,194,-896,-1468,-1395,-1030,-712,-551,-509,-485,-460,-443,-446,-441,-411,-371,-348,-340,-318,-280,-227,-178,-152,-137,-124,-112,-125,-189,-266,-344,-410,-447,-462,-463,-447,-412,-371,-323
2018-05-17,10:32:41.468,-261,-241,-213,-195,-164,-123,-66,-51,-47,-9,41,62,72,132,197,212,250,304,316,318,286,256,282,291,290,303,323,304,229,-138,-220,758,1687,1377,196,-705,-751,-231,213,405,467,467,502,519,533,536,538,451,517,615,642,593,614,647,693,759,748,744,721,653,530,435,346,275,221,188,189,160,175,173,204,238,232,251,261,287,264,282,274,276,264,278,272,237,220,240,228,218,288,314,308,296,253,258,278,279,275,254,234,113,-375,-511,722,1926,1556,74,-1045,-1103,-517,-62,161,268,316,320,320,314,310,329,348,375,397,425,444,461,493,520,508,509
2018-05-17,10:32:42.505,473,423,346,253,141,26,-58,-119,-147,-144,-128,-97,-74,-65,-40,-43,-47,-30,-8,-9,17,24,22,30,51,56,80,72,88,143,177,164,110,73,59,69,51,46,-5,-111,-49,-72,-412,-215,822,1292,619,-503,-859,-685,-190,96,251,292,297,303,313,323,324,309,320,353,355,338,348,367,333,327,312,283,237,184,98,2,-83,-165,-254,-277,-292,-263,-270,-266,-263,-276,-250,-225,-190,-163,-156,-161,-145,-149,-144,-151,-148,-129,-113,-114,-101,-41,3,36,28,5,-10,0,0,-9,-18,-24,-81,-415,-782,-75,1228,1546,578,-737,-1060,-731,-273,-47,79,150,157,178,194,209
2018-05-17,10:32:43.543,227,246,264,279,283,292,295,310,294,298,326,299,256,214,129,34,-50,-107,-156,-197,-217,-207,-195,-199,-211,-188,-153,-127,-108,-175,-182,-126,-153,-194,-66,23,-74,-193,-175,7,-14,20,128,145,129,100,74,53,60,34,21,50,46,-58,-574,-834,309,1728,1673,251,-1010,-1104,-664,-260,-41,51,55,73,103,109,83,102,134,163,196,243,232,288,330,362,404,387,358,283,164,28,-97,-207,-294,-344,-373,-378,-362,-362,-348,-328,-307,-292,-276,-251,-285,-260,-231,-231,-209,-197,-185,-170,-158,-140,-85,-72,-94,-50,23,17,-21,-42,-57,-71,-81,-90,-78,-64,-78,-275,-707,-400
2018-05-17,10:32:44.580,844,1287,570,-651,-1139,-982,-424,-59,116,156,147,154,164,176,197,223,242,241,252,268,197,146,306,278,263,287,238,158,-3,-116,-147,-142,-136,-142,-177,-171,-177,-188,-119,-88,-62,-64,-56,-53,-55,-41,-51,-49,-44,-23,-6,-21,-15,-15,-19,-14,23,31,20,-26,-51,-72,-74,-67,-67,-53,-55,-179,-563,-459,552,1267,904,-249,-950,-959,-538,-194,-19,16,-9,-30,-50,-56,-66,-98,-112,-115,-137,-154,-154,-163,-203,-245,-288,-352,-425,-502,-634,-801,-954,-1085,-1190,-1270,-1366,-1426,-1446,-1511,-1561,-1610,-1636,-1667,-1710,-1744,-1768,-1805,-1871,-1910,-1928,-1970,-2020,-2079,-2137,-2173,-2189,-2210,-2222,-2214
2018-05-17,10:32:45.617,-2233,-2280,-2357,-2419,-2455,-2454,-2435,-2441,-2445,-2452,-2663,-3168,-2892,-1486,-747,-1505,-2991,-3612,-3183,-2584,-2289,-2061,-2111,-1949,-1808,-1732,-1549,-1382,-1301,-1129,-975,-933,-817,-677,-541,-420,-316,-238,-191,-155,-120,-151,-230,-276,-319,-288,-255,-211,-161,-99,-23,62,163,228,304,391,473,565,658,742,797,855,894,944,980,1063,1182,1262,1287,1391,1465,1498,1483,1440,1438,1465,1499,1504,1502,1503,1505,1267,806,1324,2787,3278,2260,766,354,701,1211,1447,1566,1618,1655,1702,1717,1733,1734,1727,1718,1714,1729,1742,1759,1765,1791,1763,1733,1692,1636,1561,1425,1286,1182,1070,1003,926,891,886,907,905,890,893,891,856,830,809
2018-05-17,10:32:46.654,773,744,737,741,699,662,584,536,561,606,606,597,498,649,677,502,323,436,652,624,587,569,541,393,-27,60,1232,1964,1499,201,-494,-407,41,364,499,555,561,544,508,517,518,496,499,512,501,493,508,518,505,527,533,471,425,350,283,217,164,83,18,15,-5,-3,31,25,31,51,35,22,27,28,64,75,76,88,44,0,48,41,86,90,63,90,137,166,155,130,93,60,73,68,67,92,15,-265,-686,-163,1220,1666,736,-700,-1153,-852,-304,-18,139,176,173,180,180,174,170,181,228,273,286,305,319,367,423,406,357,333,280,161,-58,-108,-143,-285
2018-05-17,10:32:47.691,-193,-234,-188,-214,-354,-351,-164,-133,-148,-34,5,55,132,156,132,30,29,68,62,53,47,39,12,37,89,87,38,29,17,-11,-54,-82,-89,-91,-86,-249,-779,-779,512,1607,1197,-141,-1028,-988,-599,-278,-60,35,81,97,102,93,86,102,111,156,181,195,234,263,268,307,330,322,323,263,158,23,-110,-220,-308,-336,-343,-340,-312,-273,-273,-254,-210,-179,-176,-133,-116,-121,-136,-112,-107,-87,-88,-95,-52,-29,-28,2,104,94,75,45,-2,-51,-48,-66,-69,-57,-56,-175,-553,-524,528,1304,891,-344,-1085,-1016,-505,-139,38,124,152,35,94,201,150,141,154,174,180,194
2018-05-17,10:32:48.729,240,216,185,275,323,320,270,205,117,26,-40,-123,-160,-169,-188,-187,-198,-182,-167,-186,-196,-199,-208,-190,-186,-155,-176,-169,-150,-153,-149,-127,-125,-144,-104,-62,-56,-69,-124,-153,-132,-122,-132,-128,-121,-133,-324,-736,-448,728,1278,670,-572,-1049,-883,-407,-111,28,39,46,78,83,78,89,115,148,180,218,245,277,305,347,385,394,367,306,261,179,22,-127,-215,-272,-293,-299,-302,-264,-228,-222,-238,-259,-243,-207,-178,-142,-126,-117,-107,-81,-69,-69,-46,-33,-63,-29,-7,-23,-102,-155,-296,-166,-53,-179,-172,11,-82,-496,-832,-656,592,1727,1388,-282,-1308,-841,-178,-103,174,210
2018-05-17,10:32:49.766,27,129,247,242,196,189,165,168,211,226,268,303,303,313,342,312,235,145,35,-92,-218,-296,-334,-362,-374,-356,-347,-290,-273,-261,-220,-234,-229,-225,-219,-194,-170,-166,-163,-156,-161,-139,-134,-123,-65,-29,-27,-41,-78,-124,-139,-89,-179,-154,-87,-184,-451,-831,-177,1172,1484,530,-801,-1094,-812,-349,-104,64,133,144,149,152,173,157,140,172,167,161,201,200,213,216,198,169,147,117,56,-51,-140,-211,-280,-326,-334,-342,-359,-431,-461,-458,-579,-519,-389,-511,-574,-537,-588,-531,-525,-593,-707,-711,-615,-510,-446,-440,-461,-544,-642,-653,-686,-743,-784,-850,-912,-931,-1012,-1438,-1660,-743
2018-05-17,10:32:50.803,287,139,-1043,-2038,-2117,-1791,-1454,-1292,-1205,-1220,-1223,-1212,-1209,-1243,-1235,-1217,-1250,-1258,-1207,-1164,-1153,-1165,-1106,-1100,-1135,-1176,-1230,-1312,-1448,-1556,-1643,-1680,-1638,-1594,-1571,-1524,-1503,-1477,-1436,-1411,-1364,-1305,-1237,-1190,-1146,-1055,-980,-944,-904,-840,-778,-756,-704,-630,-524,-495,-473,-418,-376,-359,-326,-303,-268,-230,-214,-356,-782,-619,588,1407,894,-384,-1097,-942,-366,13,270,378,402,486,523,555,588,599,676,658,600,749,878,845,991,987,971,1002,864,882,811,652,785,689,552,550,594,626,656,686,703,706,708,713,718,710,739,768,800,841,857,854,871,870,869,885,954,991,977,921,890,859
2018-05-17,10:32:51.840,848,812,810,830,815,750,421,163,1033,2192,2164,994,-152,-310,93,528,724,824,850,850,845,841,838,833,873,876,848,878,892,876,976,1036,999,947,919,863,756,605,458,344,271,239,237,242,210,189,206,200,218,244,250,248,236,271,297,286,279,275,291,300,268,284,369,375,323,295,277,278,267,228,232,221,107,-30,-400,-351,650,1378,1027,-71,-685,-683,-241,98,108,108,234,292,438,483,465,460,488,543,537,506,512,532,539,540,535,506,481,454,370,235,86,16,-29,-68,-76,-71,-78,-67,-63,-56,-60,-86,-68,-58,-54,-51,-26,-28,-21,32,21,-41
2018-05-17,10:32:52.877,-40,29,69,72,32,-2,-15,-13,0,14,0,4,-71,-464,-628,344,1497,1361,99,-967,-1016,-572,-218,-23,97,119,117,166,162,170,212,249,261,263,265,295,326,363,373,371,363,330,255,180,63,-75,-193,-252,-290,-295,-285,-251,-216,-173,-142,-155,-166,-152,-122,-100,-83,-86,-90,-97,-131,-226,-276,30,71,-86,-96,-258,-7,99,-104,-105,-42,-19,-48,-75,-382,-859,-206,1431,1984,914,-680,-1106,-752,-301,-52,103,160,181,208,220,240,258,249,227,250,273,298,312,337,371,368,364,356,272,152,58,-28,-110,-181,-230,-258,-268,-254,-235,-242,-243,-202,-177,-176,-184,-174,-156
2018-05-17,10:32:53.914,-164,-151,-149,-152,-126,-118,-133,-126,-67,-53,-84,-95,-132,-166,-143,-134,-126,-90,-60,-172,-587,-674,418,1385,1024,-297,-1165,-1139,-635,-187,37,142,132,120,153,189,195,201,213,208,202,240,288,330,355,373,358,333,337,315,190,15,-154,-236,-391,-487,-348,-382,-295,-196,-295,-346,-297,-126,-181,-291,-282,-170,-12,4,-17,-8,-1,1,57,89,68,48,33,-6,2,11,-16,-15,-3,-42,-413,-622,245,1308,1235,168,-772,-865,-564,-247,-66,2,14,38,40,48,72,98,153,158,173,197,224,244,263,276,269,254,246,216,101,-14,-126,-202,-252,-277,-262,-262,-307,-342,-276,-279
2018-05-17,10:32:54.952,-278,-279,-283,-213,-184,-167,-145,-141,-128,-113,-91,-46,17,24,-5,-33,-52,-83,-96,-97,-103,-90,-83,-120,-456,-727,120,1256,1140,-15,-1097,-1262,-758,-249,28,179,217,225,233,235,236,205,174,171,161,-21,268,468,353,193,211,384,180,306,252,-10,-178,-218,-232,-276,-304,-296,-266,-247,-228,-200,-196,-182,-179,-182,-155,-132,-120,-90,-92,-71,-62,-67,4,20,-8,-49,-69,-84,-98,-113,-124,-113,-108,-237,-669,-719,359,1415,1151,-140,-1071,-1121,-700,-299,-84,-4,-4,-14,2,10,21,42,93,122,145,171,210,248,269,299,309,286,243,171,88,-24,-126,-207,-257,-248,-226,-246
2018-05-17,10:32:55.989,-241,-226,-219,-212,-183,-166,-153,-136,-105,-76,-48,-40,-48,-40,-36,-38,45,70,54,10,-19,-26,-22,-42,-58,-40,-16,-74,-473,-584,383,1256,996,-109,-972,-1044,-678,-337,-180,-121,-126,-112,-134,-166,-199,-225,-229,-204,-153,-122,-112,-112,-96,-71,-55,-95,-159,-232,-332,-501,-669,-786,-883,-932,-952,-983,-1005,-1005,-1007,-1003,-1025,-1056,-1041,-1043,-1067,-1074,-1072,-1102,-1093,-1099,-1119,-1100,-1036,-1013,-1011,-1046,-1088,-1107,-1128,-1131,-1117,-1127,-1147,-1378,-1812,-1344,89,672,-180,-1629,-2138,-1838,-1323,-1079,-949,-866,-857,-884,-832,-753,-755,-741,-696,-643,-580,-541,-465,-388,-329,-297,-280,-272,-290,-369,-492,-565,-617,-651
2018-05-17,10:32:57.026,-685,-678,-638,-613,-591,-538,-477,-425,-396,-348,-292,-260,-220,-154,-118,-94,-39,1,18,88,167,170,153,130,4,-38,-34,98,67,156,150,-244,-701,-68,1626,2316,1312,-198,-587,-238,235,495,668,726,761,810,772,768,824,852,877,888,947,959,962,1012,1030,1036,1037,1006,956,868,738,606,496,418,352,359,385,381,396,458,489,517,530,517,531,548,543,551,565,559,561,581,592,619,682,695,644,574,541,503,481,482,483,482,467,290,-191,115,1496,2128,1365,-107,-628,-432,62,374,558,610,587,592,601,615,646,675,696,722,755,737,707,682,673,667,703,720,682,550
2018-05-17,10:32:58.063,390,278,212,150,119,100,103,99,70,3,-13,136,145,-35,84,180,-38,-62,192,254,149,59,58,228,334,315,278,287,271,248,262,267,262,255,33,-426,-42,1245,1814,1069,-270,-732,-538,-170,28,167,202,212,221,221,191,233,229,231,233,248,281,331,385,403,398,390,390,356,248,129,4,-90,-165,-195,-210,-213,-171,-158,-156,-168,-164,-142,-142,-124,-125,-138,-110,-99,-105,-99,-89,-56,7,25,14,5,-20,-82,-112,-109,-123,-110,-96,-220,-683,-672,568,1501,1016,-361,-1242,-1217,-620,-214,27,126,178,240,261,264,256,238,239,235,236,262,293,308,314,374,313,186
2018-05-17,10:32:59.100,159,249,92,-404,-342,-381,-527,-377,-204,-477,-505,-211,-52,-17,-21,-23,-8,-3,-4,10,20,22,3,32,79,96,186,174,142,94,62,24,-8,-24,-19,5,-36,-275,-763,-510,833,1592,924,-431,-1055,-935,-540,-267,-54,53,63,44,59,62,66,79,82,81,93,119,144,165,195,202,212,207,163,69,-63,-199,-308,-377,-402,-407,-391,-355,-327,-335,-337,-345,-361,-334,-303,-292,-281,-245,-224,-231,-221,-150,-146,-118,-43,-30,-32,2,-1,-27,-51,-70,-66,-84,-77,-198,-555,-318,720,1190,649,-427,-916,-791,-345,-51,106,178,186,57,18,115,163,127,127,183,150,-51,119,262
2018-05-17,10:33:00.138,207,300,432,413,374,322,247,100,0,-63,-88,-96,-126,-123,-118,-81,-40,-25,-47,-72,-92,-131,-150,-168,-124,-145,-133,-112,-118,-103,-51,-56,-72,-107,-126,-110,-57,-39,-46,-43,-116,-416,-760,-128,1237,1599,607,-749,-1107,-762,-307,-107,37,50,28,69,50,28,61,94,119,157,191,216,269,307,344,373,385,387,326,217,70,-87,-208,-271,-279,-332,-332,-312,-304,-277,-236,-208,-218,-225,-201,-186,-176,-171,-174,-146,-102,-111,-110,4,49,14,-22,-89,-151,-178,-156,-141,-133,-114,-245,-752,-760,491,1629,1191,-289,-1265,-1183,-638,-181,51,102,104,114,140,166,207,214,222,222,203
2018-05-17,10:33:01.175,241,272,312,357,365,326,307,261,179,48,-110,-237,-334,-373,-412,-411,-397,-376,-351,-317,-286,-282,-237,-225,-204,-164,-149,-202,-205,-183,-165,-135,-38,1,-7,-43,-64,-77,-78,-57,-49,-44,-56,-154,-571,-702,329,1393,1186,-87,-1017,-942,-525,-185,-25,92,95,110,110,122,124,125,165,208,208,205,224,245,247,277,296,298,238,141,34,-67,-164,-229,-246,-241,-238,-245,-221,-186,-171,-163,-161,-172,-173,-164,-166,-198,-264,-248,-206,-100,-51,-33,-120,-80,-41,-123,-162,-158,-119,-51,-23,-11,-141,-558,-515,587,1489,1191,-45,-815,-729,-330,-57,70,112,113,87,65,80,99,111,103
2018-05-17,10:33:02.212,101,109,130,155,176,188,206,202,215,188,156,95,-21,-134,-219,-301,-283,-267,-245,-208,-169,-159,-139,-123,-125,-115,-92,-82,-85,-90,-102,-114,-122,-104,-56,-34,-30,-54,-76,-76,-77,-72,-71,-92,-114,-266,-753,-724,679,1691,1086,-496,-1414,-1290,-609,-185,63,139,132,136,127,124,128,137,159,190,230,259,327,381,406,425,410,373,297,184,58,-74,-203,-316,-374,-429,-403,-370,-342,-289,-361,-267,-202,-227,-245,-255,-261,-198,-139,-74,-29,4,24,64,142,150,118,56,19,-20,-26,-61,-84,-70,-85,-358,-879,-467,1019,1712,870,-573,-1133,-953,-513,-263,-85,-15,-26,-17,18,68
2018-05-17,10:33:03.249,141,167,174,160,177,227,254,269,298,311,312,295,255,149,21,-80,-168,-245,-283,-289,-283,-282,-274,-245,-228,-245,-247,-240,-240,-225,-186,-155,-119,-97,-112,-132,-95,-54,-43,-73,-105,-102,-102,-106,-91,-67,-49,-73,-333,-621,-54,926,982,205,-759,-955,-681,-241,26,163,175,183,201,190,149,141,147,149,160,165,166,172,193,257,263,262,249,212,120,39,-85,-178,-265,-286,-204,-115,-81,-51,-25,-18,18,33,53,68,34,12,0,-4,25,21,-3,26,59,47,33,-31,-81,-84,-98,-109,-102,-126,-209,-565,-745,123,1195,1205,182,-862,-1050,-701,-288,-47,61,90,92,110
2018-05-17,10:33:04.286,130,145,166,163,190,224,257,286,319,344,367,367,359,330,241,137,18,-113,-198,-233,-273,-312,-302,-266,-267,-276,-259,-262,-235,-222,-204,-202,-204,-204,-184,-135,-97,-82,-37,14,3,-30,-95,-127,-95,-80,-73,-80,-59,-65,-347,-798,-118,1403,1649,455,-941,-1223,-780,-320,-139,-7,16,24,54,91,162,91,122,225,241,280,268,418,479,487,490,499,401,381,240,186,77,-70,-178,-250,-260,-257,-263,-271,-283,-288,-272,-272,-264,-244,-227,-244,-259,-223,-211,-218,-199,-136,-93,-83,-94,-117,-124,-141,-152,-163,-180,-181,-338,-761,-586,663,1449,893,-470,-1150,-1012,-517,-206,-60,-11,-13
2018-05-17,10:33:05.324,-3,24,53,67,109,170,195,192,224,275,310,313,318,294,269,218,137,25,-121,-239,-297,-338,-342,-307,-296,-298,-296,-299,-288,-252,-231,-194,-169,-148,-114,-83,-77,-84,-33,16,-5,-98,-152,-160,-233,-63,-88,-166,-137,-144,-352,-572,-80,871,1154,458,-505,-706,-411,-51,121,262,311,289,296,314,327,320,297,300,298,306,359,385,352,343,351,322,287,231,128,34,-57,-116,-189,-220,-242,-244,-241,-233,-237,-207,-156,-133,-138,-129,-147,-147,-150,-128,-128,-150,-114,-44,-53,-75,-98,-123,-142,-132,-134,-138,-152,-184,-440,-885,-414,1004,1554,660,-794,-1246,-931,-455,-185,-5,36,17
2018-05-17,10:33:06.361,54,64,80,81,91,122,148,166,198,255,278,277,252,217,179,115,42,-46,-139,-246,-330,-354,-362,-353,-330,-302,-285,-276,-265,-276,-324,-172,-66,-200,-260,-329,-204,1,-41,-14,-51,-23,72,106,155,139,144,166,146,144,113,-320,-744,237,1730,1768,434,-885,-1040,-608,-149,53,135,121,110,111,134,167,183,181,159,148,193,206,199,224,192,231,243,252,233,140,-2,-147,-242,-312,-342,-346,-334,-326,-333,-314,-287,-266,-234,-210,-195,-197,-172,-143,-130,-143,-103,-37,-40,-40,-80,-109,-107,-109,-102,-83,-88,-133,-338,-730,-413,761,1241,559,-676,-1160,-959,-426,-107,55,114,116
2018-05-17,10:33:07.398,117,106,104,118,130,140,178,203,232,269,298,326,359,369,352,300,194,0,-130,-57,-173,-179,-210,-322,-225,-179,-148,-160,-217,-143,-27,6,-6,-9,22,55,101,111,123,137,195,174,102,104,85,62,49,46,32,-32,-422,-649,287,1348,1194,65,-881,-923,-581,-283,-123,-47,-19,-22,-11,29,23,42,91,137,171,183,195,238,270,305,298,276,255,210,109,-14,-115,-181,-241,-271,-287,-276,-278,-273,-268,-258,-251,-251,-242,-234,-214,-193,-193,-169,-152,-140,-66,-74,-96,-122,-150,-155,-164,-152,-140,-135,-125,-264,-684,-544,675,1452,820,-567,-1364,-1201,-516,-78,159,212,227,274
2018-05-17,10:33:08.435,322,354,362,354,328,335,386,379,315,351,542,576,457,442,382,202,238,216,8,-54,-60,-143,-101,-26,-51,-43,7,-24,-78,-54,-23,-10,-13,-34,-3,20,57,103,149,124,53,2,-47,-89,-100,-116,-115,-135,-165,-389,-897,-667,718,1480,762,-660,-1269,-1096,-663,-419,-273,-229,-238,-253,-295,-342,-383,-413,-456,-490,-525,-536,-544,-555,-602,-668,-729,-787,-902,-1048,-1224,-1410,-1581,-1716,-1825,-1913,-1981,-2035,-2077,-2113,-2127,-2139,-2162,-2160,-2158,-2177,-2166,-2157,-2116,-2085,-2062,-1971,-1883,-1847,-1828,-1847,-1903,-1897,-1856,-1844,-1855,-1813,-1795,-1992,-2224,-1615,-532,-344,-1147,-2187,-2385,-2029,-1594,-1340,-1091,-1038,-1109,-899
2018-05-17,10:33:09.472,-686,-600,-630,-601,-611,-516,-376,-230,-102,9,109,212,266,318,327,323,297,233,186,202,216,232,303,337,407,484,533,555,605,644,664,711,762,853,894,881,922,1008,1016,994,1011,1006,972,1019,1082,1132,1109,1093,947,531,736,1909,2489,1877,621,97,228,653,943,1095,1111,1092,1082,1076,1051,1008,997,1021,1036,1030,1064,1107,1143,1154,1150,1151,1142,1123,1036,918,763,639,536,477,408,363,362,373,355,335,373,378,347,339,338,305,297,342,377,334,338,404,390,402,384,320,255,262,242,168,113,24,-23,-329,-187,1036,1836,1228,-228,-1004,-891,-421,-129,31,163,209,181,201
2018-05-17,10:33:10.510,206,231,247,258,273,353,419,449,468,479,476,450,432,405,322,196,69,-47,-125,-212,-281,-300,-319,-316,-285,-270,-271,-281,-301,-251,-159,-128,-135,-96,-57,-49,-26,75,116,103,95,133,182,171,158,144,123,119,30,-392,-549,597,1783,1532,126,-830,-770,-370,-13,199,324,350,362,373,360,350,379,405,437,460,517,582,579,617,714,690,575,487,412,343,293,220,177,137,111,89,76,89,82,69,72,97,142,141,135,19,-106,99,137,104,167,203,147,64,-20,-36,33,80,103,113,103,95,-179,-496,89,1209,1461,641,-500,-777,-494,-66,99,193,222,219,216,248
2018-05-17,10:33:11.547,235,212,200,207,221,236,248,251,231,237,273,294,289,261,194,150,83,8,-28,-31,-8,-13,-36,-39,-40,-30,-29,-33,-12,22,35,37,59,74,67,53,84,122,117,110,106,115,109,114,119,137,135,59,-362,-505,621,1746,1431,56,-957,-945,-369,69,294,358,390,439,454,424,385,388,403,404,417,436,474,500,535,561,601,598,581,514,380,248,111,42,-77,-173,-80,-19,-28,-63,-60,-23,-131,-106,37,37,20,58,134,175,179,167,219,263,275,255,218,232,211,225,234,222,208,61,-507,-613,713,2005,1657,186,-788,-773,-416,-131,68,167,176,166,179,205
2018-05-17,10:33:12.584,187,226,243,266,300,316,354,391,430,432,411,405,381,311,191,59,-20,-103,-217,-285,-290,-265,-265,-268,-273,-265,-257,-265,-235,-193,-173,-161,-151,-134,-137,-99,-41,-50,-94,-115,-116,-110,-80,-82,-87,-86,-113,-314,-619,-123,909,1099,345,-731,-1003,-756,-250,16,145,167,155,182,190,159,133,116,116,130,86,-51,45,296,313,99,27,-13,-22,-73,-148,-218,-326,-397,-355,-361,-373,-385,-374,-360,-368,-375,-385,-408,-408,-413,-413,-415,-387,-391,-415,-394,-408,-373,-423,-532,-568,-584,-570,-590,-584,-589,-724,-1092,-904,76,671,261,-800,-1401,-1344,-959,-701,-529,-468,-459,-426,-410,-406,-395
2018-05-17,10:33:27.983,461,504,428,258,31,394,370,103,436,597,271,504,792,708,553,513,420,222,383,373,201,31,-5,-24,-10,-92,-241,-278,-111,-69,-41,-41,-48,-78,-27,101,113,71,38,-3,-34,-68,-123,-182,-195,-108,-331,-745,55,1634,1827,731,-803,-1181,-837,-292,92,392,467,454,437,414,389,402,443,461,428,453,515,520,579,555,472,552,556,392,214,134,-20,-107,-167,-282,-219,-138,-225,-429,-259,-44,-181,-288,-213,-159,-140,-59,-19,-52,-215,-31,215,194,-79,32,256,52,-78,35,-428,-893,136,1403,1158,-90,-759,-671,-525,-134,87,161,324,333,326,294,78,-6,15,3,-9,46
2018-05-17,10:33:28.770,54,18,74,95,6,-44,-24,-82,-136,-156,-263,-392,-460,-500,-533,-491,-423,-392,-342,-283,-228,-273,-310,-306,-286,-276,-196,-117,-129,-140,-152,-189,-215,-213,-162,-146,-183,-285,-734,-842,298,1311,1037,-190,-1219,-1330,-903,-594,-491,-416,-164,-97,-234,-308,-380,-312,-139,-92,40,66,-15,-104,-66,-60,-120,199,450,383,236,90,-155,-323,-345,-406,-427,-271,-129,-285,-261,-133,-138,-210,-123,-157,-82,-66,27,198,163,110,85,-141,-272,-269,-243,-195,-103,-111,-264,-620,-568,602,1376,799,-698,-1543,-1401,-656,-187,37,122,133,141,197,273,349,397,438,429,402,391,384,451,522,567,562,535,555
2018-05-17,10:33:29.807,509,411,318,261,163,102,24,-36,-44,72,165,71,-88,-242,-165,-34,-100,-344,-71,256,67,-36,140,209,82,20,114,30,-10,-160,-408,-555,-191,1003,1785,1245,-213,-883,-724,-266,179,165,86,139,97,197,291,374,443,442,442,384,352,331,296,241,337,298,113,0,-114,-232,-304,-363,-399,-440,-501,-475,-470,-534,-544,-493,-515,-542,-550,-546,-550,-532,-429,-435,-463,-440,-446,-416,-424,-472,-494,-525,-583,-750,-1158,-831,366,857,170,-1143,-1556,-1294,-772,-389,-220,-230,-287,-343,-124,-86,-292,-414,-444,-622,-768,-653,-334,-258,-433,-471,-460,-297,-346,-470,-436,-479,-664,-831,-921,-762,-736,-571
2018-05-17,10:33:30.844,-535,-687,-654,-510,-402,-500,-530,-416,-394,-386,-439,-385,-271,-316,-329,-139,-27,-286,-287,-128,-119,-460,-838,193,1664,1324,-150,-1349,-1477,-1038,-421,-22,126,150,144,171,210,279,275,264,323,329,325,394,459,510,553,588,615,606,602,508,376,285,162,95,113,124,149,197,251,271,283,346,391,421,517,606,588,600,667,682,764,771,696,481,313,252,412,367,381,337,-18,359,1509,1935,1042,-171,-434,-234,143,410,494,469,380,375,616,649,731,731,654,589,610,498,502,324,464,974,960,696,587,578,492,349,286,357,344,285,207,180,220,107,32,-3,61,141,149,124
2018-05-17,10:33:31.881,133,182,131,101,90,33,7,5,30,71,70,-14,-341,-569,145,1246,1362,498,-574,-784,-483,-85,126,254,270,312,390,407,445,447,452,442,456,492,542,550,487,472,489,484,454,252,98,-59,-180,-122,-56,-191,-256,-212,-396,-259,-218,-167,45,2,-86,-162,-157,-35,-131,-279,-102,37,-15,-85,-184,-119,-155,-195,-115,-609,-958,204,1552,1603,192,-1009,-986,-568,-345,-93,32,45,15,-18,12,7,-53,-78,-74,-38,24,79,80,74,80,72,8,-52,-106,-190,-240,-360,-450,-498,-543,-571,-583,-567,-525,-470,-401,-370,-360,-338,-313,-314,-285,-209,-187,-186,-184,-189,-212,-196,-153,-130
2018-05-17,10:33:32.919,-102,-92,-258,-689,-545,691,1422,802,-487,-1202,-1254,-643,-374,-400,-102,-13,-15,-47,-115,-20,21,49,66,29,-82,-126,89,137,17,165,208,84,130,-55,-235,-165,-185,-258,-155,-225,-319,-473,-551,-315,-208,-178,-65,-69,-56,-69,-88,-74,-103,-171,-120,-179,-288,-367,-368,-348,-299,-350,-663,-666,183,820,543,-418,-1070,-1079,-654,-280,-68,22,19,20,68,107,109,120,140,207,233,233,235,229,237,274,287,282,251,227,203,133,122,49,-45,-73,-54,-67,-106,-87,-18,100,-39,-140,-34,-62,-104,-89,-19,-7,6,32,-21,-134,-120,4,40,94,-71,-653,-740,499,1714,1422,47,-926
2018-05-17,10:33:33.956,-860,-439,-176,118,266,143,-21,119,271,15,-91,94,286,182,103,582,765,575,442,409,501,506,404,291,108,-77,-197,-297,-281,-225,-177,-219,-239,-221,-205,-214,-206,-201,-150,-46,-63,-84,-119,-142,-181,-177,-141,-107,-94,-55,-245,-715,-205,1162,1474,487,-968,-1319,-1011,-376,55,289,322,327,335,371,413,435,440,455,408,364,371,509,541,453,392,138,27,276,203,-298,-224,-28,-145,-239,-285,-130,23,14,-145,-112,-53,-83,-199,-127,117,86,51,87,55,-81,-47,136,157,-71,-288,-190,-17,-314,-354,566,1303,1097,117,-724,-790,-449,-182,-28,153,109,36,37,12,-9,2,73
2018-05-17,10:33:34.993,94,152,139,158,172,201,193,197,176,157,61,-7,-96,-156,-202,-234,-220,-214,-212,-223,-261,-248,-219,-227,-223,-178,-130,-59,12,-17,-15,28,0,-60,-29,14,53,37,-86,-416,-737,-49,1112,1209,275,-832,-1061,-821,-457,-328,-170,31,76,-44,-28,193,237,182,84,110,85,-66,173,434,358,235,271,259,178,136,57,0,24,-265,-463,-230,-68,-220,-164,-107,-238,-160,-133,-173,-65,-24,-36,-8,-60,-206,-283,-305,-285,-281,-287,-260,-247,-245,-367,-748,-503,806,1406,575,-898,-1484,-1145,-552,-218,-67,-37,34,101,130,169,178,163,183,192,244,261,310,349,406,425,400,372,331
2018-05-17,10:33:36.030,292,183,155,70,-62,-193,-293,-249,-108,-92,-159,-220,-339,-372,-213,-60,-95,-140,-121,-163,-134,-198,-44,-4,-104,-151,-173,-241,-670,-907,252,1356,1141,-202,-1110,-1159,-700,-260,-58,-26,-118,-204,-287,-130,-116,-202,-154,-164,-179,-114,-111,-170,-166,-103,-98,-180,-221,-317,-530,-668,-787,-816,-840,-855,-844,-835,-842,-863,-884,-883,-863,-841,-776,-713,-746,-802,-892,-908,-875,-849,-805,-793,-733,-709,-894,-1176,-665,212,268,-429,-1403,-1650,-1287,-733,-410,-249,-245,-224,-191,-135,-136,-111,-74,-66,-64,41,156,137,8,-52,-117,-212,-74,-71,-304,-216,-226,-378,-235,-43,-78,-225,-377,-506,-432,-369,-590,-247
2018-05-17,10:33:37.067,3,-29,63,-26,-154,-21,172,-6,61,22,-184,-55,16,-352,-527,403,1732,1927,775,-650,-854,-424,37,239,412,460,394,352,370,427,481,514,542,612,659,685,754,768,794,809,846,826,757,659,539,398,348,336,307,279,262,280,285,296,304,311,358,375,357,469,526,496,500,477,459,436,443,455,503,447,224,-197,184,1618,2118,1209,-320,-871,-495,10,84,226,312,563,681,495,377,397,536,559,493,376,340,276,458,569,462,420,435,383,268,258,268,127,-50,10,90,-49,-138,-99,-11,36,-33,-34,158,231,111,27,104,122,52,54,25,-100,-152,-130,-108,-187
2018-05-17,10:33:38.105,-431,-539,244,903,682,-213,-895,-924,-577,-200,-9,89,76,53,39,60,109,76,143,206,267,272,260,263,262,256,291,290,312,303,239,143,76,21,-42,-73,-38,-26,-41,-121,-177,-87,103,16,-157,-101,-151,-71,128,-7,-136,-75,-143,-241,-297,-21,46,-479,-648,460,1478,1192,-112,-1054,-1096,-554,-162,40,134,198,114,28,125,32,15,139,83,180,260,272,394,421,461,476,410,347,291,190,66,-57,-142,-214,-323,-373,-369,-324,-319,-271,-197,-161,-151,-64,-44,-77,-102,-171,-186,-242,-208,-223,-256,-289,-589,-969,-178,1316,1506,396,-979,-1310,-991,-473,-120,106,154,153,216,248
2018-05-17,10:33:39.142,250,295,321,322,324,389,379,402,430,378,380,402,439,386,165,-120,-289,-202,-117,-291,-521,-544,-156,-56,-204,-108,-26,-45,-20,-91,-179,-24,-59,-199,-193,-116,-129,-29,20,-177,-669,-479,653,1189,723,-372,-974,-884,-491,-169,1,82,-59,131,308,282,158,62,66,168,139,59,42,24,33,45,17,-24,-43,-90,-144,-185,-296,-325,-362,-345,-371,-389,-371,-410,-415,-384,-304,-278,-203,-191,-159,-185,-238,-261,-310,-275,-245,-237,-227,-393,-730,-286,879,1197,411,-780,-1126,-905,-374,-145,-41,86,144,69,20,-21,-94,-217,-220,51,294,198,119,128,24,51,86,220,314,286,-5,-87
2018-05-17,10:33:40.179,-108,-365,-176,-89,-108,3,-39,-153,-126,-98,38,-81,-42,5,52,96,84,9,-67,-6,115,110,71,-266,-810,-148,1372,1497,285,-1082,-1432,-1099,-451,-43,189,206,172,133,166,208,201,158,196,206,232,265,267,276,293,322,354,321,270,189,105,11,-125,-252,-316,-330,-327,-279,-252,-78,121,160,121,132,270,330,293,263,195,79,57,113,150,219,130,-52,-518,-724,222,1315,1192,225,-772,-1039,-703,-226,-9,199,258,257,199,37,-10,21,145,394,416,186,210,320,417,338,239,183,231,148,-51,37,64,65,-13,9,-29,-91,-73,-112,-147,-192,-242,-194,-88,3,-70,-158
2018-05-17,10:33:41.216,-200,-206,-192,-223,-245,-268,-246,-212,-375,-692,-451,542,888,313,-775,-1242,-1021,-586,-295,-149,-88,-94,-59,-28,-24,-73,-99,-117,-32,12,33,50,75,119,157,133,104,114,68,18,-37,-35,-126,-281,-334,-285,-200,-118,-180,-254,-239,-291,-345,-265,-29,-56,-50,-108,-288,-136,-200,-105,30,-37,-497,-859,-98,1328,1544,321,-892,-1058,-603,-165,62,39,43,107,165,167,78,72,232,367,276,414,492,376,398,431,464,440,391,328,262,163,-26,-126,-184,-255,-243,-258,-276,-206,-202,-207,-194,-99,-46,-32,-34,-77,-123,-154,-144,-163,-192,-177,-197,-668,-779,572,1757,1305,-204,-1285,-1264,-771
2018-05-17,10:33:42.253,-208,98,233,241,314,333,343,350,359,469,473,426,460,489,479,524,587,579,404,267,167,122,-124,-264,10,181,-73,-290,-140,-71,-97,27,61,-17,-134,-25,42,16,16,55,-89,-215,-88,182,190,-23,-330,-713,-37,1203,1337,200,-812,-925,-677,-269,57,234,226,202,151,94,139,196,155,99,60,66,89,107,138,147,161,152,120,75,-11,-100,-114,-147,-197,-231,-233,-250,-258,-235,-229,-143,-114,-104,-60,-37,-69,-95,-117,-100,-163,-131,-94,-62,-76,-229,-534,-190,839,1201,679,-478,-905,-750,-376,-127,102,138,84,35,-31,-162,-33,-74,-62,115,85,100,165,202,103,135
2018-05-17,10:33:43.290,213,125,-42,-172,-96,98,70,-168,-124,-5,-16,-107,-77,-11,-42,42,60,-28,0,-45,-71,-52,-8,36,13,-92,-89,-69,-150,-541,-932,-217,1061,1073,33,-1044,-1277,-997,-538,-237,-106,-81,-83,-81,-94,-88,-81,-28,-54,-26,-37,-46,-22,-6,45,17,33,40,-16,-40,-132,-265,-365,-439,-475,-481,-490,-456,-406,-370,-368,-302,-196,-182,-177,-101,-89,-155,-178,-258,-344,-180,-94,-169,-205,-327,-832,-886,501,1716,1221,-147,-951,-963,-714,-301,47,81,50,56,33,-137,-97,28,36,273,296,312,498,535,471,454,459,459,365,319,278,176,108,28,-22,-42,-71,-85,-117,-132,-124,-96
2018-05-17,10:33:44.328,-93,-74,54,122,33,-42,-105,-138,-170,-149,-115,-105,-148,-203,-497,-610,300,1239,979,-203,-993,-1001,-525,-116,34,183,204,231,218,172,208,249,197,237,265,291,324,318,306,351,337,284,260,276,208,140,68,24,-71,-107,-64,-73,-151,-173,-181,-123,-106,-96,-18,34,-87,-41,85,-2,-4,-3,8,-73,-235,-660,-659,515,1405,1227,92,-979,-973,-273,105,171,123,112,106,9,183,254,165,182,268,330,350,315,270,305,348,262,140,101,92,12,-167,-268,-329,-301,-283,-268,-273,-304,-240,-183,-183,-143,-87,-66,-79,-121,-166,-204,-248,-245,-206,-155,-145,-419,-828,-67,1355,1455
2018-05-17,10:33:45.365,259,-1199,-1362,-939,-330,39,181,219,286,318,326,363,389,320,329,371,357,435,486,474,357,235,67,-170,127,284,12,-264,-116,-37,-301,-318,-144,-14,33,56,-4,-69,-123,-22,49,-65,21,14,-4,20,29,-107,-117,37,-58,-919,-1208,445,1857,1508,-57,-1121,-1227,-788,-387,-147,-23,-32,-65,-5,35,-45,-132,-112,-127,-119,-38,-16,-20,-42,-45,-76,-126,-158,-228,-287,-420,-506,-572,-563,-540,-570,-524,-504,-552,-519,-476,-465,-488,-401,-397,-389,-387,-407,-423,-424,-397,-363,-351,-346,-578,-893,-312,799,914,28,-1013,-1145,-945,-601,-363,-271,-265,-91,23,-264,-89,251,-26,-77,179,302
2018-05-17,10:33:46.402,221,183,153,128,59,147,116,67,27,-65,19,19,48,20,-100,-117,-83,-197,-156,-71,-23,28,136,145,196,153,175,141,82,87,73,19,30,-54,-387,-202,772,1162,659,-365,-792,-663,-226,83,308,346,277,258,415,407,410,384,346,379,417,435,513,554,593,560,531,509,449,412,315,236,164,140,123,110,154,147,143,122,187,324,313,274,292,293,360,358,270,136,-32,24,167,88,32,-131,-397,-295,899,1894,1205,-48,-532,-537,-239,-27,142,117,-9,152,384,428,297,312,347,445,432,394,384,367,419,352,298,418,463,325,337,106,-38,-69,-131,-75,-65,-187
2018-05-17,10:33:47.439,-169,-174,-264,-243,-236,-199,-91,-94,-173,-191,-194,-228,-257,-238,-245,-200,-233,-468,-909,-317,1094,1340,306,-1006,-1274,-897,-353,-84,89,109,69,47,74,91,112,146,190,190,209,260,315,330,312,312,333,236,109,-30,-108,-120,-147,-162,-235,-396,-634,-471,-116,-162,-278,-333,-63,35,-115,-245,-142,-64,-164,-264,-266,-160,-83,-344,-561,-188,738,1068,484,-586,-875,-742,-387,-188,100,107,126,194,219,254,269,226,142,-1,49,258,262,293,296,222,105,59,-94,-207,-218,-241,-246,-258,-281,-308,-273,-307,-328,-283,-270,-249,-218,-213,-238,-295,-331,-342,-331,-319,-319,-297,-297,-545,-996,-352
2018-05-17,10:33:48.476,973,1060,47,-1228,-1407,-1008,-491,-183,-36,-22,-17,46,141,143,59,4,16,15,203,295,235,111,65,164,-14,-494,-99,110,-201,-370,-264,-193,-275,-308,-362,-322,-355,-398,-421,-238,3,64,89,-12,-154,-181,-82,-39,-20,-25,-258,-567,-972,-844,774,1939,1583,-32,-1127,-1240,-894,-387,140,313,227,209,182,106,52,93,234,243,267,273,351,358,326,335,341,292,216,147,66,-42,-142,-186,-217,-224,-230,-216,-188,-151,-121,-65,-40,43,41,-36,-52,-58,-105,-80,-53,-4,-9,-6,-162,-548,-122,1073,1380,552,-692,-1093,-718,-157,89,138,154,92,-50,42,125,154,114,50,239,397
2018-05-17,10:33:49.514,441,318,263,267,279,105,-29,211,331,197,77,17,8,-35,-161,-236,-33,142,108,-64,-176,-173,-93,150,211,-52,-266,-59,312,199,-50,-57,-181,-506,-358,533,895,421,-593,-1115,-994,-561,-194,-5,30,53,83,62,102,135,139,101,150,147,181,214,191,176,218,210,200,206,178,76,-68,-189,-218,-226,-235,-238,-211,-154,-148,-105,-70,-58,26,70,106,145,57,-152,-211,-36,-20,-106,-161,-279,-647,-579,470,1375,1047,-115,-801,-690,-463,-366,-85,33,-38,-96,-171,-66,98,263,61,-74,128,351,454,368,119,225,364,312,143,135,235,75,-150,-120,10,94,-170,-150,-201,-123
2018-05-17,10:33:50.551,24,142,97,49,46,-27,-126,-170,-190,-198,-191,-148,-144,-146,-172,-480,-662,258,1122,854,-340,-1212,-1218,-717,-271,-46,10,66,103,121,125,180,159,155,136,126,163,176,173,186,194,170,96,98,36,-5,-145,-140,-122,-311,-355,-470,-446,-296,-236,-242,-313,-320,-314,-368,-388,-448,-695,-574,-374,-298,-118,-265,-513,-819,-477,501,752,271,-665,-1146,-860,-332,-66,-101,-270,-143,58,116,104,-174,-117,135,210,138,215,79,334,364,56,144,376,420,284,50,-76,-147,-234,-309,-363,-331,-329,-261,-232,-223,-116,-75,-98,-144,-110,-120,-196,-168,-129,-128,-151,-395,-829,-277,1297,1637,596,-869
2018-05-17,10:33:51.588,-1176,-884,-349,-30,163,239,251,250,266,309,329,378,414,460,477,571,639,588,534,518,492,528,539,332,120,-60,-89,-110,-201,-101,-67,-177,-187,8,33,76,101,72,116,-16,-15,-30,-92,-145,-110,-136,-570,-773,320,1859,1774,343,-841,-826,-690,-457,149,299,165,128,249,374,275,439,372,423,427,368,394,370,300,257,228,145,47,-20,-98,-139,-181,-227,-270,-283,-278,-289,-247,-230,-201,-145,-115,-118,-149,-179,-187,-223,-208,-186,-176,-169,-155,-282,-638,-337,652,911,332,-731,-1039,-790,-311,14,143,156,170,212,226,133,69,87,218,212,167,128,91,24,-27,-3,-37,66
2018-05-17,10:33:52.625,88,-117,-119,-95,-194,-108,-116,-174,-148,-137,-139,-217,-196,-20,145,172,-12,-62,6,-64,-219,-176,-142,-91,-210,-839,-703,745,1670,1191,-242,-1184,-1038,-180,238,124,20,37,87,107,82,19,-11,-6,57,72,113,179,187,206,174,154,169,115,30,-89,-209,-333,-386,-419,-442,-380,-271,-217,-147,-119,-104,-65,-24,-42,-94,-113,-161,-184,-127,-76,-76,-48,-340,-914,-205,1585,1989,724,-878,-1313,-879,-281,-15,37,0,-57,10,227,163,-152,64,173,75,183,256,329,359,309,241,111,68,97,-69,-78,77,-85,-89,-87,-97,-221,-383,-271,-166,-13,206,109,-178,7,119,14,64,-149
2018-05-17,10:33:53.662,-184,-21,-2,-118,-558,-366,742,972,203,-892,-1215,-1018,-508,-172,-5,53,66,74,103,74,64,107,93,166,142,148,163,174,188,137,131,124,128,109,61,-15,-96,-148,-154,-186,-171,-161,-124,-43,23,51,125,116,133,168,145,78,39,-23,-13,145,158,-111,-464,-56,769,1028,384,-454,-717,-620,-199,86,169,251,215,238,165,43,133,297,253,188,299,240,288,362,264,320,308,70,91,338,-31,-358,-113,-24,-71,-55,-110,-262,-312,-323,-226,-235,-237,-272,-311,-367,-506,-676,-727,-729,-720,-757,-782,-937,-1253,-755,302,351,-628,-1778,-2076,-1674,-1155,-842,-721,-692,-728,-793,-780,-754
2018-05-17,10:33:54.700,-731,-694,-657,-635,-621,-606,-614,-624,-649,-695,-733,-790,-859,-938,-1017,-1105,-1170,-1189,-1169,-1137,-1100,-1128,-1109,-1075,-939,-828,-782,-744,-820,-941,-898,-931,-1105,-997,-771,-877,-896,-1032,-1151,-186,876,789,-289,-1219,-1323,-1052,-528,-274,-140,267,301,78,206,438,533,443,457,588,854,816,766,994,1125,1175,1140,1025,973,1005,963,952,957,958,1023,1027,940,921,987,979,1037,1099,1111,1104,1084,1069,983,934,981,979,964,936,610,478,1414,2289,2000,854,101,159,528,840,1020,1111,1116,1108,1053,1059,1072,1087,1091,1110,1155,1156,1140,1116,1105,1115,1136,1047,893,699,669,757,609,435,366,327,267,104
2018-05-17,10:33:55.737,118,70,27,566,454,214,141,173,98,78,135,66,73,11,-618,-1111,306,2045,2079,436,-944,-962,-724,-476,-131,104,7,-55,-77,92,166,41,52,55,216,273,169,191,270,355,349,273,127,-87,-263,-339,-405,-431,-428,-448,-453,-453,-404,-365,-389,-260,-200,-270,-338,-344,-369,-414,-404,-363,-350,-359,-551,-800,-106,982,932,-160,-1290,-1350,-940,-374,-37,99,106,121,127,167,219,215,195,207,228,198,220,341,297,232,148,-19,-215,-344,-259,-184,-253,-359,-324,-543,-476,-271,-263,-208,-168,-127,-131,-208,-307,-301,-394,-121,-63,-53,-102,-455,-513,-439,-633,-44,827,954,-1,-1032,-983,-436
2018-05-17,10:33:56.774,-356,-40,88,-20,-24,134,166,49,2,77,47,-39,-58,-34,-69,-14,0,-40,-40,-40,-113,-186,-224,-277,-319,-270,-306,-346,-356,-329,-320,-323,-243,-116,-89,-95,-98,-105,-125,-187,-235,-241,-218,-234,-584,-738,337,1462,1179,-165,-1186,-1053,-510,-122,132,145,17,23,195,274,216,139,121,131,20,-182,-38,293,319,82,114,167,151,58,-93,-172,-195,-207,-170,-261,-242,-298,-241,3,65,-26,48,78,-32,-161,-256,-303,-147,-183,-254,-595,-328,-70,-477,55,1441,1514,117,-1130,-1283,-914,-430,-166,-47,-19,-35,-23,6,21,40,77,97,108,150,175,181,211,194,153,134,48,-43,-115
2018-05-17,10:33:57.811,-175,-220,-271,-267,-228,-208,-229,-255,-225,-251,-201,-100,-24,-34,-2,14,16,16,30,-18,-22,35,-71,-548,-293,742,1174,677,-493,-907,-790,-433,-164,12,-26,-69,-66,219,111,62,67,48,266,350,341,252,77,118,300,143,288,260,228,17,-6,-36,-245,-117,64,-111,-226,-48,76,70,236,252,82,119,236,138,-89,-196,-94,-50,-76,-200,-596,-669,245,846,417,-608,-1181,-1107,-632,-228,-4,77,63,106,99,98,113,72,42,90,120,133,179,192,238,270,225,194,142,12,-112,-180,-256,-259,-200,-192,-188,-157,-102,-41,-17,58,113,94,40,31,58,28,-42,-123,-109,-167
2018-05-17,10:33:58.848,-266,-293,-513,-575,477,1565,1340,71,-1024,-975,-485,-247,-92,-170,-175,27,63,-85,61,129,101,128,255,200,-117,-190,183,160,-23,-48,-227,-175,-11,-316,-457,-327,-287,-387,-451,-532,-573,-575,-542,-546,-540,-594,-661,-642,-652,-654,-616,-621,-587,-589,-612,-822,-1130,-592,492,614,-351,-1477,-1675,-1311,-824,-543,-354,-337,-324,-260,-201,-214,-201,-199,-168,-108,-75,-67,-23,2,1,-34,-41,-88,-121,-158,-220,-266,-291,-389,-371,-243,-288,-330,-280,-340,-497,-191,-16,-327,-250,31,-26,-71,-129,-210,-222,-310,-613,-421,552,1368,905,-282,-764,-588,-251,-188,63,336,327,348,323,106,0,314,556,501
2018-05-17,10:33:59.885,565,547,573,603,623,555,500,591,580,381,310,240,119,72,86,66,33,71,134,147,186,222,226,201,168,157,127,120,161,154,96,-128,-640,-243,1317,1935,1082,-388,-866,-699,-279,93,351,430,478,514,507,564,581,588,634,697,707,736,762,777,779,700,636,613,579,416,198,-55,-36,-27,-140,-102,-78,-143,201,123,26,254,208,-31,42,159,158,-116,-145,-29,11,-156,-727,-224,1200,1595,628,-770,-1192,-989,-454,83,431,166,21,398,482,362,477,341,266,326,413,381,382,367,299,141,31,-124,-216,-255,-257,-249,-257,-238,-205,-197,-209,-163,-130,-95,-44,-19,-14,-113
2018-05-17,10:34:00.923,-153,-124,-108,-108,-111,-79,-27,-153,-485,-179,764,1001,360,-655,-959,-703,-210,110,266,304,290,276,286,347,419,429,344,277,258,313,301,295,220,167,95,-42,-312,-256,-178,-223,-198,-151,-141,-111,-179,-203,-336,-227,2,136,25,-97,-142,-274,-254,-313,-277,-303,-267,-464,-949,-900,536,1440,816,-519,-1336,-1280,-717,-340,-103,-167,-234,-217,-232,-245,-228,-324,-362,-303,-256,-205,-190,-176,-169,-153,-189,-273,-330,-375,-438,-485,-490,-529,-580,-580,-559,-511,-476,-437,-375,-250,-167,-190,-214,-192,-236,-273,-255,-180,-162,-146,-426,-939,-244,1394,1815,658,-852,-1110,-706,-211,36,140,209,335,358,368
2018-05-17,10:34:01.960,236,131,92,113,418,542,518,508,379,370,425,510,426,323,319,60,-58,58,55,20,62,142,51,-97,-14,132,336,399,98,-174,-217,17,206,30,107,236,118,-264,-204,632,1133,886,-122,-772,-760,-413,-61,150,206,146,188,247,285,311,362,367,370,386,391,441,445,399,343,334,246,149,106,76,30,34,-4,-6,-14,-32,-59,-17,37,69,150,188,151,142,101,62,35,64,79,110,149,-92,-480,18,1000,1143,335,-709,-926,-497,-329,-179,112,-100,-305,106,479,425,355,255,169,82,143,223,108,123,26,140,238,133,47,18,-38,-230,-435,-278,-7,-20,-268,-230
2018-05-17,10:34:02.997,-1,-81,-124,-14,-33,-178,-57,-79,-198,-136,-85,-176,-236,-407,-780,-751,233,793,282,-737,-1351,-1229,-702,-260,-30,51,51,41,43,37,60,89,58,49,110,175,241,279,274,232,203,163,67,-65,-154,-238,-268,-293,-261,-241,-224,-248,-228,-193,-137,-42,70,-13,-154,-184,-148,-124,-148,-187,-272,-359,-456,-672,-1021,-116,1303,1492,255,-1065,-1091,-479,-272,-231,-174,-204,-263,-86,-65,-223,-177,227,358,302,215,105,70,47,42,341,294,5,-52,-138,-242,-120,-136,-131,-158,-209,-298,-277,-191,-192,-127,-73,-153,-238,-323,-346,-363,-365,-300,-251,-228,-280,-524,-597,209,966,680,-385,-1112,-1021
2018-05-17,10:34:04.034,-599,-165,39,128,122,158,181,187,193,179,212,219,259,283,288,302,298,307,241,225,192,105,28,21,4,-15,-30,-110,-83,-48,-13,-54,-70,-150,-236,-23,88,-47,-233,-204,-115,-29,79,-35,-364,-299,753,1349,855,-377,-833,-663,-210,170,388,268,122,116,210,221,146,204,91,239,405,430,371,245,394,381,282,115,43,130,-66,-235,-227,-229,-304,-321,-420,-463,-465,-416,-337,-313,-362,-411,-447,-494,-509,-530,-538,-527,-546,-817,-1253,-671,742,907,-166,-1388,-1535,-1270,-872,-626,-480,-466,-448,-440,-436,-398,-375,-336,-280,-244,-167,-108,-72,-49,-66,-67,-63,-137,-263,-381,-530,-530
2018-05-17,10:34:05.071,-485,-552,-587,-620,-660,-593,-482,-376,-405,-478,-346,-375,-277,-229,-290,-274,-271,-289,-668,-1326,-758,1051,1894,886,-810,-1545,-1233,-520,-190,-141,-80,-197,-158,192,288,272,266,282,399,503,602,583,541,485,420,315,262,100,-40,-71,-135,-149,-115,-79,-43,-16,48,98,175,218,200,141,187,184,166,156,89,106,125,7,-308,7,1091,1409,766,-380,-729,-497,-13,338,510,562,575,615,620,630,696,686,691,765,789,719,691,614,712,769,648,480,319,221,98,-3,125,205,170,285,187,23,66,279,385,305,147,52,-18,77,21,18,98,135,34,-307,-394,438,1275,1012,-153,-873
2018-05-17,10:34:06.109,-980,-225,133,13,39,91,213,147,76,109,150,208,236,253,319,332,177,103,78,12,-92,-154,-203,-285,-310,-313,-303,-287,-284,-266,-202,-177,-166,-109,-109,-79,-71,-107,-137,-112,-110,-51,-12,-18,-100,-472,-463,812,1751,1295,-166,-975,-761,-223,205,476,565,595,689,680,581,592,613,713,822,865,803,744,723,687,527,501,641,619,559,322,241,211,210,376,166,106,208,212,204,223,117,308,463,607,507,95,104,363,230,160,173,-332,-703,365,1563,1471,161,-888,-890,-397,-23,166,227,193,260,212,152,101,90,120,175,251,259,251,223,232,212,152,68,-33,-93,-171
2018-05-17,10:34:07.146,-200,-241,-264,-245,-225,-211,-208,-190,-176,-139,-85,-91,-114,-147,-149,-172,-185,-161,-131,-118,-117,-262,-603,-265,721,1015,417,-665,-1052,-895,-431,-59,54,-9,-75,-224,-273,-243,-193,-40,78,67,143,31,21,-10,-76,-7,76,-157,-331,-118,-112,-224,-254,-154,-194,-333,-328,-296,-230,-246,-249,-202,-267,-243,-238,-335,-302,-228,-205,-282,-410,-570,-943,-405,981,1071,-30,-1240,-1524,-1239,-687,-371,-207,-143,-100,-115,-122,-105,-81,-36,22,94,98,113,119,113,75,27,24,-53,-190,-275,-364,-395,-445,-410,-399,-432,-423,-354,-297,-269,-247,-143,-91,-114,-130,-156,-158,-157,-106,-133,-174,-240,-569,-945
2018-05-17,10:34:08.183,67,1647,1531,22,-1299,-1380,-715,-157,-26,-44,40,-4,21,125,88,37,40,-28,159,243,148,285,446,426,300,51,260,177,-40,-182,-257,-313,-453,-313,-77,22,-141,-192,-127,73,110,44,-34,-83,-127,-163,-122,-118,-186,-220,-401,-715,-280,712,899,178,-835,-1102,-862,-359,-32,109,127,190,189,165,156,156,212,237,262,273,280,286,302,258,211,200,120,32,-23,-66,-127,-111,-75,-82,-102,-96,-3,67,40,52,33,71,146,132,92,-70,-142,-186,-328,-212,-276,-383,-410,271,1145,1081,96,-732,-828,-435,-195,19,65,55,116,34,-65,164,363,239,164,184,249,303,96,233
2018-05-17,10:34:09.220,337,220,174,43,-39,0,-24,-68,-171,-123,-112,-115,-113,-131,-110,-94,-83,-166,-189,-194,-252,-281,-277,-275,-238,-223,-210,-429,-791,-147,1162,1312,89,-1173,-1326,-899,-448,-156,13,50,81,101,130,162,184,193,259,317,378,404,407,403,386,354,312,218,87,18,-74,-75,-91,-208,-298,-311,-213,-108,-65,-85,-41,-73,-188,-274,-375,-242,-39,-153,-385,-460,-165,-339,-874,-244,1331,1799,693,-928,-1309,-940,-447,-210,-73,175,247,158,97,22,14,144,369,380,332,195,226,297,370,375,340,191,79,27,-36,-171,-259,-268,-248,-310,-273,-250,-233,-223,-161,-146,-122,-151,-160,-185,-206,-214
2018-05-17,10:34:10.257,-198,-157,-157,-408,-714,-87,944,1022,83,-900,-994,-637,-220,6,130,162,194,216,230,245,282,310,342,382,405,427,463,417,404,422,395,362,239,123,-17,-4,75,67,31,-11,-43,-91,-90,35,176,-65,-103,-6,52,25,65,50,75,44,-248,-594,-59,956,1082,442,-497,-761,-579,-255,-70,-54,-287,-398,-55,52,-49,-19,102,124,139,-76,-66,53,56,20,-25,-123,-316,-440,-509,-559,-636,-653,-621,-635,-645,-605,-562,-530,-456,-437,-460,-514,-550,-526,-540,-558,-560,-535,-539,-682,-1201,-967,575,1375,622,-860,-1394,-1255,-857,-490,-300,-234,-201,-151,-118,-71,-42,36,106,152,196,276
2018-05-17,10:34:11.295,393,354,339,295,201,208,136,38,-46,-204,-278,-173,-100,-255,-248,-112,-123,23,236,203,30,4,117,38,-27,-111,-185,-91,-43,-513,-834,204,1641,1672,354,-982,-1038,-604,-82,207,177,-15,-23,296,517,459,276,414,475,488,589,625,518,476,495,478,375,182,65,-46,-114,-113,-88,-93,-70,-25,-4,-39,-19,103,122,116,112,85,18,-49,-46,-41,-62,-24,-96,-437,-350,639,1216,770,-387,-1008,-841,-303,64,222,298,319,346,366,389,393,418,426,421,456,447,364,294,389,406,337,242,112,26,-15,-106,-161,-281,-260,-43,22,14,-65,50,153,145,57,2,-48,-44,-27
2018-05-17,10:34:12.332,-54,-48,-131,-70,-240,-511,34,935,1157,337,-687,-890,-528,-112,93,162,128,204,171,0,-34,50,332,362,225,218,260,272,194,122,31,-50,-114,-186,-250,-233,-199,-200,-177,-201,-193,-187,-206,-165,-75,-27,-47,-81,-107,-145,-156,-146,-192,-170,-156,-143,-364,-781,-158,1141,1390,381,-859,-1075,-723,-290,-39,102,142,207,196,182,152,110,81,148,314,396,406,398,357,167,210,133,-120,166,174,-17,-168,-160,-6,101,103,-36,-11,59,48,-17,-5,119,184,260,196,-70,-78,-23,-28,78,32,-305,-647,74,1379,1415,171,-985,-961,-574,-266,-102,24,-2,8,12,-40,-21,5,-12
2018-05-17,10:34:13.369,1,38,115,125,128,127,87,42,-46,-136,-205,-288,-324,-349,-397,-398,-383,-401,-407,-401,-375,-314,-287,-250,-236,-223,-246,-294,-329,-322,-313,-334,-296,-329,-620,-890,-16,1139,1076,-156,-1208,-1274,-834,-336,-70,48,57,57,70,17,-14,-40,14,202,306,331,334,130,140,345,219,77,107,114,9,-80,-118,-114,-106,-99,-133,-131,-49,-41,-56,34,76,50,21,-15,-37,-65,-76,-50,-46,-90,-421,-799,8,1410,1593,383,-894,-1123,-728,-248,6,129,165,213,201,239,264,296,304,324,374,408,455,444,430,400,341,280,166,63,-7,-85,-129,-134,-142,-160,-143,-128,-141,-70,-43,-91
2018-05-17,10:34:14.406,-4,49,15,16,-24,-69,-97,-102,-82,-52,-49,-210,-729,-599,832,1795,1064,-566,-1337,-1083,-484,-124,90,137,136,153,176,187,201,226,243,255,287,309,331,336,312,273,203,147,53,-113,-221,-193,-198,-263,-265,-193,-214,-173,-144,-168,-144,-64,-15,-29,-52,-79,-101,-121,-155,-173,-163,-161,-319,-896,-782,834,1969,1230,-537,-1284,-1046,-567,-240,-15,18,12,35,73,96,94,116,144,211,260,286,305,298,266,217,155,60,-63,-169,-232,-287,-330,-344,-314,-313,-303,-302,-278,-263,-235,-156,-94,-118,-149,-160,-183,-217,-214,-201,-189,-176,-268,-673,-695,410,1267,852,-425,-1134,-1043,-550,-200
2018-05-17,10:34:15.443,-23,48,51,59,75,86,94,112,130,144,166,198,200,172,169,174,114,57,-1,-37,-82,-116,-143,-151,-156,-158,-168,-157,-120,-97,-87,-49,-4,-3,-20,-47,-78,-105,-102,-77,-77,-106,-188,-479,-462,388,1041,793,-177,-783,-740,-387,-115,42,84,80,80,105,109,111,149,157,173,210,232,226,211,206,177,152,117,58,9,-45,-86,-110,-125,-141,-135,-118,-113,-98,-78,-70,-30,7,20,11,-27,-79,-113,-129,-119,-104,-80,-219,-604,-530,468,1196,826,-326,-952,-794,-369,-133,-24,14,42,59,53,78,122,127,146,158,192,222,241,248,215,178,137,101,42,-22,-80,-117
2018-05-17,10:34:16.481,-162,-179,-179,-171,-176,-163,-134,-112,-105,-75,-4,17,0,-36,-81,-125,-134,-117,-96,-135,-197,-525,-704,222,1214,1017,-165,-1100,-1095,-580,-188,16,50,28,31,64,81,89,96,115,143,180,202,225,231,206,161,129,80,21,-56,-114,-166,-189,-188,-219,-213,-195,-173,-163,-152,-134,-128,-74,-14,-25,-50,-56,-93,-119,-110,-106,-98,-96,-285,-789,-446,938,1566,735,-746,-1188,-850,-346,-57,55,75,80,93,99,124,158,171,201,246,280,287,295,283,270,251,184,105,5,-60,-121,-172,-181,-186,-169,-159,-136,-116,-112,-80,-61,-72,0,42,30,-4,-42,-69,-99,-86,-77,-74,-96
2018-05-17,10:34:17.518,-459,-871,-49,1315,1484,239,-1025,-1179,-713,-318,-127,-63,-47,-36,-49,-39,-6,36,64,69,78,88,84,62,23,-10,-47,-112,-182,-262,-316,-367,-413,-409,-406,-423,-448,-444,-437,-413,-391,-383,-377,-332,-309,-333,-352,-376,-389,-406,-425,-400,-394,-533,-862,-683,225,646,177,-818,-1188,-1021,-635,-364,-229,-205,-204,-194,-172,-158,-128,-122,-88,-53,-18,-23,-1,-3,-4,-7,-46,-75,-121,-164,-181,-191,-193,-174,-166,-160,-136,-132,-124,-100,-50,-21,33,52,38,17,0,16,55,60,55,69,32,-222,-323,346,1001,925,155,-452,-472,-181,57,190,216,230,239,231,255,259,301,327,364,387
2018-05-17,10:34:18.555,398,409,388,347,342,325,307,260,227,195,183,184,167,181,193,195,193,182,214,220,218,253,261,255,242,188,163,172,148,143,152,139,-5,-215,174,886,1085,562,-213,-400,-207,30,156,231,229,208,217,216,245,248,260,267,292,283,279,283,254,222,231,202,135,84,48,26,8,11,25,25,23,7,-11,7,27,43,59,72,64,48,38,27,3,-13,-8,9,23,-48,-328,-252,496,998,736,-102,-569,-493,-213,-32,100,140,118,90,90,105,121,128,147,181,195,202,218,194,192,170,135,74,15,-25,-61,-95,-94,-90,-87,-95,-88,-80,-65,-64,-52,-31
2018-05-17,10:34:19.592,31,11,-4,-9,-19,-59,-84,-94,-77,-70,-126,-396,-500,155,895,817,5,-705,-764,-416,-141,5,31,30,26,24,33,66,83,91,119,156,172,181,177,148,121,97,49,-3,-51,-98,-118,-133,-140,-153,-156,-157,-137,-138,-107,-87,-63,-37,23,21,-1,-37,-64,-66,-82,-77,-48,-61,-203,-510,-317,548,995,597,-422,-886,-612,-232,-45,16,21,29,34,33,51,99,108,150,166,179,196,201,167,125,81,48,16,-37,-95,-152,-157,-150,-183,-160,-159,-157,-130,-136,-125,-104,-97,-58,23,6,-9,-46,-67,-86,-123,-115,-95,-85,-190,-592,-497,574,1342,931,-511,-1211,-858,-364
2018-05-17,10:34:20.629,-82,50,39,43,40,37,94,125,155,170,226,283,290,291,299,268,225,155,66,-41,-134,-198,-234,-241,-254,-243,-226,-212,-196,-178,-160,-145,-128,-115,-75,-3,-3,-17,-30,-55,-63,-65,-69,-54,-43,-156,-642,-571,757,1623,968,-672,-1323,-1046,-378,-1,169,210,235,224,232,239,257,274,301,324,343,338,337,327,304,260,210,150,53,-36,-53,-77,-105,-130,-109,-103,-128,-142,-157,-150,-152,-166,-153,-116,-106,-130,-168,-226,-260,-267,-276,-286,-299,-388,-704,-649,199,631,202,-826,-1226,-1067,-680,-459,-323,-287,-298,-308,-295,-295,-311,-301,-287,-282,-272,-288,-314,-348,-378,-407,-455,-503
2018-05-17,10:34:30.170,-1636,-1461,-1490,-1591,-1531,-1763,-1584,-1570,-1780,-2221,-1818,-778,-315,111,194,101,549,1134,1514,1801,1813,2171,2290,2325,2076,2410,2455,2059,1857,1627,1480,1380,1294,1077,910,835,739,782,741,620,473,499,583,549,575,554,449,94,-364,312,1719,1781,452,-840,-992,-595,-107,94,125,68,0,-125,-276,-345,-481,-546,-575,-621,-671,-757,-766,-828,-955,-1010,-995,-1212,-1331,-1386,-1557,-1745,-1863,-2024,-2159,-2217,-2232,-2268,-2175,-2078,-1856,-1770,-1657,-1330,-1052,-1221,-1308,-793,-514,-429,272,965,564,800,2242,1699,917,113,436,2049,2828,2038,174,-563,-532,-194,81,350,337,396,452,391,397,450,553,589,592,716,828,988
2018-05-17,10:34:31.995,883,771,763,616,444,288,195,99,31,-45,-173,-202,-285,-401,-527,-613,-780,-807,-859,-881,-870,-846,-731,-763,-761,-730,-831,-774,-729,-737,-807,-809,-863,-1132,-1488,-1208,-309,-7,-855,-1894,-1798,-1467,-1356,-1141,-1209,-367,781,-610,-4,1712,1898,1151,883,1767,2451,2408,2373,2456,1633,1596,1900,1206,919,1100,1031,883,554,439,479,470,393,386,433,451,411,513,513,552,770,727,677,734,658,540,531,431,291,197,133,-12,-486,-449,326,737,249,-884,-1240,-1182,-986,-747,-750,-814,-786,-834,-915,-1051,-1127,-1182,-1371,-1561,-1622,-1690,-2212,-1854,-1027,-1081,-684,-47,-574,-397,36,117,910,1349,1099,1657,2056,1923
2018-05-17,10:34:33.032,1722,1341,1334,1646,1534,1135,1188,1218,899,598,329,407,377,211,199,197,213,-50,-660,-191,1600,2502,1534,-283,-769,-537,-168,70,179,131,125,158,68,0,-74,-222,-320,-401,-503,-589,-576,-675,-747,-830,-987,-1053,-1183,-1234,-1189,-1238,-1296,-1330,-1471,-1660,-1881,-1932,-1908,-1834,-1684,-1573,-1590,-1550,-1462,-1337,-1161,-1139,-1152,-1132,-828,-489,-358,-259,-220,203,341,207,1215,2555,2808,2021,917,434,498,760,887,846,817,735,703,575,414,430,490,522,474,546,529,491,461,436,419,295,175,109,129,164,235,170,147,94,61,74,15,49,46,37,-6,-103,-172,-130,-215,-349,-404,-465,-491,-461,-379,-410
