2018-05-17,14:30:04.708,-905,-904,-905,-914,-918,-936,-959,-995,-1043,-1070,-1076,-1056,-1010,-946,-875,-820,-764,-682,-526,-300,-27,255,506,672,740,747,724,682,638,580,521,465,417,414,411,389,370,368,363,320,280,258,223,60,-138,-229,-226,-317,-353,-147,-35,19,81,124,115,97,73,22,-22,-230,-930,-1773,-2511,-173,1745,2672,2270,940,-323,-894,-1110,-1102,-1076,-1069,-1062,-1044,-1016,-1011,-1014,-1020,-1034,-1055,-1076,-1076,-1079,-1073,-1033,-966,-888,-804,-721,-645,-550,-390,-152,123,407,646,791,851,869,869,851,818,797,794,799,794,794,820,835,844,859,868,878,876,883,864,744,599,559,558,489,460,668,784,848,891
2018-05-17,14:30:06.545,908,910,901,861,815,771,485,-283,-1072,-1666,354,1876,2705,2624,1689,548,-23,-283,-326,-341,-376,-402,-407,-445,-465,-498,-538,-575,-606,-649,-692,-728,-730,-719,-677,-631,-594,-570,-524,-455,-330,-124,98,320,500,604,629,620,600,558,522,474,429,400,378,354,338,338,347,350,336,332,320,286,285,278,227,49,-133,-193,-147,-129,-147,15,66,144,217,246,240,228,193,178,127,-243,-992,-1757,-1713,761,2147,2640,1875,516,-473,-881,-949,-917,-928,-923,-911,-907,-908,-915,-927,-959,-1007,-1027,-1069,-1120,-1157,-1173,-1160,-1111,-1075,-1014,-950,-862,-742,-551,-262,41,321,560,690,735,747,711,673,621
2018-05-17,14:30:07.582,554,503,473,457,443,443,450,459,463,468,449,443,430,395,370,339,308,280,146,-71,-208,-154,-98,-157,-56,28,63,158,197,200,181,141,90,45,-129,-777,-1556,-2336,-143,1785,2647,2255,909,-383,-958,-1176,-1157,-1130,-1149,-1141,-1124,-1122,-1125,-1137,-1145,-1179,-1202,-1233,-1267,-1285,-1297,-1298,-1261,-1204,-1151,-1095,-1032,-930,-755,-476,-161,135,387,572,665,680,667,638,587,534,506,500,485,473,479,497,516,538,553,547,537,528,526,503,501,499,493,479,463,370,205,123,187,265,236,355,479,564,684,756,784,776,758,748,743,618,48,-720,-1591,528,2587,3559,3289,1963,595,31,-174,-171
2018-05-17,14:30:08.619,-145,-125,-96,-88,-78,-62,-59,-48,-58,-77,-105,-158,-218,-263,-258,-256,-226,-195,-168,-125,-46,93,306,547,812,1037,1159,1183,1180,1139,1023,908,820,747,688,616,526,475,442,412,385,374,340,310,267,236,205,147,95,47,12,-36,-59,-81,-112,-124,-268,-450,-494,-466,-494,-489,-326,-287,-216,-148,-118,-126,-161,-186,-210,-242,-567,-1300,-2310,-2223,597,1958,2484,1671,252,-760,-1191,-1274,-1238,-1227,-1221,-1198,-1163,-1125,-1121,-1123,-1131,-1148,-1167,-1170,-1170,-1186,-1172,-1128,-1073,-1001,-909,-877,-828,-728,-565,-307,-57,201,415,567,644,649,602,565,512,472,417,376,355,346,350,329,324,331,346,345
2018-05-17,14:30:09.656,349,317,286,273,239,203,156,140,107,64,-53,-211,-254,-231,-265,-322,-200,-135,-86,-20,12,6,-17,-44,-58,-104,-317,-1046,-1797,-2508,-391,1180,2064,2066,1210,14,-579,-860,-908,-906,-918,-930,-920,-922,-923,-913,-914,-923,-938,-965,-991,-1020,-1040,-1023,-960,-870,-776,-708,-640,-536,-400,-218,25,257,460,578,607,613,583,540,484,428,376,312,285,283,264,258,270,259,262,285,267,256,250,260,277,270,256,233,210,180,160,134,111,98,64,-55,-215,-273,-219,-183,-204,-54,-11,54,147,205,202,176,165,159,107,-259,-1005,-1802,-1571,958,2313,2803,1976,579,-435,-873,-969,-923,-890,-894
2018-05-17,14:30:10.694,-887,-871,-866,-866,-868,-888,-921,-947,-979,-1027,-1052,-1068,-1051,-1023,-968,-897,-824,-751,-593,-345,-35,271,557,794,946,1019,1017,1038,1075,1022,937,857,787,728,694,665,645,633,645,633,590,558,546,521,484,434,399,368,346,304,262,236,204,164,145,120,89,26,-149,-293,-275,-228,-245,-188,-84,-44,73,151,169,161,148,132,105,-10,-625,-1335,-2267,-371,1747,2694,2585,1392,2,-673,-933,-952,-940,-928,-911,-908,-888,-867,-864,-873,-892,-908,-957,-999,-1030,-1062,-1047,-1015,-973,-922,-835,-759,-662,-489,-226,87,396,657,867,996,1012,978,924,852,774,703,631,612,579,532,517,500,497,492
2018-05-17,14:30:11.731,491,493,495,497,483,452,434,391,347,324,305,271,252,235,217,178,155,141,128,106,89,16,-160,-262,-197,-179,-216,-144,-26,11,106,172,184,174,185,157,118,-72,-767,-1455,-2129,-183,1594,2454,2454,1425,107,-544,-823,-844,-831,-844,-843,-817,-819,-822,-824,-828,-855,-905,-941,-973,-1002,-1021,-1003,-973,-927,-857,-772,-669,-560,-386,-148,123,403,652,845,939,964,934,864,795,734,666,598,556,506,471,453,452,448,441,424,431,449,431,416,399,379,350,324,305,297,258,228,205,178,152,96,-60,-180,-170,-138,-193,-173,-23,0,65,134,152,145,126,99,71,4,-484,-1229,-1976
2018-05-17,14:30:12.768,-1691,488,1473,2069,1794,822,-136,-604,-766,-754,-754,-768,-770,-772,-777,-773,-784,-794,-827,-862,-891,-945,-979,-985,-961,-912,-862,-785,-679,-571,-418,-208,32,286,511,696,807,834,806,779,734,650,585,516,463,432,404,383,371,350,345,346,350,340,343,355,354,356,346,329,301,266,229,212,196,187,170,88,-83,-231,-231,-154,-154,-132,-5,25,107,176,201,186,178,153,136,52,-527,-1266,-2012,-990,1230,2242,2488,1593,299,-489,-844,-882,-834,-850,-845,-847,-850,-839,-837,-863,-897,-927,-950,-1008,-1065,-1115,-1149,-1135,-1094,-1034,-968,-891,-758,-534,-242,89,413,685,881,999,1033,1012,951,863
2018-05-17,14:30:13.805,790,720,624,581,536,484,445,429,435,420,417,427,416,396,389,369,342,321,291,276,235,194,163,124,106,98,78,34,-84,-253,-335,-279,-241,-259,-150,-93,-36,52,106,104,117,105,79,43,-209,-972,-1661,-2094,373,1916,2652,2187,915,-249,-760,-928,-903,-900,-909,-904,-887,-878,-868,-886,-897,-914,-940,-981,-1043,-1087,-1095,-1093,-1072,-1041,-987,-907,-783,-615,-352,-25,331,640,888,1061,1132,1130,1079,1012,931,831,764,714,656,604,553,527,514,502,502,501,502,513,487,463,449,420,388,366,335,292,273,237,199,170,143,116,88,89,62,-61,-247,-327,-285,-288,-321,-224,-153,-126
2018-05-17,14:30:14.842,-45,-7,-14,-41,-70,-92,-141,-415,-1165,-1901,-2410,-144,1484,2257,1945,732,-501,-1075,-1292,-1300,-1309,-1333,-1337,-1327,-1332,-1347,-1350,-1361,-1387,-1421,-1467,-1520,-1556,-1579,-1573,-1533,-1471,-1410,-1326,-1196,-1007,-749,-422,-90,233,511,707,786,819,820,761,702,638,593,564,523,517,514,526,554,582,612,657,694,726,760,814,844,873,906,915,920,924,926,932,941,935,930,927,928,849,683,627,703,727,694,789,901,959,1039,1094,1110,1121,1105,1076,1057,896,246,-460,-1368,314,2180,3117,3294,2506,1265,558,234,161,157,138,132,122,113,99,62,12,-48,-119,-197,-250,-302,-362,-433,-457,-446,-407,-329
2018-05-17,14:30:15.880,-257,-137,47,281,535,755,947,1074,1110,1064,986,890,786,706,651,567,474,391,328,279,232,174,149,110,66,56,24,-26,-46,-64,-90,-117,-144,-197,-245,-270,-312,-338,-356,-386,-406,-472,-620,-743,-759,-711,-684,-681,-569,-527,-467,-356,-316,-300,-308,-320,-330,-375,-770,-1521,-2290,-2114,245,1458,2049,1541,355,-669,-1151,-1281,-1243,-1229,-1237,-1224,-1208,-1203,-1211,-1225,-1225,-1251,-1297,-1339,-1365,-1406,-1444,-1453,-1412,-1383,-1308,-1205,-1062,-827,-547,-221,101,385,618,775,835,831,774,674,613,545,471,387,312,265,242,223,195,184,199,207,185,184,193,202,187,141,119,105,79,56,43,24,-14,8
2018-05-17,14:30:16.917,1,-54,-80,-72,-57,-65,-84,-173,-312,-365,-320,-311,-317,-204,-116,-96,-25,32,45,24,16,8,-42,-268,-995,-1660,-2320,90,1648,2452,2189,989,-234,-799,-1000,-1006,-995,-986,-969,-965,-949,-944,-943,-947,-973,-1031,-1075,-1130,-1196,-1240,-1275,-1260,-1205,-1128,-1047,-914,-708,-441,-118,234,574,835,1009,1095,1104,1051,1005,945,847,754,690,614,543,492,469,437,419,425,414,422,457,426,401,409,406,372,343,314,283,277,257,238,215,171,145,123,103,96,78,2,-157,-284,-228,-181,-231,-204,-96,-64,25,86,131,153,127,99,77,-32,-600,-1307,-2077,-859,1371,2328,2555,1610,271,-486,-828,-877
2018-05-17,14:30:17.954,-852,-850,-853,-839,-825,-820,-831,-840,-850,-894,-939,-980,-1019,-1075,-1097,-1105,-1081,-1003,-915,-822,-652,-402,-66,298,641,913,1094,1193,1216,1174,1117,1042,936,848,787,708,629,565,529,495,444,431,434,429,431,421,400,382,368,366,341,322,304,273,236,214,198,179,157,144,48,-134,-226,-190,-154,-176,-107,-9,36,104,146,158,152,128,108,82,-34,-671,-1367,-2257,-895,1033,1934,2209,1532,355,-390,-704,-750,-741,-740,-730,-721,-723,-732,-746,-758,-777,-815,-849,-887,-933,-974,-993,-988,-967,-889,-795,-680,-515,-299,-19,296,574,791,951,1024,1017,955,883,819,735,648,567,496,444,410,381
2018-05-17,14:30:18.991,342,331,339,337,330,324,311,300,300,279,255,247,257,237,227,209,173,155,144,118,45,-136,-273,-235,-173,-182,-120,-20,32,108,163,172,175,162,135,96,-40,-675,-1373,-1994,-655,1355,2187,2283,1386,204,-508,-812,-821,-797,-800,-786,-769,-766,-771,-781,-804,-845,-885,-920,-978,-1027,-1099,-1149,-1132,-1114,-1080,-990,-862,-675,-396,-63,285,630,893,1065,1147,1150,1112,1043,952,850,750,658,591,534,483,426,381,377,374,374,377,371,373,353,349,329,321,309,295,255,227,225,221,180,160,152,132,103,78,43,-82,-239,-264,-222,-204,-196,-61,-17,53,141,182,184,182,165,143,87
2018-05-17,14:30:20.028,-314,-1123,-1858,-1575,1011,2202,2665,1895,533,-437,-842,-933,-910,-896,-893,-888,-893,-880,-873,-886,-901,-928,-961,-1011,-1071,-1131,-1160,-1177,-1163,-1110,-1046,-952,-785,-545,-200,158,506,794,1020,1151,1198,1185,1117,1018,918,833,748,664,589,531,481,453,450,405,397,401,403,393,374,375,357,338,313,281,269,268,246,214,178,152,138,114,104,84,58,30,5,0,-19,-76,-205,-339,-337,-291,-310,-280,-160,-121,-45,23,46,51,41,17,-17,-103,-599,-1380,-2209,-1539,875,1890,2372,1680,387,-549,-963,-1071,-1078,-1110,-1128,-1123,-1128,-1141,-1169,-1191,-1230,-1275,-1334,-1397,-1470,-1545,-1574,-1582,-1570,-1542,-1468,-1373
2018-05-17,14:30:21.065,-1220,-975,-685,-356,-43,232,419,521,566,559,502,412,315,235,157,80,25,-6,-42,-68,-83,-104,-117,-104,-96,-72,-56,-39,-34,-25,-12,-5,12,13,18,43,59,65,73,87,94,104,122,120,130,154,156,166,155,56,-31,24,96,84,133,288,357,462,536,575,603,621,642,636,551,32,-663,-1366,-782,1271,2209,2746,2472,1552,575,154,4,25,44,52,57,80,83,94,92,63,32,1,-55,-112,-178,-213,-228,-227,-176,-116,-33,118,315,575,862,1136,1382,1553,1634,1652,1621,1559,1455,1342,1249,1161,1075,997,907,841,804,769,727,682,646,625,627,615,603,568,505,463
2018-05-17,14:30:22.103,449,437,396,351,303,277,247,238,190,143,131,109,67,0,-179,-325,-307,-242,-234,-186,-75,-71,13,70,83,66,65,60,48,-72,-678,-1441,-2122,-791,1296,2144,2258,1348,90,-676,-983,-1004,-980,-1000,-1004,-992,-966,-994,-1034,-1066,-1101,-1144,-1193,-1265,-1337,-1410,-1496,-1526,-1488,-1440,-1371,-1264,-1046,-716,-374,-5,348,660,866,963,970,940,880,780,685,582,499,427,375,324,267,231,182,166,158,160,164,150,139,124,126,125,105,78,58,30,13,-17,-26,-49,-82,-94,-104,-126,-132,-145,-150,-176,-187,-185,-197,-208,-233,-329,-488,-540,-462,-417,-426,-303,-250,-183,-81,-53,-26,-29,-30,-31
2018-05-17,14:30:23.140,-77,-414,-1181,-1841,-1742,815,2026,2501,1863,559,-508,-978,-1084,-1048,-1026,-1026,-1024,-1020,-1008,-1012,-1012,-1026,-1052,-1091,-1149,-1214,-1283,-1338,-1366,-1366,-1336,-1263,-1171,-1000,-741,-388,1,376,716,995,1158,1210,1207,1160,1086,996,888,790,711,633,569,527,491,465,441,428,427,396,384,388,387,381,348,323,324,318,276,254,236,211,186,175,168,146,118,105,101,72,70,65,27,-79,-223,-259,-218,-224,-255,-127,-63,-28,40,106,108,100,92,69,34,-252,-1009,-1662,-2242,-8,1402,2181,2137,1293,137,-456,-729,-757,-747,-763,-764,-756,-754,-760,-766,-780,-809,-858,-904,-962,-1026,-1088,-1116,-1095,-1074,-1015
2018-05-17,14:30:24.177,-920,-785,-573,-293,13,337,641,863,1004,1060,1061,1010,923,838,748,667,582,517,452,390,345,314,306,316,312,321,303,280,276,296,293,273,272,258,244,230,207,195,165,143,137,104,74,68,60,35,-11,-174,-348,-346,-265,-245,-213,-83,-67,24,102,119,124,120,86,79,23,-468,-1226,-1877,-1258,1062,2052,2425,1737,508,-416,-812,-872,-840,-837,-840,-827,-815,-802,-806,-820,-851,-880,-925,-1006,-1079,-1136,-1193,-1233,-1238,-1188,-1128,-1032,-834,-530,-146,256,634,947,1167,1283,1321,1284,1223,1121,1022,917,817,730,651,593,533,484,454,434,431,425,421,414,395,382,374,361,346,335,313
2018-05-17,14:30:25.214,290,265,235,209,186,160,136,125,112,98,80,53,26,-47,-214,-326,-280,-232,-247,-162,-48,-29,63,128,150,151,134,107,78,-42,-696,-1402,-2190,-529,1516,2435,2494,1438,107,-630,-932,-944,-921,-915,-923,-916,-897,-911,-927,-918,-951,-993,-1049,-1101,-1166,-1241,-1291,-1324,-1308,-1252,-1177,-1015,-794,-461,-66,327,680,966,1158,1250,1260,1231,1168,1061,956,852,757,690,623,554,508,468,446,413,403,406,397,396,373,362,365,337,329,307,286,275,265,247,230,203,178,140,108,83,75,66,50,-10,-188,-318,-289,-244,-273,-223,-95,-68,32,107,115,126,121,92,80,22,-465,-1239,-2088,-1381
2018-05-17,14:30:26.251,1224,2319,2707,1795,396,-498,-887,-948,-925,-928,-935,-948,-928,-913,-919,-943,-949,-1002,-1065,-1117,-1164,-1234,-1290,-1312,-1289,-1242,-1154,-1027,-826,-531,-153,253,617,931,1129,1235,1283,1261,1180,1089,1005,920,841,747,655,582,538,497,460,446,424,411,396,382,372,365,340,321,309,286,245,221,203,172,133,104,90,88,69,46,21,-5,-129,-271,-295,-234,-245,-280,-133,-52,19,86,118,117,121,109,84,56,-215,-962,-1666,-2217,-314,1181,2018,2130,1367,222,-413,-717,-749,-730,-744,-740,-736,-727,-729,-743,-764,-790,-825,-863,-921,-992,-1038,-1060,-1056,-1025,-947,-853,-706,-507,-224,75,393,687,908,1025
2018-05-17,14:30:27.289,1066,1073,1025,932,838,760,670,601,535,490,441,384,359,331,308,307,312,307,280,283,295,268,263,246,233,222,215,177,158,147,127,108,7,-142,-202,-164,-144,-165,-83,-17,26,99,139,139,138,126,105,66,-70,-732,-1401,-2122,-964,811,1564,1942,1552,546,-254,-632,-715,-699,-701,-715,-733,-739,-734,-744,-769,-809,-848,-881,-933,-1001,-1064,-1113,-1136,-1100,-1055,-980,-846,-628,-358,-37,316,618,846,1005,1079,1086,1040,984,904,820,727,650,588,516,452,402,362,342,328,316,296,289,296,296,311,309,295,291,269,244,225,201,179,158,143,123,100,65,57,62,48,18,2,-126
2018-05-17,14:30:28.326,-300,-315,-246,-189,-185,-72,-34,34,126,150,128,129,118,86,36,-290,-1082,-1719,-1705,723,1983,2510,1963,739,-342,-832,-957,-919,-906,-913,-905,-906,-896,-897,-907,-921,-956,-1005,-1065,-1132,-1216,-1291,-1337,-1338,-1301,-1253,-1163,-988,-691,-312,102,482,836,1094,1219,1281,1284,1224,1147,1057,931,821,731,653,587,527,476,433,405,381,367,357,369,362,348,341,336,327,312,297,260,248,243,214,178,159,138,111,82,69,60,51,41,30,-47,-210,-313,-268,-244,-267,-167,-84,-49,48,129,156,144,133,123,89,-45,-684,-1397,-2074,-398,1694,2553,2559,1437,42,-694,-980,-978,-945,-936,-929,-914,-914
2018-05-17,14:30:29.363,-908,-900,-913,-958,-996,-1052,-1118,-1192,-1256,-1304,-1317,-1298,-1246,-1160,-1016,-777,-408,18,443,821,1109,1315,1417,1422,1373,1319,1222,1126,1032,931,840,763,683,617,571,537,508,466,454,446,426,425,421,411,379,356,346,314,302,268,228,188,167,159,147,133,116,95,56,-34,-193,-262,-216,-215,-244,-152,-58,-11,62,102,107,105,102,71,31,-85,-704,-1428,-2305,-1120,921,1843,2218,1649,514,-344,-749,-834,-830,-833,-841,-832,-823,-818,-832,-849,-865,-894,-940,-990,-1053,-1120,-1138,-1150,-1119,-1060,-974,-848,-639,-371,-39,287,586,833,988,1061,1079,1070,1021,920,817,735,645,556,489,423,378,339
2018-05-17,14:30:30.400,305,286,268,243,244,258,263,256,242,223,221,216,205,181,152,135,117,93,70,15,-134,-223,-177,-160,-286,-190,-58,-3,63,113,117,94,84,79,61,-32,-608,-1354,-1953,-1240,659,1368,1811,1549,649,-231,-623,-739,-704,-712,-732,-728,-729,-721,-713,-731,-752,-795,-835,-903,-972,-1042,-1095,-1115,-1104,-1060,-988,-873,-675,-385,-44,304,626,872,1025,1085,1112,1092,1017,941,853,730,643,570,501,440,383,339,309,287,272,274,272,281,279,274,282,273,259,236,223,211,187,173,159,140,114,98,85,71,64,27,-129,-306,-310,-241,-217,-183,-50,-21,61,147,161,161,167,158,125,79
2018-05-17,14:30:31.437,-365,-1199,-1811,-1310,1239,2369,2629,1714,391,-509,-895,-946,-918,-920,-927,-918,-898,-894,-904,-916,-945,-983,-1037,-1094,-1177,-1256,-1324,-1378,-1372,-1346,-1286,-1172,-957,-637,-229,200,601,935,1154,1274,1321,1308,1255,1166,1060,949,856,761,675,614,550,501,461,437,420,411,374,338,358,347,342,316,299,286,268,245,224,208,184,166,139,114,100,82,75,53,27,-40,-204,-342,-307,-252,-270,-220,-97,-73,3,63,85,89,64,52,29,-73,-634,-1426,-2120,-1090,1358,2306,2484,1430,30,-798,-1138,-1166,-1144,-1155,-1164,-1170,-1170,-1188,-1213,-1239,-1265,-1321,-1397,-1480,-1560,-1640,-1710,-1753,-1769,-1743,-1665,-1539,-1331,-1013
2018-05-17,14:30:32.475,-614,-201,180,478,690,788,807,778,703,609,505,396,298,207,123,59,16,-24,-77,-122,-132,-121,-128,-133,-124,-120,-142,-165,-171,-177,-188,-180,-177,-169,-166,-160,-144,-138,-130,-113,-103,-98,-79,-60,-48,-34,-41,-161,-289,-240,-167,-145,-79,79,126,243,348,390,415,448,444,431,384,-93,-849,-1591,-908,1529,2623,3048,2363,1123,206,-180,-235,-196,-184,-181,-164,-157,-146,-143,-163,-178,-199,-269,-338,-406,-485,-547,-569,-559,-523,-475,-377,-200,74,432,813,1154,1433,1636,1735,1766,1738,1669,1544,1419,1308,1219,1107,1010,944,866,807,768,729,681,646,634,620,606,594,577,537,522,493,466
2018-05-17,14:30:33.512,440,413,378,343,311,265,232,201,163,132,109,98,62,-19,-164,-265,-239,-231,-286,-216,-102,-63,8,59,73,57,54,29,4,-111,-756,-1477,-2186,-1254,587,1417,1882,1536,571,-291,-692,-833,-829,-846,-863,-859,-858,-853,-852,-873,-893,-920,-969,-1014,-1080,-1136,-1172,-1199,-1184,-1145,-1082,-945,-746,-491,-178,162,489,742,894,979,1002,979,913,843,763,652,572,500,426,390,346,300,281,268,249,235,244,244,248,252,250,235,213,211,198,186,170,148,134,121,93,85,65,36,14,9,-93,-273,-385,-345,-267,-286,-205,-123,-69,39,95,97,82,71,58,23,-154,-883,-1557,-2119,-129,1746
2018-05-17,14:30:34.549,2516,2208,1011,-218,-800,-989,-976,-950,-963,-963,-969,-960,-942,-944,-963,-996,-1055,-1106,-1161,-1235,-1313,-1370,-1395,-1383,-1312,-1211,-1055,-774,-403,21,449,815,1093,1257,1343,1358,1305,1222,1118,1005,897,804,736,676,605,550,496,460,422,392,368,354,351,345,322,298,287,271,232,213,199,180,158,136,114,85,62,52,30,16,0,-13,-116,-304,-426,-368,-311,-341,-216,-121,-79,31,90,99,90,82,77,58,-112,-810,-1526,-2106,-224,1788,2594,2411,1219,-69,-701,-947,-938,-915,-923,-930,-928,-929,-919,-914,-920,-933,-980,-1044,-1108,-1189,-1280,-1336,-1377,-1365,-1304,-1222,-1075,-804,-432,2,441,811,1097,1284
2018-05-17,14:30:53.320,-1076,-1089,-1096,-1072,-1071,-1076,-1092,-1102,-1134,-1172,-1216,-1265,-1311,-1345,-1342,-1302,-1220,-1097,-908,-642,-289,100,481,819,1060,1213,1272,1266,1223,1144,1038,949,863,769,687,615,538,474,434,412,392,370,366,359,332,265,169,65,72,55,-1,33,193,165,189,266,293,285,251,224,176,127,16,-522,-1171,-1992,-1329,604,1619,2274,2176,1227,2,-606,-887,-918,-916,-947,-953,-947,-959,-981,-994,-1044,-1094,-1127,-1136,-1190,-1243,-1256,-1245,-1210,-1148,-1048,-886,-640,-330,-5,321,638,852,979,1027,1004,971,920,815,731,656,578,519,466,416,365,315,295,294,289,294,291,270,268,250,227,220,224,205,184
2018-05-17,14:30:53.807,168,104,-25,-128,-122,-136,-130,-84,-29,-6,59,120,162,161,144,115,83,40,-295,-950,-1677,-1946,502,1841,2673,2628,1712,252,-547,-942,-988,-988,-1006,-1007,-989,-988,-983,-990,-1002,-1037,-1095,-1140,-1193,-1258,-1329,-1363,-1361,-1349,-1277,-1145,-925,-609,-196,202,572,882,1101,1211,1257,1251,1200,1111,1024,934,836,763,684,588,515,467,435,416,378,362,373,367,347,350,346,325,311,298,192,28,-36,-35,-78,-82,17,61,103,169,217,223,214,191,175,145,136,-138,-775,-1991,-2260,687,2247,3056,2793,1690,181,-687,-1099,-1150,-1158,-1188,-1199,-1204,-1190,-1176,-1181,-1176,-1182,-1220,-1266,-1315,-1354,-1373,-1358,-1330
2018-05-17,14:30:54.845,-1266,-1152,-975,-720,-371,36,418,777,1054,1229,1315,1311,1273,1191,1071,972,888,813,708,619,543,494,459,435,409,391,382,383,383,367,350,339,314,212,83,55,67,-7,-39,106,153,171,238,286,271,255,225,206,170,139,-246,-911,-1948,-1942,452,1763,2537,2461,1618,290,-475,-836,-897,-894,-901,-912,-919,-926,-922,-931,-958,-972,-997,-1035,-1082,-1119,-1122,-1104,-1080,-1029,-935,-798,-601,-345,-30,287,573,780,914,980,986,953,899,820,727,637,556,479,399,336,297,286,250,211,207,215,209,205,211,213,206,197,190,171,122,-1,-108,-103,-95,-113,-81,12,16,89,150,175,167,144
2018-05-17,14:30:55.882,96,65,42,-191,-853,-1501,-2133,-151,1204,2006,2248,1689,466,-371,-794,-891,-868,-866,-885,-884,-889,-890,-896,-896,-924,-949,-1002,-1061,-1091,-1134,-1180,-1177,-1127,-1037,-930,-771,-507,-191,164,478,736,930,1035,1066,1042,997,928,836,756,671,591,523,457,410,354,309,290,280,274,273,277,276,270,283,285,276,275,268,232,161,50,-64,-59,-84,-108,-58,47,57,98,146,199,196,191,187,176,141,-63,-690,-1484,-2352,-242,1749,2921,2970,2134,675,-361,-897,-1012,-1026,-1040,-1031,-1018,-994,-998,-1006,-1011,-1028,-1044,-1102,-1156,-1200,-1246,-1272,-1278,-1273,-1228,-1131,-968,-677,-312,73,478,816,1046,1154,1194,1201
2018-05-17,14:30:56.919,1154,1070,984,904,816,676,608,558,492,453,414,389,372,363,371,382,376,365,348,334,322,331,310,276,253,229,147,15,-60,-39,-95,-132,-27,38,63,126,173,162,148,144,114,81,43,-323,-1000,-2095,-1931,389,1698,2508,2420,1520,137,-587,-923,-999,-1000,-1012,-1021,-1012,-1004,-1018,-1035,-1048,-1081,-1129,-1182,-1248,-1315,-1357,-1362,-1345,-1281,-1174,-1012,-782,-470,-89,270,608,889,1074,1169,1186,1163,1108,1033,937,846,762,686,609,553,511,452,404,390,374,356,359,363,333,304,220,108,52,85,40,-12,126,209,195,255,295,304,286,268,230,214,171,-196,-892,-1497,-1948,-71,1134,1985,2210
2018-05-17,14:30:57.956,1674,471,-315,-704,-787,-801,-825,-843,-856,-854,-856,-862,-879,-907,-944,-973,-1025,-1090,-1133,-1158,-1159,-1131,-1057,-949,-763,-509,-211,120,427,656,798,888,921,900,837,760,674,582,503,435,390,348,300,266,262,250,250,258,270,281,307,311,306,297,294,279,290,294,268,238,220,207,135,-4,-107,-107,-147,-159,-101,-5,29,65,119,160,167,158,129,107,82,-90,-690,-1410,-2164,-9,1466,2330,2523,1883,575,-364,-871,-979,-979,-988,-986,-974,-982,-1006,-1012,-1035,-1066,-1100,-1169,-1235,-1299,-1357,-1396,-1411,-1370,-1295,-1197,-989,-657,-265,169,579,927,1173,1311,1366,1344,1290,1212,1111,1019,922,820,718
2018-05-17,14:30:58.993,627,548,502,455,410,386,366,366,354,334,340,335,317,298,268,252,237,211,180,124,-23,-142,-138,-195,-234,-123,7,76,123,165,199,203,190,181,177,137,-27,-559,-1269,-2245,-217,1680,2789,2951,2241,756,-378,-929,-1054,-1069,-1067,-1073,-1076,-1084,-1080,-1079,-1081,-1109,-1142,-1172,-1227,-1282,-1327,-1352,-1338,-1284,-1199,-1058,-858,-560,-195,193,557,870,1082,1201,1261,1240,1176,1100,1007,902,819,718,611,533,478,421,374,346,321,305,290,293,309,300,242,147,49,40,26,-29,-4,132,125,174,237,244,232,211,203,182,135,77,-357,-994,-2041,-1364,799,1920,2427,2217,1243,6,-596,-843,-862,-858
2018-05-17,14:31:00.031,-867,-868,-868,-860,-863,-878,-880,-901,-941,-986,-1036,-1068,-1090,-1092,-1063,-1007,-927,-794,-584,-290,17,311,582,774,897,939,941,906,840,752,657,568,492,427,364,321,280,250,218,190,180,170,170,171,165,164,159,150,141,141,139,117,61,-67,-167,-149,-204,-227,-147,-30,17,50,111,145,144,132,121,95,73,-76,-625,-1299,-2262,-297,1323,2250,2544,1950,609,-354,-857,-993,-984,-999,-996,-994,-988,-987,-988,-994,-1012,-1039,-1072,-1122,-1182,-1234,-1256,-1260,-1219,-1171,-1099,-933,-665,-306,85,484,837,1088,1188,1241,1246,1207,1123,1031,933,837,756,674,603,545,490,459,427,412,410,408,398,406
2018-05-17,14:31:01.068,406,404,382,373,360,262,95,4,-15,-111,-98,76,170,204,237,281,297,303,291,262,223,177,-102,-760,-1914,-2356,485,2234,3158,2876,1843,298,-619,-1040,-1090,-1096,-1115,-1143,-1108,-1100,-1133,-1121,-1126,-1164,-1225,-1267,-1319,-1387,-1448,-1485,-1480,-1433,-1390,-1238,-967,-580,-138,319,708,1004,1213,1303,1323,1288,1220,1129,1017,913,817,731,664,592,530,494,438,415,397,395,399,381,377,364,353,272,145,40,58,19,-38,24,145,139,188,251,248,232,225,207,185,143,11,-543,-1299,-2470,-459,1186,2239,2490,1998,757,-240,-771,-911,-915,-937,-947,-938,-943,-967,-974,-1003,-1049,-1087,-1127,-1173,-1226,-1248,-1259
2018-05-17,14:31:02.105,-1231,-1162,-1082,-958,-774,-515,-183,179,505,778,963,1062,1085,1052,990,908,821,734,642,553,471,417,358,303,278,250,244,230,234,260,261,268,257,231,150,34,-46,-12,-33,-77,10,113,94,149,207,223,227,195,172,163,118,-190,-933,-1505,-1994,-62,1136,1912,2133,1622,497,-294,-747,-836,-828,-818,-826,-850,-868,-888,-911,-929,-959,-989,-1043,-1092,-1138,-1170,-1197,-1205,-1183,-1117,-1001,-812,-528,-184,167,528,804,986,1095,1137,1111,1059,971,891,790,717,639,549,457,412,371,347,305,303,308,317,311,302,302,289,284,283,273,245,234,201,175,154,81,-70,-171,-170,-195,-237,-121,13
2018-05-17,14:31:03.142,53,77,137,185,171,156,139,113,74,-236,-838,-1824,-1721,796,2250,3043,2708,1540,83,-742,-1105,-1117,-1105,-1100,-1103,-1110,-1103,-1119,-1133,-1139,-1177,-1231,-1294,-1354,-1417,-1477,-1499,-1500,-1444,-1361,-1214,-956,-600,-174,272,689,1020,1261,1380,1418,1394,1319,1222,1109,1009,919,809,727,664,607,570,517,483,470,451,443,439,439,422,420,396,354,331,313,278,207,55,-63,-48,-109,-162,-63,67,107,136,191,219,193,171,155,135,77,-137,-740,-1456,-2339,-341,1440,2563,2723,2057,610,-394,-899,-1016,-1008,-1019,-1055,-1053,-1046,-1033,-1026,-1043,-1057,-1098,-1149,-1183,-1226,-1268,-1277,-1253,-1215,-1146,-1007,-806,-533,-199,162
2018-05-17,14:31:04.179,519,812,1017,1135,1172,1170,1114,1026,931,845,770,669,589,515,454,412,364,346,329,292,285,275,262,251,221,137,14,-67,-22,-58,-117,-52,16,2,58,99,112,84,58,31,3,-38,-271,-872,-1570,-2283,-179,1380,2293,2446,1819,427,-472,-929,-1031,-1036,-1039,-1030,-1024,-1023,-1014,-1018,-1042,-1067,-1094,-1135,-1181,-1228,-1295,-1326,-1314,-1291,-1228,-1098,-899,-632,-304,47,404,668,834,928,941,899,853,774,675,593,512,431,358,303,246,193,153,138,128,124,130,129,144,149,137,138,146,151,142,123,116,97,-3,-133,-173,-212,-290,-253,-86,10,65,112,151,174,145,135,116,78,31,-393
2018-05-17,14:31:05.217,-1088,-2526,-705,1317,2479,2841,2248,857,-271,-883,-1048,-1021,-1032,-1047,-1029,-1023,-1006,-1010,-1031,-1043,-1066,-1102,-1150,-1216,-1261,-1292,-1297,-1283,-1232,-1139,-973,-720,-380,27,427,770,1038,1187,1262,1278,1240,1156,1066,965,870,779,691,630,577,530,507,476,464,456,454,467,467,439,386,289,169,154,142,39,31,195,229,265,326,349,328,320,291,240,203,160,-288,-982,-2352,-1539,883,2405,2966,2568,1366,14,-704,-985,-1034,-1032,-1047,-1044,-1038,-1042,-1029,-1018,-1021,-1047,-1065,-1088,-1136,-1170,-1185,-1159,-1114,-1030,-959,-825,-613,-334,-37,288,575,802,935,993,1006,973,899,811,713,635,569,500,438,378,347,303
2018-05-17,14:31:06.254,299,286,280,289,287,292,276,199,96,51,77,29,1,115,171,168,230,261,258,240,232,201,159,112,-306,-915,-1883,-1557,502,1634,2243,2129,1242,61,-523,-765,-803,-833,-856,-854,-852,-842,-820,-825,-842,-850,-871,-894,-924,-959,-999,-1029,-1027,-988,-935,-832,-660,-395,-64,258,546,772,922,990,998,964,900,819,735,654,578,504,449,402,376,372,365,355,355,366,367,384,388,361,273,148,65,99,77,57,156,227,219,306,352,350,337,331,326,271,194,-239,-971,-1785,-1591,599,1783,2559,2341,1389,221,-457,-771,-792,-793,-805,-785,-804,-799,-784,-821,-868,-893,-951,-1024,-1101,-1200,-1264
2018-05-17,14:31:07.291,-1329,-1355,-1340,-1276,-1127,-852,-495,-77,344,697,964,1128,1223,1241,1211,1134,1037,958,888,804,728,657,611,562,510,491,484,477,449,442,427,406,316,191,134,156,103,84,190,234,261,348,381,360,353,329,291,256,199,-177,-819,-2091,-1432,854,2093,2736,2382,1199,-19,-690,-973,-980,-968,-970,-967,-972,-961,-958,-981,-1028,-1073,-1158,-1226,-1314,-1395,-1440,-1462,-1441,-1374,-1261,-1080,-795,-404,32,442,807,1109,1291,1358,1363,1314,1249,1159,1048,952,859,767,687,638,587,536,508,491,480,459,451,399,304,203,202,187,133,149,301,305,323,388,405,385,355,334,276,217,128,-368,-1083,-2396,-990
2018-05-17,14:31:08.328,1118,2348,2689,2236,1025,-75,-654,-862,-874,-894,-884,-886,-873,-879,-901,-919,-939,-983,-1047,-1109,-1186,-1240,-1274,-1271,-1228,-1173,-1057,-903,-678,-369,-38,264,535,732,842,871,853,799,740,670,586,521,457,394,367,321,281,267,239,236,223,216,169,82,62,83,45,24,131,185,186,270,303,308,311,283,257,216,83,-443,-1032,-1850,-1015,664,1591,2117,1967,1013,14,-459,-631,-655,-638,-651,-675,-691,-709,-716,-831,-904,-935,-1041,-1122,-1143,-1257,-1257,-1210,-1260,-1243,-1118,-936,-677,-345,15,390,685,896,983,1019,1002,938,850,761,664,582,522,482,422,366,325,313,275,173,60,48,55,29,92
2018-05-17,14:31:09.365,259,320,337,438,494,508,499,480,423,358,249,-366,-1062,-1670,-1059,448,1053,1582,1767,1369,428,-190,-462,-457,-454,-487,-511,-545,-570,-600,-649,-691,-747,-826,-917,-998,-1057,-1083,-1081,-1052,-1000,-899,-750,-529,-264,23,309,578,792,910,948,956,907,843,742,668,571,484,437,401,342,303,278,252,240,255,281,280,269,159,4,-16,-20,-51,-4,136,183,235,279,331,343,313,268,226,151,-269,-1021,-1520,-1370,386,1170,1738,1735,1118,119,-463,-721,-712,-704,-717,-742,-758,-778,-802,-833,-868,-918,-952,-994,-1066,-1126,-1159,-1182,-1186,-1163,-1109,-1008,-833,-581,-244,134,483,775,971,1074,1113,1085,1027
2018-05-17,14:31:10.402,945,869,772,680,604,549,490,443,406,391,399,407,380,287,163,69,101,118,125,200,293,258,325,396,383,359,344,311,259,166,-390,-1088,-1693,-921,841,1541,1950,1718,890,-20,-547,-749,-753,-756,-786,-799,-788,-786,-815,-856,-893,-932,-986,-1036,-1094,-1161,-1216,-1230,-1219,-1178,-1114,-1010,-826,-530,-161,212,562,826,1002,1083,1097,1058,983,885,794,690,617,548,487,444,404,402,389,380,341,241,138,149,162,138,159,280,271,283,371,391,381,359,309,253,228,57,-589,-1255,-2219,-253,1237,2248,2486,1897,624,-278,-782,-894,-875,-890,-914,-938,-938,-945,-972,-1004,-1034,-1068,-1112,-1162,-1217,-1266
2018-05-17,14:31:11.440,-1279,-1268,-1242,-1205,-1109,-931,-640,-273,149,548,871,1110,1256,1288,1262,1203,1097,983,885,801,743,682,615,579,541,508,484,397,266,214,203,114,122,255,344,333,388,428,408,367,326,302,277,228,-227,-967,-2165,-1753,723,2230,2820,2478,1425,161,-528,-821,-843,-855,-864,-870,-879,-888,-891,-919,-957,-995,-1051,-1100,-1141,-1159,-1165,-1155,-1118,-1059,-964,-875,-719,-478,-192,127,408,629,763,826,827,782,732,659,580,516,449,397,360,328,313,298,302,289,249,175,83,105,97,38,66,202,221,268,329,323,317,306,261,239,216,-60,-708,-1607,-1986,172,1592,2472,2425,1639,336,-400,-782,-846
2018-05-17,14:31:12.477,-841,-846,-868,-895,-905,-920,-937,-946,-958,-969,-995,-1039,-1102,-1134,-1115,-1093,-1060,-994,-896,-759,-558,-262,77,408,670,857,955,976,952,899,831,728,661,619,577,520,478,451,433,424,432,410,372,261,148,184,168,144,202,332,306,363,426,433,417,387,340,307,244,-171,-889,-1640,-1570,381,1418,2148,2197,1549,395,-325,-709,-760,-774,-796,-799,-815,-841,-849,-879,-920,-939,-957,-1002,-1057,-1102,-1129,-1139,-1132,-1096,-1037,-956,-820,-589,-282,66,400,683,885,994,1025,982,917,844,738,649,596,546,490,449,406,384,370,377,363,330,250,145,160,156,100,123,242,249,292,370,391,370,339
2018-05-17,14:31:13.514,303,272,246,-25,-669,-1503,-1909,207,1557,2451,2481,1793,550,-330,-808,-876,-865,-886,-904,-908,-929,-958,-961,-992,-1017,-1032,-1054,-1085,-1117,-1141,-1137,-1099,-1062,-1003,-914,-764,-558,-285,41,371,647,867,997,1035,1002,952,867,787,700,619,536,481,435,403,364,352,357,362,300,182,65,90,104,98,191,293,280,344,439,441,421,403,357,313,227,-298,-1049,-1768,-1040,758,1541,2128,1944,1133,122,-523,-787,-766,-780,-815,-825,-838,-837,-841,-868,-901,-948,-985,-1034,-1101,-1160,-1205,-1209,-1209,-1164,-1110,-1029,-871,-607,-265,100,450,740,953,1059,1094,1073,1009,906,787,709,624,558,509,471,427,409,401
2018-05-17,14:31:14.551,361,278,137,133,151,129,173,285,281,305,414,460,443,415,374,328,276,51,-637,-1366,-2042,0,1456,2594,2753,2055,609,-369,-922,-988,-974,-999,-995,-993,-989,-991,-1007,-1032,-1050,-1070,-1119,-1164,-1220,-1253,-1282,-1277,-1230,-1171,-1095,-958,-716,-386,-6,384,731,983,1128,1209,1181,1107,1030,938,850,779,699,638,594,573,546,524,502,432,314,195,176,164,118,178,327,318,355,429,443,444,402,350,311,286,47,-593,-1576,-2145,175,1816,2928,2891,2036,577,-424,-983,-1025,-1007,-1030,-1039,-1033,-1038,-1049,-1069,-1081,-1098,-1108,-1130,-1176,-1223,-1244,-1239,-1202,-1159,-1109,-1026,-897,-689,-394,-45,322,645,868,997
2018-05-17,14:31:15.588,1042,1037,964,869,801,725,643,583,541,504,464,460,473,454,430,365,252,196,224,163,154,278,328,309,396,430,405,386,359,331,281,152,-374,-1094,-2266,-856,939,2065,2505,2205,1140,30,-626,-836,-840,-845,-883,-909,-907,-923,-913,-924,-939,-950,-959,-975,-988,-996,-999,-983,-921,-852,-781,-690,-571,-388,-142,133,375,571,703,745,733,702,647,578,514,470,421,377,347,315,319,323,303,256,159,81,122,96,87,191,268,264,340,380,368,358,346,300,280,198,-339,-1017,-1819,-1295,524,1452,2151,2126,1322,218,-421,-711,-717,-726,-741,-756,-747,-770,-809,-843,-871,-908,-959,-985,-1029,-1075
2018-05-17,14:31:16.626,-1098,-1079,-1040,-999,-919,-820,-661,-437,-148,145,417,662,822,910,938,904,841,763,680,602,540,472,439,382,371,364,348,345,360,335,239,130,112,124,81,92,201,214,248,333,361,355,335,297,254,205,29,-588,-1340,-2221,-105,1356,2447,2662,1966,640,-269,-821,-911,-889,-929,-953,-952,-939,-939,-956,-960,-961,-978,-999,-1029,-1056,-1064,-1062,-1067,-1037,-986,-910,-789,-619,-349,-30,305,619,872,1009,1073,1078,1018,942,885,802,716,649,575,539,515,499,486,482,478,441,367,236,130,166,108,76,199,286,274,346,400,393,371,348,321,294,214,-239,-953,-1911,-1535,686,1914,2698,2453,1444
2018-05-17,14:31:17.663,128,-627,-930,-930,-939,-956,-963,-962,-964,-959,-950,-971,-1002,-1021,-1046,-1079,-1107,-1116,-1096,-1051,-986,-897,-794,-651,-435,-172,111,394,642,827,914,917,871,815,746,664,590,514,462,423,410,411,422,420,414,420,357,240,181,226,183,133,217,299,272,337,385,403,387,356,310,265,177,-251,-879,-1792,-1433,470,1585,2288,2261,1417,187,-467,-765,-796,-814,-826,-835,-832,-832,-839,-840,-857,-859,-869,-871,-882,-885,-876,-848,-795,-720,-651,-565,-449,-290,-87,126,351,530,657,732,740,712,659,592,523,467,411,364,332,319,310,304,306,315,274,174,91,91,84,56,100,245,227,260,329
2018-05-17,14:31:18.700,359,355,323,288,265,214,-114,-831,-1355,-1694,-106,912,1593,1955,1657,675,-162,-591,-687,-690,-685,-693,-697,-715,-716,-710,-727,-752,-782,-815,-851,-891,-915,-925,-902,-854,-802,-725,-628,-486,-305,-87,158,373,527,628,667,625,561,522,477,414,353,311,285,288,271,260,263,283,297,303,320,289,195,85,30,77,74,59,147,170,197,284,340,339,317,304,262,199,36,-622,-1221,-1910,-577,1015,1948,2400,1980,810,-185,-719,-863,-843,-838,-842,-845,-835,-828,-835,-840,-870,-895,-929,-985,-1026,-1064,-1078,-1066,-1044,-992,-922,-811,-654,-427,-143,168,451,697,860,931,957,921,845,753,703,628,546
2018-05-17,14:31:19.737,512,479,449,443,431,445,455,446,440,431,396,263,89,51,19,-61,18,197,294,325,359,387,376,343,314,277,227,-55,-769,-1523,-2030,336,1956,2886,2801,1838,408,-469,-919,-990,-972,-968,-954,-937,-931,-934,-943,-970,-1014,-1052,-1086,-1133,-1184,-1197,-1193,-1158,-1089,-1007,-928,-794,-604,-348,-39,269,537,745,890,931,909,869,806,730,666,593,542,515,490,471,472,461,468,476,475,462,455,441,370,226,121,80,0,-22,94,204,260,280,310,340,329,289,244,218,190,-196,-845,-2146,-1372,961,2274,2805,2409,1207,-39,-691,-940,-936,-916,-916,-921,-927,-930,-941,-957,-977,-998,-1038,-1070,-1093
2018-05-17,14:31:20.774,-1101,-1073,-1017,-945,-864,-782,-662,-519,-334,-96,178,416,633,796,867,878,838,776,710,636,570,514,482,445,422,423,429,426,426,439,437,423,371,255,139,107,91,10,15,168,219,250,284,314,301,280,247,220,178,37,-564,-1153,-2096,-759,849,1798,2281,2016,904,-114,-631,-804,-807,-822,-833,-838,-842,-856,-864,-874,-890,-922,-949,-968,-974,-980,-958,-922,-858,-773,-675,-574,-440,-254,-40,199,434,619,715,753,741,708,658,597,526,474,437,394,350,333,326,349,373,350,333,323,324,326,305,275,212,66,-45,-70,-162,-213,-94,65,151,177,216,260,265,233,207,185,149,-248
2018-05-17,14:31:21.812,-908,-1854,-1474,830,2103,2813,2553,1442,103,-621,-927,-947,-937,-943,-941,-932,-927,-930,-939,-950,-969,-989,-1016,-1050,-1066,-1065,-1036,-997,-922,-847,-750,-616,-409,-145,133,392,613,764,843,863,834,785,722,632,556,504,441,398,341,329,339,340,356,380,384,366,374,375,357,346,281,123,-24,-40,-121,-167,-77,43,146,198,249,292,305,288,258,237,222,-36,-638,-1640,-1981,667,2196,3029,2779,1696,232,-621,-1009,-1072,-1075,-1075,-1086,-1070,-1057,-1045,-1053,-1062,-1077,-1094,-1105,-1111,-1133,-1117,-1079,-1021,-940,-846,-743,-604,-398,-140,146,439,695,868,956,991,952,883,797,702,609,532,463,416,369,359
2018-05-17,14:31:22.849,374,373,396,408,391,392,400,383,350,341,310,230,114,34,55,11,-66,-11,103,118,181,225,234,237,220,190,158,121,-155,-790,-1743,-2047,336,1836,2642,2526,1658,298,-492,-867,-916,-914,-921,-914,-894,-877,-863,-864,-882,-876,-876,-891,-915,-925,-906,-859,-803,-737,-651,-557,-438,-301,-127,72,287,471,598,680,691,664,608,540,474,412,347,294,255,213,197,202,197,208,218,224,226,233,221,168,77,-15,-16,-4,-67,-70,72,79,111,188,213,208,197,190,138,102,-22,-585,-1214,-2194,-668,1025,1943,2259,1888,747,-211,-670,-807,-782,-769,-789,-791,-768,-759,-743,-750,-753,-753,-777
2018-05-17,14:31:23.886,-782,-833,-858,-805,-786,-731,-651,-556,-469,-349,-189,6,209,392,546,638,679,652,609,546,482,418,366,302,268,253,239,239,249,253,253,264,282,300,306,303,299,286,262,204,83,-25,-26,-27,-68,-17,76,104,181,245,270,271,256,227,193,169,-95,-740,-1467,-2117,3,1648,2595,2628,1884,558,-339,-803,-897,-879,-856,-860,-847,-835,-839,-848,-866,-869,-895,-903,-957,-1026,-1070,-1108,-1106,-1082,-1049,-950,-787,-566,-292,22,337,612,818,952,989,949,895,835,769,688,625,555,507,488,476,440,429,435,437,425,414,423,424,392,362,300,196,79,59,50,-6,13,131,152,193,278
2018-05-17,14:31:24.923,279,264,249,219,192,145,15,-535,-1316,-2375,-444,1407,2426,2626,1986,663,-311,-839,-970,-954,-950,-941,-930,-935,-955,-964,-972,-999,-1024,-1066,-1101,-1122,-1139,-1105,-1046,-954,-852,-740,-587,-394,-142,159,453,718,923,1041,1074,1049,990,899,823,749,660,582,523,489,457,440,424,413,408,417,410,391,371,342,261,141,70,93,33,-36,74,190,180,252,298,298,284,246,224,194,163,-191,-851,-1758,-1748,343,1601,2328,2306,1558,318,-405,-759,-795,-792,-828,-842,-844,-843,-852,-858,-867,-885,-896,-909,-932,-938,-914,-883,-840,-753,-660,-555,-427,-266,-64,166,399,577,696,750,750,716,648,572,507
2018-05-17,14:31:25.960,438,387,328,281,266,261,262,260,275,299,298,290,279,244,164,68,50,73,31,13,115,147,155,214,247,250,222,193,169,135,12,-544,-1101,-1812,-989,596,1368,1753,1696,955,4,-504,-697,-691,-682,-699,-710,-705,-691,-693,-699,-720,-736,-753,-768,-787,-806,-825,-805,-771,-720,-650,-550,-419,-260,-58,169,365,510,605,657,654,596,536,470,401,347,300,249,221,205,204,188,193,203,220,216,226,247,242,231,170,64,-30,-37,-30,-31,14,119,119,191,254,272,273,223,183,158,125,-202,-978,-1437,-1662,159,1417,2110,2190,1543,385,-347,-725,-788,-768,-772,-779,-765,-764,-781,-781
2018-05-17,14:31:36.270,-525,-1740,-2256,841,2395,3073,2994,2124,447,-641,-1051,-1121,-1124,-1121,-1105,-1063,-1001,-994,-989,-979,-967,-956,-949,-984,-965,-985,-979,-918,-846,-752,-665,-520,-319,-44,243,485,654,777,840,825,787,737,666,570,478,435,334,281,229,245,247,224,250,266,168,58,76,72,-2,-1,161,206,221,303,338,329,308,307,274,233,161,-305,-1047,-2340,-827,1141,2180,2479,2122,933,-151,-621,-751,-787,-788,-766,-751,-744,-759,-765,-781,-812,-855,-903,-934,-964,-949,-920,-892,-776,-670,-588,-477,-322,-137,79,269,450,572,616,624,590,529,472,407,334,266,236,215,176,143,139,151,148,146,70,-40,0
2018-05-17,14:31:37.507,-9,-8,60,194,215,238,329,384,366,344,319,281,241,-13,-716,-1336,-1867,-282,1021,1830,2206,1957,914,-39,-599,-722,-703,-719,-716,-735,-746,-742,-791,-766,-795,-874,-964,-957,-996,-1040,-1078,-1093,-1098,-1007,-859,-655,-386,-65,274,552,783,917,958,969,914,842,776,679,573,501,465,431,391,370,369,349,339,338,276,211,132,127,152,162,168,259,251,298,383,378,383,348,308,252,174,-21,-598,-1306,-2169,-275,1448,2495,2720,2093,761,-293,-866,-990,-982,-1024,-1020,-982,-990,-1016,-1050,-1087,-1118,-1168,-1234,-1296,-1329,-1342,-1325,-1264,-1159,-1057,-908,-685,-389,-21,368,678,948,1113,1171,1221,1189,1099
2018-05-17,14:31:38.545,1028,920,840,747,677,587,562,546,528,523,501,389,286,182,162,135,130,194,298,306,351,391,398,363,349,302,269,197,-67,-778,-1412,-1984,330,1897,2743,2739,1966,456,-533,-953,-1059,-1051,-1050,-1060,-1070,-1065,-1049,-1034,-1051,-1087,-1104,-1103,-1111,-1108,-1075,-996,-915,-830,-722,-555,-337,-76,177,465,680,827,925,958,934,824,741,658,585,515,403,325,267,218,188,176,172,129,49,-42,-61,-62,-66,-42,87,91,90,176,221,221,208,179,139,122,38,-421,-1052,-2389,-603,1442,2434,2706,2340,1088,-202,-887,-1034,-921,-939,-1012,-883,-777,-814,-798,-721,-797,-822,-783,-749,-763,-811,-734,-712,-724
2018-05-17,14:31:39.582,-651,-588,-491,-346,-150,75,268,461,612,669,622,547,498,512,463,454,403,292,231,217,190,188,178,188,173,127,33,17,53,0,0,121,182,206,286,332,306,293,261,244,220,177,-224,-994,-2255,-918,1084,2380,2716,2268,1036,-119,-708,-838,-835,-857,-926,-892,-859,-868,-878,-916,-962,-961,-984,-1023,-1036,-1024,-984,-915,-861,-798,-713,-560,-342,-86,205,469,685,835,903,916,880,816,721,625,561,510,455,413,363,346,360,324,290,204,95,118,115,95,185,360,380,361,422,480,493,489,434,391,371,-28,-725,-1402,-1774,-13,1110,2010,2332,1917,732,-146,-603,-699,-733,-752,-757,-778
2018-05-17,14:31:40.619,-787,-806,-782,-773,-799,-843,-870,-913,-974,-1011,-981,-937,-884,-761,-615,-430,-207,62,289,504,669,746,777,789,755,659,572,521,467,400,328,325,270,327,289,238,223,181,157,104,92,191,301,244,263,327,334,370,317,252,211,175,-124,-799,-1375,-2003,-148,1090,1842,2123,1681,555,-273,-690,-783,-774,-791,-806,-813,-831,-864,-894,-933,-967,-1030,-1074,-1098,-1105,-1100,-1063,-995,-920,-821,-688,-504,-290,-42,255,544,699,796,871,865,808,767,677,640,617,523,478,458,424,356,341,270,190,88,67,88,126,198,299,274,297,388,428,409,380,353,314,231,-122,-891,-1409,-1738,204,1394,2271
2018-05-17,14:31:41.656,2480,1874,555,-337,-810,-873,-880,-906,-904,-915,-946,-995,-1011,-1045,-1094,-1142,-1198,-1255,-1286,-1304,-1282,-1222,-1129,-1012,-840,-596,-288,64,448,764,981,1105,1145,1148,1116,1047,938,854,767,682,614,537,501,480,437,348,236,126,156,137,111,214,298,298,367,408,417,408,359,318,280,228,-92,-701,-1779,-1534,1052,2389,2999,2812,1746,146,-728,-1061,-1092,-1087,-1114,-1094,-1080,-1086,-1067,-1062,-1093,-1109,-1130,-1156,-1167,-1166,-1128,-1079,-996,-852,-685,-510,-280,16,316,571,756,905,995,985,934,856,754,680,614,522,435,371,318,298,274,203,78,-28,12,56,80,179,258,238,334,413,424,391,356,315
2018-05-17,14:31:42.693,281,232,-128,-707,-1635,-1741,689,1902,2498,2481,1698,275,-517,-868,-919,-909,-897,-858,-833,-838,-818,-795,-813,-816,-837,-854,-856,-874,-847,-804,-748,-682,-586,-445,-272,-77,140,347,507,623,658,650,631,596,521,438,373,296,223,165,133,96,12,-104,-162,-101,-140,-123,-30,84,118,199,265,297,297,304,252,222,190,-146,-783,-1536,-1670,600,1768,2453,2392,1667,350,-391,-772,-821,-795,-770,-776,-746,-714,-732,-729,-721,-746,-766,-806,-848,-904,-926,-935,-921,-892,-806,-685,-493,-249,5,259,475,632,722,731,634,649,649,599,497,412,369,339,312,298,252,123,70,95,115,62,92,224,276
2018-05-17,14:31:43.730,305,385,438,460,435,390,354,343,229,-306,-1341,-2214,51,1641,2609,2600,1850,559,-317,-764,-821,-815,-829,-796,-785,-806,-845,-860,-888,-931,-994,-1053,-1089,-1102,-1072,-1053,-994,-912,-816,-684,-501,-236,50,326,566,742,847,882,853,794,752,692,618,541,483,423,377,352,308,215,104,95,84,49,134,287,363,394,479,502,504,486,458,430,406,215,-468,-1161,-2211,-284,1353,2437,2690,2157,897,-101,-623,-775,-788,-785,-787,-812,-821,-819,-819,-834,-848,-886,-895,-907,-936,-954,-1009,-951,-908,-883,-807,-549,-385,-131,198,412,589,747,773,484,556,843,593,456,495,384,344,306,290,235,160,101
2018-05-17,14:31:44.768,139,129,170,252,333,331,382,461,506,477,452,424,381,281,-252,-904,-1739,-1477,495,1617,2258,2220,1377,159,-432,-701,-739,-755,-779,-797,-807,-836,-859,-892,-919,-953,-995,-1049,-1083,-1094,-1090,-1032,-956,-881,-767,-613,-424,-207,33,288,498,625,724,776,759,705,649,583,523,455,394,368,319,297,261,195,104,37,69,104,201,319,349,309,350,432,442,434,371,339,309,113,-571,-1170,-1860,-293,1220,2128,2437,1911,761,-134,-649,-769,-833,-906,-936,-798,-772,-818,-915,-964,-978,-1019,-1065,-1087,-1122,-1106,-1112,-1040,-932,-879,-805,-668,-467,-191,110,389,664,875,982,995,962,879,810,738,675,620
2018-05-17,14:31:45.805,585,523,505,428,348,270,233,237,242,284,373,386,377,428,465,430,398,363,317,291,188,-341,-1237,-2541,-191,1838,3085,3169,2425,770,-370,-915,-1039,-1039,-1030,-1024,-1006,-1009,-1034,-1032,-1032,-1043,-1050,-1087,-1129,-1115,-1073,-1042,-963,-838,-717,-618,-451,-235,49,307,566,805,945,976,993,960,864,733,586,534,479,432,399,301,152,59,78,53,69,159,284,283,355,449,423,355,337,364,332,254,-69,-724,-1531,-1763,550,1989,2724,2660,1821,446,-433,-880,-946,-933,-929,-923,-919,-877,-871,-896,-909,-908,-918,-932,-907,-863,-803,-748,-669,-585,-495,-357,-246,-84,99,284,448,587,674,723,688,616
2018-05-17,14:31:46.842,574,465,376,317,260,199,142,63,-32,-78,-64,-74,-41,49,108,112,191,255,275,263,236,209,173,91,-372,-973,-2208,-661,1459,2452,2742,2395,1140,-134,-769,-976,-975,-964,-951,-913,-903,-891,-893,-900,-885,-866,-855,-850,-856,-827,-765,-692,-640,-588,-481,-381,-275,-125,49,253,414,548,631,629,587,561,504,414,374,259,174,243,234,158,68,-3,51,110,53,89,242,324,344,422,476,469,458,424,387,351,294,-126,-1026,-2462,-127,1934,2945,3168,2503,907,-366,-985,-1090,-1057,-1059,-1056,-1007,-991,-981,-976,-993,-1002,-1004,-1019,-1001,-1015,-1014,-952,-921,-871,-786,-677,-546,-366,-128,139,378,591
2018-05-17,14:31:47.879,755,829,828,793,749,669,579,519,473,429,393,362,277,158,137,158,110,147,300,405,411,480,533,557,554,526,473,417,326,-156,-907,-2358,-617,1630,2967,3237,2693,1332,59,-703,-902,-878,-855,-867,-877,-838,-837,-871,-877,-889,-914,-937,-950,-952,-926,-872,-803,-729,-665,-561,-470,-368,-185,6,184,276,460,623,624,536,495,449,408,348,275,243,219,179,108,27,21,53,30,61,181,293,293,369,445,474,457,428,393,347,202,-362,-1003,-1894,-731,1065,2070,2479,2172,1128,95,-464,-665,-653,-649,-681,-693,-678,-682,-680,-697,-725,-757,-794,-846,-864,-863,-853,-831,-768,-718,-648,-562,-466
2018-05-17,14:31:48.916,-308,-140,21,200,318,388,404,378,358,325,268,215,177,151,142,128,77,20,-36,-60,0,-24,27,171,270,276,355,448,487,457,395,363,339,159,-579,-1248,-1811,-457,1078,2089,2558,2220,1095,6,-592,-782,-786,-725,-757,-813,-743,-764,-943,-910,-697,-759,-814,-919,-972,-969,-931,-859,-788,-695,-613,-546,-425,-252,-37,198,399,558,683,739,692,644,609,529,499,462,378,350,373,359,356,253,157,171,190,211,289,405,402,369,427,500,477,459,447,396,340,193,-419,-1126,-2116,-83,1572,2652,2870,2251,877,-197,-762,-901,-882,-881,-894,-881,-864,-864,-875,-889,-916,-929,-924,-926,-913,-868
2018-05-17,14:31:49.954,-796,-715,-589,-496,-432,-327,-213,-63,111,299,485,640,733,749,714,650,600,525,454,409,385,375,327,303,238,145,94,131,94,106,226,302,286,357,405,412,351,224,396,387,191,-341,-1007,-1806,-1124,1070,2183,2698,2474,1285,1,-594,-863,-861,-854,-850,-837,-831,-819,-810,-800,-797,-811,-794,-767,-768,-748,-659,-550,-459,-363,-263,-201,-103,-6,97,222,370,475,514,529,533,506,453,381,324,272,193,165,171,149,86,10,-29,0,6,26,80,146,114,159,230,230,203,177,154,118,40,-392,-957,-1897,-1105,1022,2081,2523,2238,1180,-43,-660,-898,-888,-865,-850,-855,-840,-792,-814,-830
2018-05-17,14:31:50.991,-832,-831,-826,-823,-823,-764,-677,-578,-487,-389,-291,-224,-154,-85,10,129,245,352,410,439,435,395,346,288,264,221,158,23,103,171,125,196,172,103,20,29,59,41,112,277,295,295,386,437,456,395,365,342,323,198,-356,-1288,-2228,628,2055,2893,2914,2069,516,-487,-959,-1000,-959,-918,-896,-882,-852,-831,-828,-797,-793,-828,-837,-857,-855,-826,-770,-729,-689,-578,-473,-394,-293,-164,6,180,353,480,545,550,530,488,437,377,317,260,240,242,240,272,321,305,216,114,106,126,83,114,273,337,368,472,526,495,454,436,405,361,173,-399,-1156,-2108,-97,1533,2535,2736,2252,1004
2018-05-17,14:31:52.028,-62,-612,-690,-665,-690,-718,-688,-720,-740,-721,-730,-750,-746,-745,-731,-714,-682,-635,-551,-477,-422,-362,-269,-262,-221,-4,146,240,362,440,442,403,367,322,273,214,190,184,157,158,182,210,180,116,53,78,73,63,121,273,276,323,408,447,426,383,331,316,260,-90,-730,-1433,-1541,210,1319,2033,2149,1592,401,-322,-616,-652,-618,-669,-691,-695,-706,-699,-727,-770,-796,-817,-874,-890,-868,-811,-740,-667,-571,-470,-377,-301,-237,-154,-67,60,187,291,315,332,348,292,237,218,189,177,161,174,206,227,211,228,191,120,70,86,91,154,249,342,277,348,426,404,352,324,315,282
2018-05-17,14:31:53.065,168,-398,-1059,-1603,-934,756,1613,2191,2103,1317,203,-414,-654,-669,-653,-662,-677,-691,-701,-709,-745,-789,-821,-851,-874,-872,-866,-840,-768,-689,-604,-522,-455,-393,-291,-170,2,233,392,513,577,605,614,550,476,409,383,367,346,320,338,348,378,399,336,222,167,191,169,132,143,248,284,281,339,392,395,358,305,285,273,129,-466,-1113,-2049,-281,1514,2601,2933,2405,962,-264,-858,-988,-999,-1010,-1013,-1005,-973,-964,-949,-948,-930,-945,-948,-938,-906,-840,-737,-643,-513,-357,-236,-125,-70,52,179,285,471,592,632,665,657,591,535,450,351,296,252,209,201,217,234,242,187,153,3,-33
2018-05-17,14:31:54.102,103,53,31,261,250,252,346,333,338,370,306,263,212,159,-295,-938,-2128,-862,1332,2411,2774,2395,1126,-107,-696,-853,-849,-801,-783,-776,-762,-722,-686,-711,-695,-702,-683,-643,-620,-557,-472,-383,-304,-227,-154,-104,-41,9,55,117,206,261,299,308,258,217,182,113,43,8,-35,-57,-59,-51,-29,-31,-93,-156,-159,-110,-128,-119,-4,79,79,192,296,295,270,253,261,210,63,-518,-1106,-1854,-826,792,1689,2133,1965,1097,107,-399,-543,-537,-520,-513,-515,-528,-549,-554,-600,-649,-675,-696,-757,-772,-740,-694,-636,-526,-443,-352,-293,-224,-192,-118,156,311,410,451,463,486,397,454,424,303
2018-05-17,14:31:55.140,235,193,162,152,150,180,208,175,146,53,16,45,31,42,178,239,269,378,409,406,419,390,342,321,128,-489,-1109,-2036,-236,1239,2204,2446,1979,844,-90,-655,-755,-718,-709,-694,-707,-710,-706,-717,-726,-762,-775,-792,-827,-863,-859,-842,-802,-729,-645,-570,-485,-361,-227,-45,178,384,542,637,665,641,597,547,491,439,405,376,372,386,406,434,432,372,275,194,223,175,178,255,369,371,388,465,483,446,396,360,317,251,-15,-691,-1398,-1939,227,1707,2626,2651,1979,595,-326,-810,-856,-848,-857,-831,-824,-852,-825,-798,-825,-849,-849,-858,-843,-794,-741,-660,-560,-453,-346,-268,-196,-148
2018-05-17,14:31:56.177,-87,28,160,293,396,462,473,452,416,366,314,267,265,234,223,235,260,249,186,102,47,83,91,78,122,209,197,242,307,311,283,252,192,155,93,-372,-1015,-1656,-1522,526,1721,2398,2270,1350,68,-579,-852,-875,-850,-855,-822,-794,-790,-789,-770,-765,-780,-789,-774,-762,-750,-665,-593,-484,-360,-260,-168,-88,-2,88,189,302,370,434,458,446,392,363,313,234,199,157,124,106,89,108,119,136,105,27,-57,-25,20,38,84,204,172,237,358,390,368,340,323,280,237,6,-532,-1545,-1597,957,2268,2958,2789,1722,216,-637,-957,-992,-965,-941,-928,-886,-838,-831,-843,-801,-785,-797
2018-05-17,14:31:57.214,-779,-748,-704,-627,-542,-484,-372,-314,-250,-208,-134,-35,114,280,404,481,508,510,482,413,339,272,184,147,115,89,93,111,126,109,46,-27,31,-7,-26,46,188,224,265,343,362,356,309,281,255,195,-112,-754,-1884,-1599,963,2401,3066,2721,1656,274,-499,-818,-781,-744,-741,-726,-702,-691,-664,-644,-653,-695,-716,-712,-697,-699,-671,-618,-519,-425,-327,-247,-217,-158,-38,114,233,330,422,410,383,399,378,300,245,205,177,179,191,197,182,110,29,37,63,25,48,214,271,304,378,423,402,385,369,320,256,84,-495,-1135,-1892,-400,1089,1924,2181,1826,801,-55,-475,-536,-513,-510
2018-05-17,14:31:58.251,-514,-518,-524,-537,-569,-600,-615,-634,-660,-655,-639,-581,-512,-435,-345,-257,-192,-162,-142,-113,-46,45,132,183,209,196,186,144,112,67,29,5,-15,-25,-24,-39,-78,-140,-141,-119,-142,-85,32,163,169,266,365,369,354,342,335,313,182,-452,-1088,-1614,-699,611,1256,1735,1792,1240,313,-253,-471,-490,-504,-524,-532,-533,-540,-560,-570,-604,-627,-659,-696,-679,-635,-599,-558,-492,-451,-354,-282,-225,-146,14,165,298,416,480,507,471,415,368,314,266,215,192,141,161,187,167,137,27,32,83,106,147,262,296,318,415,454,446,416,363,326,256,94,-468,-1211,-2235,-422,1336,2558,2877
2018-05-17,14:31:59.288,2290,883,-172,-788,-910,-889,-884,-898,-908,-904,-921,-942,-950,-960,-966,-974,-961,-906,-834,-720,-599,-480,-374,-275,-198,-123,9,167,340,527,628,681,689,660,616,579,552,467,411,396,397,364,277,191,141,148,134,135,237,327,303,367,451,448,417,402,368,332,236,-242,-891,-1699,-1147,791,1963,2626,2481,1491,188,-499,-785,-803,-787,-813,-812,-783,-770,-795,-818,-819,-827,-852,-842,-821,-766,-663,-551,-415,-290,-187,-109,-59,40,135,256,395,486,531,534,527,485,440,386,357,305,241,222,177,110,31,-25,3,14,28,96,172,162,213,263,259,217,179,139,95,10,-422,-1016,-1810
2018-05-17,14:32:00.325,-1290,909,1995,2512,2220,1155,-99,-672,-895,-893,-857,-857,-841,-822,-782,-774,-808,-807,-826,-838,-827,-783,-710,-653,-548,-415,-308,-186,-128,-58,43,81,199,282,349,380,398,360,300,272,215,131,75,68,58,31,13,-6,-66,-140,-38,51,-63,50,178,240,361,451,488,467,411,367,330,324,81,-506,-1806,-1290,1300,2447,3033,2735,1514,2,-740,-987,-964,-977,-957,-907,-871,-864,-839,-808,-799,-791,-781,-753,-705,-657,-570,-459,-331,-232,-165,-120,-89,-53,77,215,343,469,537,562,518,460,393,300,230,173,140,108,103,106,74,0,-12,52,11,-16,97,261,293,377,442,458,434,397
2018-05-17,14:32:01.363,377,376,301,-110,-718,-1998,-1019,1212,2389,2932,2665,1600,242,-510,-807,-817,-774,-730,-714,-678,-687,-678,-657,-666,-663,-681,-720,-753,-737,-715,-677,-590,-481,-372,-292,-225,-150,-21,135,231,242,308,299,301,336,284,184,129,141,70,72,127,77,-37,-95,-64,-3,18,75,227,281,345,403,409,398,391,391,367,258,-255,-900,-1883,-663,1023,1930,2334,2092,1081,92,-348,-472,-495,-473,-490,-493,-513,-538,-578,-592,-587,-602,-610,-602,-583,-551,-512,-448,-393,-334,-303,-288,-265,-230,-168,-50,65,142,171,163,155,125,66,26,-9,-19,-37,-45,-53,-87,-171,-185,-145,-151,-70,76,154,166,273
2018-05-17,14:32:02.400,337,366,373,372,335,270,-41,-858,-1339,-1554,-92,830,1459,1895,1832,942,48,-438,-529,-525,-534,-540,-517,-479,-509,-515,-633,-685,-631,-762,-794,-790,-770,-661,-541,-490,-302,-215,-148,-67,27,93,236,352,395,435,476,443,380,332,295,258,224,259,274,244,220,141,90,130,126,171,260,346,349,416,467,482,464,436,402,364,235,-311,-950,-1826,-941,955,2036,2649,2436,1437,236,-444,-712,-721,-724,-756,-772,-784,-796,-799,-826,-822,-847,-865,-844,-816,-728,-633,-529,-396,-303,-239,-132,-66,-15,104,252,391,477,548,572,526,495,463,441,355,297,288,260,313,295,172,78,45,76,36
2018-05-17,14:32:03.437,48,228,288,274,342,400,389,346,326,253,196,22,-568,-1213,-1872,-287,1330,2223,2533,2077,924,-147,-642,-778,-781,-803,-760,-750,-761,-743,-740,-744,-745,-733,-718,-704,-672,-588,-467,-386,-295,-194,-126,-52,15,74,148,254,313,399,436,408,356,303,247,198,155,82,9,12,-4,-51,-159,-212,-143,-114,-90,18,72,44,102,186,191,178,172,149,135,60,-407,-1005,-1911,-594,1248,2068,2471,2173,1118,-70,-646,-839,-821,-787,-767,-747,-745,-742,-730,-714,-715,-707,-661,-679,-631,-587,-507,-417,-339,-256,-169,-139,-149,-121,-81,12,135,241,298,313,292,262,208,165,106,88,46,24,61,104
2018-05-17,14:32:04.474,80,77,19,-10,67,86,64,128,286,297,332,408,446,415,396,348,299,299,105,-557,-1838,-1507,922,2151,2915,2689,1586,221,-531,-819,-804,-772,-738,-667,-669,-687,-679,-644,-662,-705,-727,-725,-729,-749,-672,-583,-497,-430,-347,-287,-257,-208,-121,58,168,274,366,405,385,343,306,272,212,181,182,161,157,172,168,108,23,55,63,59,96,261,312,379,476,486,491,463,405,378,341,-15,-705,-1530,-1519,375,1450,2248,2367,1774,606,-173,-611,-651,-625,-644,-638,-653,-654,-666,-669,-674,-713,-737,-731,-733,-672,-636,-560,-467,-359,-278,-237,-197,-109,-5,102,240,349,385,396,378,321,252
2018-05-17,14:32:05.511,238,216,176,153,144,159,159,141,82,33,93,136,132,171,306,346,372,431,468,470,452,411,371,253,-257,-984,-1581,-1276,492,1379,2119,2218,1487,310,-351,-639,-665,-660,-677,-679,-690,-721,-744,-753,-761,-799,-828,-827,-796,-742,-672,-572,-459,-372,-286,-229,-208,-159,-95,-18,88,204,258,289,292,261,259,225,179,147,137,141,158,174,105,47,-38,-84,-40,6,22,156,206,190,280,352,363,327,299,264,228,0,-722,-1297,-1645,-73,1071,1823,2395,2106,918,-21,-536,-651,-631,-659,-680,-685,-708,-736,-762,-810,-857,-881,-887,-915,-901,-866,-792,-688,-577,-449,-360,-289,-175,-1,169,355
2018-05-17,14:32:06.549,545,695,765,739,698,631,530,478,416,386,360,340,331,334,329,261,179,93,109,116,73,145,279,279,344,414,429,405,371,329,300,270,-9,-637,-1807,-1255,1406,2552,3073,2869,1784,208,-713,-1082,-1077,-1025,-1008,-994,-930,-922,-904,-890,-853,-857,-870,-826,-781,-739,-636,-536,-421,-303,-190,-119,-68,-17,58,135,232,306,345,359,339,296,256,199,138,99,93,41,3,73,115,62,-27,-90,83,7,17,249,347,291,340,404,393,380,348,319,275,185,-302,-1002,-2304,-392,1394,2375,2723,2277,995,-89,-581,-720,-688,-659,-656,-665,-637,-610,-610,-618,-602,-590,-599,-597,-515,-453,-374,-280
2018-05-17,14:32:07.586,-185,-103,-75,-57,-88,-65,-1,68,154,218,228,198,170,129,66,23,-15,-49,-70,-89,-85,-85,-120,-184,-196,-110,-123,-148,-53,48,49,153,233,236,233,217,168,147,-18,-656,-1303,-1941,-371,1084,1894,2297,2006,957,-39,-505,-652,-601,-560,-555,-524,-491,-518,-550,-550,-576,-611,-655,-701,-717,-707,-667,-610,-515,-407,-307,-239,-215,-127,37,160,229,346,362,428,420,343,313,280,231,199,197,157,158,189,199,137,24,13,22,6,50,186,239,249,311,403,413,390,341,308,251,-42,-716,-1565,-1574,321,1389,2213,2262,1615,513,-238,-617,-641,-637,-629,-616,-614,-616,-613,-610,-626,-629
2018-05-17,14:32:08.623,-635,-634,-662,-660,-646,-601,-537,-441,-329,-264,-217,-141,-4,134,276,393,464,483,464,416,368,328,259,225,239,259,251,228,225,190,80,90,89,74,182,351,397,432,511,547,540,494,441,388,319,-100,-840,-1544,-1524,522,1681,2527,2599,1873,525,-288,-666,-694,-690,-673,-617,-622,-635,-640,-688,-712,-688,-776,-753,-684,-648,-569,-532,-410,-271,-139,-37,-60,-94,-72,-12,66,151,196,217,211,186,165,149,123,118,122,127,119,118,75,-10,-3,63,113,145,247,303,282,350,376,375,345,282,235,155,-143,-823,-1417,-1599,79,1047,1685,1965,1547,442,-300,-632,-696,-681,-684,-685,-679
2018-05-17,14:32:09.660,-691,-718,-732,-716,-741,-770,-760,-733,-676,-612,-513,-419,-313,-210,-148,-122,-83,-31,36,110,194,284,278,274,273,247,250,197,190,161,143,128,68,-10,-102,-146,-86,-32,24,158,211,218,304,380,402,406,349,366,297,-21,-713,-1251,-1674,273,1496,2445,2769,2173,788,-173,-662,-770,-745,-774,-763,-764,-775,-816,-846,-856,-919,-918,-940,-929,-909,-859,-743,-651,-517,-413,-297,-240,-108,52,212,359,532,652,675,639,592,522,436,375,356,312,266,279,280,222,156,62,94,94,120,227,318,313,372,442,469,446,400,361,324,297,28,-644,-1991,-563,1814,2684,3048,2725,1480,-51,-801,-1011
2018-05-17,14:32:10.697,-964,-963,-947,-911,-914,-916,-912,-906,-890,-877,-847,-814,-726,-682,-585,-440,-321,-205,-143,-58,11,31,61,160,247,325,366,361,334,294,237,188,119,69,94,84,64,13,-20,-174,-32,51,47,125,278,278,338,382,395,373,352,310,258,182,-297,-975,-2142,-551,1269,2233,2582,2202,1021,-33,-502,-644,-614,-619,-593,-594,-581,-571,-561,-556,-548,-551,-544,-543,-484,-430,-372,-284,-204,-110,-29,-8,-11,12,40,88,142,163,155,125,67,31,-22,-81,-113,-140,-164,-178,-232,-300,-305,-269,-259,-239,-93,45,149,204,250,293,293,259,246,213,8,-655,-1316,-1865,-214,1032,1812,2178,1857,806
2018-05-17,14:32:21.133,-1256,-2015,319,1787,2725,2810,2133,789,-124,-608,-516,-651,-596,-720,-971,-475,-384,-585,-783,-895,-877,-836,-1029,-967,-546,-330,-205,-111,-26,157,305,184,36,18,170,370,345,269,236,253,245,181,102,149,284,203,7,-103,-86,-71,-38,227,381,374,388,412,434,398,318,264,282,10,-670,-1336,-1924,-96,1463,2179,2358,1863,758,-196,-635,-762,-714,-702,-749,-715,-648,-683,-610,-570,-578,-593,-623,-650,-662,-552,-492,-429,-329,-301,-248,-153,-54,49,191,238,285,341,373,298,248,189,146,14,-34,-164,-63,-17,68,-143,-212,-90,76,92,162,29,243,538,347,324,509,344,-470,-1126,-1931,-440
2018-05-17,14:32:21.995,1733,2204,2659,2751,1605,182,-507,-780,-908,-884,-858,-907,-959,-837,-692,-635,-582,-542,-548,-443,-332,-189,-73,103,186,172,140,33,-78,-120,-53,-13,20,70,115,126,40,1,-21,-96,-123,-178,-243,-291,-345,-332,-328,-283,-79,172,318,379,491,551,550,518,456,436,364,-77,-888,-2133,-706,1317,2434,2886,2558,1515,400,-232,-491,-488,-674,-379,-188,-518,-600,-651,-494,-491,-650,-752,-755,-739,-556,-461,-372,-226,-14,-21,-23,48,82,80,-37,78,101,-48,-77,35,76,39,36,-18,-6,-49,-120,-163,-102,8,111,207,244,306,368,435,476,441,458,418,263,-177,-1086,-1580,-1455,341,1191,2003
2018-05-17,14:32:23.032,2324,1820,623,-302,-746,-831,-805,-709,-632,-613,-616,-662,-690,-713,-733,-616,-555,-576,-492,-413,-357,-315,-227,-15,-21,-86,-152,-90,-57,-34,52,195,262,278,224,180,158,147,108,38,-72,-162,-270,-71,-143,-228,95,216,503,583,443,380,296,62,206,18,-481,-1070,-1690,784,1916,2121,2589,2284,1007,-81,-737,-767,-866,-1009,-815,-718,-710,-679,-780,-713,-662,-732,-775,-733,-495,-232,-115,-10,132,318,373,355,405,393,355,327,331,283,251,198,84,-15,-96,-176,-254,-399,-541,-474,-378,-383,-290,-44,106,171,251,344,367,387,452,398,332,-123,-798,-1477,-1221,917,1784,2451,2593,1957,623,-20
2018-05-17,14:32:24.069,-239,-234,-279,-310,-305,-274,-234,-318,-428,-441,-497,-437,-299,-514,-571,-246,-217,-279,-245,-230,-222,-264,-430,-433,-232,7,-49,-111,-101,-75,-210,-327,-190,-133,-151,-302,-512,-505,-420,-278,-120,80,237,274,367,417,429,534,586,498,197,-579,-1178,-1520,255,1078,1559,1938,1769,964,214,-174,-301,-376,-376,-364,-466,-529,-579,-667,-673,-684,-691,-648,-572,-534,-447,-307,-234,-181,-126,20,-34,-153,-68,2,149,243,193,113,126,124,84,2,-2,-14,19,-77,-226,-264,-221,-85,-19,-63,26,522,617,559,542,463,431,427,215,-373,-1015,-1921,-27,1902,2991,3459,2916,1337,-64,-763,-978,-900,-955,-737
2018-05-17,14:32:25.106,-668,-952,-829,-630,-904,-804,-766,-828,-767,-645,-572,-476,-312,-156,-16,179,261,291,289,286,369,402,395,418,366,247,136,64,-20,-182,-355,-422,-391,-319,-185,-31,41,150,262,314,308,323,302,258,-45,-862,-1316,-1563,417,1379,1927,2321,2203,1220,132,-400,-448,-433,-507,-515,-476,-483,-483,-354,-258,-180,-157,-162,-120,-47,36,93,175,224,143,-25,-61,-123,-322,-76,-4,-33,-158,-227,-361,-470,-391,-477,-425,-614,-723,-516,-579,-623,-493,-356,42,225,208,190,213,190,475,315,-174,-820,-1922,-1550,967,2139,2819,2969,2178,663,-149,-456,-501,-457,-359,-370,-357,-324,-341,-333,-410,-520,-540,-509
2018-05-17,14:32:26.143,-572,-552,-488,-518,-485,-376,-299,-261,-244,-198,-152,-115,-3,51,18,-26,-46,-15,-16,-91,-157,-317,-360,-380,-349,-250,-39,109,276,406,466,494,522,563,602,540,-53,-904,-1738,-437,1138,2124,2530,2496,1444,312,-267,-257,-208,-320,-493,-602,-521,-478,-509,-778,-728,-488,-389,-422,-353,-182,-152,-134,59,207,14,206,275,-36,-116,23,0,-32,-40,-46,-46,-40,-107,-129,-171,-124,-182,-221,-131,127,324,290,419,530,535,456,397,322,225,-252,-1037,-1648,-1484,753,1804,2331,2257,1562,399,-344,-616,-635,-559,-494,-508,-550,-431,-381,-408,-415,-342,-279,-271,-258,-150,-92,-17,97,125,194,126,-6
2018-05-17,14:32:27.181,-4,-28,-126,-112,-122,-172,-108,-92,-188,-332,-439,-567,-466,-211,-389,-517,-121,131,161,192,206,185,90,-88,-179,-539,-1311,-1981,250,1732,2175,2385,2058,1047,87,-450,-639,-719,-639,-568,-562,-659,-642,-641,-657,-669,-663,-565,-430,-297,-152,7,176,341,405,424,392,317,198,87,37,9,-47,-109,-184,-262,-433,-721,-926,-946,-831,-599,-357,-155,73,326,435,471,438,486,555,460,-278,-1076,-1736,476,2073,2801,3227,3011,1768,374,-421,-619,-579,-446,-355,-332,-301,-341,-371,-327,-263,-411,-480,-294,-108,93,-98,-245,-35,32,105,137,-64,-332,-395,-375,-420,-454,-464,-410,-380,-365,-640,-541,-718,-651
2018-05-17,14:32:28.218,-399,-274,-29,80,404,441,427,381,444,568,219,-714,-1372,-1767,-8,1439,2229,2536,2268,1283,424,52,28,-7,-99,-88,-100,-156,-230,-268,-305,-379,-415,-435,-469,-451,-430,-366,-292,-212,-160,-142,-130,-145,-233,-307,-378,-438,-480,-354,-325,-275,-352,-479,-554,-633,-665,-598,-393,-127,22,160,321,381,420,500,481,394,-82,-900,-1540,-489,868,1301,1737,1975,1629,722,-154,-181,-66,-12,-244,-366,-325,-451,-483,-424,-504,-571,-386,-437,-431,-360,-201,-26,102,47,18,-3,-148,-92,-161,-278,-274,-131,-182,-75,-176,-299,-370,-413,-407,-418,-366,-174,59,252,458,587,704,765,757,735,603,237,-617,-1358
2018-05-17,14:32:29.255,-1706,613,2345,3601,3591,2738,1127,-99,-682,-708,-621,-603,-620,-528,-571,-574,-512,-480,-423,-432,-392,-362,-333,-325,-184,-87,3,-18,3,-63,-295,-403,-349,-315,-275,-274,-303,-354,-478,-539,-611,-665,-103,148,10,100,264,328,538,449,351,261,217,-321,-1138,-2036,-694,1144,1879,2411,2251,1414,369,-277,-421,-320,-246,-224,-64,-203,-311,-249,-331,-199,-197,-336,-193,-120,13,134,245,272,306,276,132,-7,-92,-154,-196,-242,-303,-378,-575,-781,-837,-860,-860,-747,-514,-359,-211,-89,6,88,121,169,163,-109,-956,-1429,-1532,501,1740,2441,2709,2316,1162,130,-385,-485,-514,-522,-556,-558,-582,-551,-492,-415
2018-05-17,14:32:30.292,-346,-367,-314,-283,-206,-151,-64,-267,-98,276,202,-166,-303,-268,-204,-236,-246,-269,-303,-486,-652,-825,-654,-575,-596,-182,-20,358,501,471,481,621,500,528,219,-496,-1577,-1442,1409,2810,3596,3706,2671,868,-253,-721,-729,-634,-482,-417,-420,-487,-448,-324,-323,-377,-361,-305,-272,-264,-289,-299,-304,-302,-317,-422,-534,-542,-515,-460,-410,-350,-338,-358,-430,-563,-597,-660,-543,-292,-15,208,420,535,566,602,606,624,533,90,-668,-1464,-1320,1027,2263,3017,3039,2259,991,192,-270,-293,-291,-250,-259,-289,-250,-220,-262,-411,-486,-604,-814,-669,-423,-244,-221,-261,-264,-237,-365,-497,-419,-318,-257,-402,-366,-366
2018-05-17,14:32:31.329,-621,-468,-380,-442,-516,-391,-75,132,215,330,478,545,557,569,519,338,-383,-958,-1135,191,990,1505,1999,1881,1232,522,145,-13,-84,-87,-153,-153,-222,-324,-455,-559,-621,-713,-781,-819,-808,-722,-645,-518,-380,-320,-338,-340,-345,-350,-270,-197,-163,-176,-216,-185,-274,-369,-375,-421,-353,-135,141,282,458,670,716,720,620,572,279,-646,-1302,-1281,437,1159,1893,2368,2051,1143,490,-110,-327,-301,-341,-524,-655,-584,-282,-484,-556,-637,-582,-751,-739,-626,-638,-561,-332,-424,-419,-265,-418,-327,-221,-140,-75,-41,0,33,40,19,45,83,123,234,466,637,748,890,990,1010,945,899,694,359,-460,-1146
2018-05-17,14:32:32.367,-1540,651,2169,3090,3017,2225,898,-82,-603,-671,-605,-555,-561,-572,-571,-667,-709,-733,-712,-717,-739,-794,-656,-562,-480,-412,-288,-333,-328,-360,-373,-369,-313,-113,1,-81,-138,-187,-193,-124,51,122,249,390,537,518,436,415,531,412,263,-432,-1100,-1663,-376,1322,1970,2299,2004,1128,5,-405,-475,-485,-517,-532,-584,-524,-458,-576,-703,-835,-796,-843,-1000,-908,-875,-657,-570,-535,-374,-176,-125,-48,59,160,244,327,295,146,16,-54,-39,14,90,337,406,441,548,554,514,472,418,353,-104,-798,-1865,332,2217,2728,2911,2472,1337,115,-584,-785,-777,-767,-756,-756,-822,-887,-962,-1059,-1202,-1309,-1426,-1455
2018-05-17,14:32:33.404,-1431,-1115,-807,-649,-528,-387,-277,-176,-66,66,205,330,288,155,51,-78,60,353,225,255,476,525,725,790,760,905,647,483,741,128,-678,-1838,-157,1993,2794,2990,2745,1624,506,-84,-336,-453,-488,-491,-507,-573,-553,-647,-628,-523,-530,-612,-613,-484,-268,-46,54,86,195,135,-3,-47,-158,-265,-274,-282,-397,-587,-689,-727,-723,-601,-330,-109,53,212,330,368,393,374,322,119,-663,-1123,-1359,226,1480,1810,2110,1956,1055,236,-211,-302,-290,-259,-297,-331,-268,-203,-300,-360,-380,-489,-484,-473,-513,-418,-333,-194,-195,-334,-398,-421,-330,-228,-12,-89,-218,-341,-468,-549,-538,-638,-507,-157,150,223
2018-05-17,14:32:34.441,134,503,564,545,493,496,230,-217,-828,-1786,-154,1857,2723,3063,2772,1447,205,-328,-457,-460,-423,-387,-472,-533,-488,-496,-578,-624,-715,-827,-850,-885,-896,-854,-815,-823,-806,-712,-562,-390,-254,-204,-196,-162,-115,-147,-263,-317,-301,-279,-120,173,459,593,666,740,783,792,718,618,472,-52,-1143,-1770,924,2653,3650,3610,2668,1016,-172,-764,-803,-806,-780,-892,-869,-724,-706,-882,-1207,-1105,-1084,-1212,-1212,-1175,-1137,-940,-793,-686,-335,-153,-160,84,107,-62,-16,267,382,181,287,277,-69,228,419,585,709,781,864,949,889,853,915,931,330,-558,-1251,-871,824,1807,2510,2466,1818,735,58,-226,-235,-333
2018-05-17,14:32:35.478,-410,-462,-535,-663,-772,-829,-959,-1065,-1072,-1082,-1025,-863,-685,-540,-452,-362,-326,-320,-274,-253,-179,-89,-62,49,0,-71,-112,-142,-160,-50,99,306,442,592,725,824,861,804,705,574,33,-816,-1172,-600,553,904,1635,1861,1465,643,261,-184,-316,-358,-463,-623,-822,-942,-632,-723,-902,-994,-1012,-1017,-1003,-878,-805,-707,-538,-494,-458,-312,-241,-127,22,74,141,183,175,212,255,229,113,137,241,336,473,589,696,767,768,711,600,498,201,-656,-1321,-1560,146,1700,2907,3215,2502,931,-243,-861,-981,-940,-949,-983,-1062,-1094,-1115,-1168,-1262,-1344,-1477,-1534,-1471,-1400,-1277,-1099,-1025,-956,-910,-749,-583,-333
2018-05-17,14:32:36.515,-62,119,250,304,330,293,234,209,200,307,405,516,651,624,693,852,1068,823,762,699,488,-41,-1188,-1474,1521,2976,3563,3288,2353,628,-244,-686,-764,-725,-824,-914,-894,-910,-1052,-1115,-1143,-1328,-1397,-1271,-1167,-1040,-850,-533,-271,-150,-186,-65,94,177,238,275,344,289,229,122,-36,-97,7,149,358,479,566,625,611,548,488,485,410,115,-605,-1179,-1290,879,1677,1951,2091,1767,751,-11,-361,-351,-375,-379,-457,-529,-593,-693,-717,-774,-811,-831,-735,-530,-373,-363,-283,-130,-70,-106,-84,-36,-1,40,55,-6,47,-65,-251,-369,-286,-246,-168,-168,-27,244,230,343,515,677,531,373,67,-580
2018-05-17,14:32:37.552,-1146,-1482,878,2084,2596,2542,2007,812,-47,-418,-480,-569,-552,-552,-642,-654,-627,-624,-647,-751,-794,-762,-623,-462,-265,-77,16,27,-18,-85,-78,-80,-99,-113,-152,-180,-227,-286,-383,-402,-382,-355,-192,81,313,476,579,605,597,615,609,567,307,-397,-1228,-1324,1393,2828,3565,3612,2663,843,-438,-934,-907,-917,-968,-962,-936,-1000,-1130,-1044,-1128,-1107,-1162,-1357,-1438,-1063,-983,-762,-519,-502,-426,-254,-174,57,69,174,238,403,400,346,242,239,176,145,278,762,826,787,805,1128,946,765,743,749,617,78,-1050,-1803,523,2240,3092,3139,2340,943,-2,-366,-407,-427,-477,-545,-587,-680,-804,-901,-1008,-1122
2018-05-17,14:32:38.590,-1220,-1277,-1243,-1148,-967,-746,-536,-419,-269,-186,-99,-17,-4,18,56,73,96,96,38,34,9,117,274,429,582,706,791,697,642,671,647,641,597,14,-654,-1191,105,1265,1840,2118,1962,1199,295,-129,-250,-447,-597,-409,-519,-598,-593,-784,-1040,-1072,-1290,-1249,-1022,-1074,-915,-672,-556,-477,-421,-301,-264,-359,-97,69,106,64,-230,92,435,118,-52,-17,-23,-23,166,399,542,737,845,815,764,731,684,299,-628,-1214,-890,820,1476,2056,2336,1947,916,-8,-554,-585,-585,-619,-708,-816,-903,-960,-1053,-1135,-1199,-1197,-1168,-1111,-997,-821,-629,-476,-415,-319,-251,-166,-47,35,95,157,229,249,233,278
2018-05-17,14:32:39.627,266,267,213,105,200,456,704,686,727,797,737,580,821,684,399,76,-258,-1251,-688,1633,2682,3281,3350,2134,254,-714,-941,-967,-1163,-958,-868,-1063,-1015,-1230,-1179,-1107,-1300,-1298,-1101,-1030,-968,-883,-671,-515,-483,-368,-58,135,225,268,325,399,470,476,458,307,213,149,92,160,407,569,587,647,679,649,608,557,440,267,-323,-988,-1461,741,1868,2115,2224,1855,787,-86,-547,-606,-538,-632,-671,-691,-739,-865,-883,-898,-981,-966,-868,-641,-464,-328,-198,-105,-56,-79,-88,-97,-33,-13,105,18,-117,-48,-142,-212,-116,-185,-247,-304,-169,-46,74,107,330,405,391,437,295,80,-274,-995,-1590,-796
2018-05-17,14:32:40.664,1524,2153,2536,2511,1609,157,-606,-849,-831,-744,-891,-1117,-1134,-1007,-985,-973,-959,-942,-888,-710,-555,-372,-233,-104,-115,-210,-271,-284,-299,-272,-280,-317,-326,-344,-356,-342,-379,-447,-465,-397,-320,-128,126,240,355,400,444,505,544,568,512,215,-449,-1540,-551,2065,3071,3616,3426,2136,401,-656,-1010,-1005,-988,-978,-978,-935,-974,-1024,-1069,-1137,-1058,-1073,-1033,-1036,-830,-464,-593,-702,-433,-390,-322,-258,-317,-184,-1,-81,-45,-61,-25,-103,-60,237,130,-23,190,328,548,706,749,954,903,813,753,662,330,-417,-1325,-1060,886,1816,2323,2373,1833,832,127,-215,-262,-278,-350,-468,-550,-562,-659,-794,-966,-1043
2018-05-17,14:32:41.701,-1127,-1126,-1058,-933,-752,-581,-445,-348,-282,-237,-166,-72,-16,24,133,136,135,184,121,35,-34,-9,72,138,279,425,495,549,630,712,736,678,606,366,-364,-1177,-1140,775,1727,2254,2260,1900,876,-67,-742,-590,-447,-511,-574,-606,-900,-1099,-1048,-1094,-1088,-849,-956,-826,-724,-535,-118,-190,-345,-295,-255,-261,-154,91,161,302,238,257,380,329,257,331,324,305,331,427,672,852,904,1001,1022,990,921,798,697,342,-432,-1172,-1460,676,2406,3269,3132,2242,744,-333,-807,-850,-798,-753,-780,-817,-848,-910,-913,-847,-841,-880,-720,-632,-567,-460,-302,-243,-355,-349,-332,-292,-237,-80,53,74,96,113
2018-05-17,14:32:42.738,114,76,7,-13,17,-35,54,601,617,414,518,452,451,620,551,266,-107,-765,-1422,-1457,811,1819,2417,2257,1456,420,-433,-638,-703,-494,-486,-824,-644,-778,-828,-626,-744,-938,-875,-784,-812,-820,-772,-518,-311,-178,-124,-19,80,187,233,305,307,269,252,171,-25,-201,-238,-167,-85,61,227,361,471,533,558,548,490,446,454,163,-626,-1536,-240,2187,2681,3077,3066,2002,304,-637,-901,-946,-984,-987,-1011,-1050,-1100,-1219,-1281,-1216,-1086,-1014,-923,-813,-611,-385,-202,-196,-177,-99,-200,25,203,299,95,-32,-11,78,20,-150,-165,-280,-189,65,135,418,364,563,925,811,770,826,605,440,476,-156
2018-05-17,14:32:43.776,-1284,-1122,1837,2887,3335,3246,2358,734,-480,-914,-787,-674,-661,-741,-769,-748,-705,-710,-717,-647,-621,-613,-510,-426,-405,-302,-327,-496,-560,-571,-494,-436,-404,-379,-374,-367,-325,-292,-351,-365,-303,-276,-267,-108,200,333,493,565,660,635,519,514,445,-14,-717,-1312,-978,932,1874,2422,2487,1829,670,-32,-239,-285,-395,-451,-666,-333,-404,-838,-758,-611,-651,-543,-632,-810,-835,-766,-693,-720,-416,-245,-210,-253,-77,-429,-166,26,-265,-87,-77,-79,-68,-175,-190,-138,123,276,403,613,677,432,522,717,706,607,-1,-787,-1355,-289,1197,1810,2260,2114,1369,412,-196,-441,-416,-433,-503,-622,-728,-816,-941,-1014
2018-05-17,14:32:44.813,-1086,-1123,-1091,-1069,-891,-670,-545,-450,-410,-355,-272,-175,-39,55,95,139,172,109,134,181,225,185,77,14,-102,-48,241,499,561,634,509,462,843,875,581,466,-277,-800,-1189,-779,1156,2564,3461,3125,1881,248,-571,-1021,-776,-764,-909,-821,-705,-753,-929,-980,-1042,-843,-895,-1128,-883,-491,-371,-474,-438,-360,-354,-193,-58,-106,-45,229,319,393,414,446,371,253,217,210,255,321,486,636,698,683,684,650,587,511,415,279,-220,-922,-1727,-75,1702,2227,2386,2082,1061,-89,-588,-698,-691,-632,-656,-644,-698,-766,-821,-858,-874,-861,-856,-721,-619,-477,-230,-7,10,-47,-58,37,20,54,-135,-288
2018-05-17,14:32:45.850,202,298,-46,-295,-159,-38,-153,-58,-66,9,83,36,252,241,403,471,343,168,-156,-729,-1387,-1136,1156,1804,2359,2374,1648,240,-317,-482,-660,-750,-679,-724,-688,-736,-931,-828,-686,-721,-699,-573,-420,-249,-73,99,182,156,90,52,10,-29,-94,-124,-106,-218,-307,-333,-372,-466,-457,-423,-368,-173,112,274,404,466,477,473,453,444,449,120,-557,-1333,-1043,1835,2861,3472,3526,2501,667,-597,-1098,-1133,-1049,-951,-892,-919,-980,-994,-1017,-997,-961,-924,-905,-854,-629,-615,-747,-652,-49,57,68,106,116,158,57,-100,-114,-38,251,139,-102,-150,-132,-250,266,640,606,430,426,796,856,759,632,510
2018-05-17,14:32:46.887,332,-273,-1127,-1811,440,2028,2951,3099,2363,978,44,-380,-396,-414,-371,-401,-475,-543,-654,-799,-884,-947,-1053,-1074,-1025,-943,-753,-618,-479,-373,-350,-268,-183,-174,-125,-137,-157,-143,-151,-214,-182,-176,-208,-225,-245,36,272,365,411,481,609,568,557,674,627,333,-485,-1097,-989,571,1276,1831,2061,1656,690,153,-359,-690,-342,-268,-402,-540,-643,-818,-961,-1282,-1321,-845,-663,-799,-832,-491,-262,-273,-260,-169,-79,35,-125,-61,55,37,24,7,18,45,-54,-147,-149,-77,-33,64,275,410,432,564,687,743,729,640,496,-8,-887,-1502,-1107,922,2363,3335,3179,2152,556,-482,-900,-933,-875,-904,-914,-928
2018-05-17,14:32:47.924,-991,-1002,-1074,-1145,-1148,-1086,-1059,-958,-827,-647,-574,-453,-369,-341,-198,-29,53,97,163,221,313,365,409,343,228,200,188,277,427,454,365,897,1003,825,617,762,808,639,518,-6,-828,-1544,192,1837,2483,2668,2221,1003,-104,-549,-642,-691,-655,-659,-746,-844,-838,-866,-913,-915,-893,-875,-725,-593,-425,-224,-52,22,119,155,207,181,189,252,255,214,124,25,-51,-250,-325,-309,-236,-159,-31,103,207,286,318,292,269,232,155,-145,-842,-1325,-1301,772,1575,2003,2221,1846,635,-277,-675,-690,-639,-663,-791,-863,-881,-946,-1041,-1079,-1064,-939,-774,-632,-438,-286,-165,-40,46,83,196,-129,-63,764
2018-05-17,14:32:48.962,544,251,15,-13,-17,-233,-348,-212,-228,-303,-147,26,22,113,516,738,591,471,510,410,368,-293,-1079,-1754,1033,2495,3070,3231,2635,970,-331,-943,-1090,-999,-844,-812,-845,-881,-871,-825,-779,-742,-688,-602,-490,-423,-367,-402,-468,-474,-405,-301,-219,-160,-64,-42,-72,-152,-148,-70,-117,-172,-156,-130,-218,-206,-24,258,493,620,689,768,760,646,581,572,399,-269,-1268,-1424,1185,2643,3510,3319,2231,662,-280,-695,-696,-631,-637,-661,-646,-704,-837,-933,-1019,-1108,-1173,-959,-927,-802,-683,-591,-545,-593,-399,-246,-130,-173,-198,97,151,-27,82,-85,30,1,-211,-98,31,8,307,416,609,727,684,656
2018-05-17,14:32:49.999,622,594,629,302,-439,-1048,-908,612,1461,2090,2226,1685,687,-3,-347,-370,-448,-511,-532,-645,-703,-796,-927,-1033,-1082,-1048,-974,-809,-677,-514,-381,-301,-276,-305,-213,-146,-70,43,120,39,-12,14,-23,-28,-123,-163,-178,-241,-231,-49,302,528,584,631,688,680,627,603,473,69,-808,-1418,-825,835,1440,2377,2715,2166,834,-136,-635,-756,-804,-867,-895,-916,-681,-755,-995,-1009,-995,-1053,-1019,-938,-710,-522,-362,-308,-340,-171,37,143,183,274,286,311,342,437,476,378,297,208,185,247,315,542,653,638,657,651,625,569,470,392,280,-188,-897,-1639,-712,1364,2054,2276,2045,1180,24,-477,-691,-681
2018-05-17,14:32:51.036,-741,-743,-675,-734,-629,-762,-852,-833,-812,-848,-767,-707,-576,-416,-307,-231,-122,46,171,262,292,287,236,171,145,65,-19,-131,-124,-113,-86,-1,157,341,240,329,380,270,275,99,17,-167,-827,-1427,-916,1024,1538,2134,2144,1435,247,-391,-618,-485,-621,-662,-638,-694,-717,-817,-964,-1049,-1081,-1004,-757,-503,-288,-144,-38,98,241,379,432,426,369,263,170,140,28,-122,-289,-375,-429,-482,-457,-264,-13,160,265,395,471,469,473,434,315,100,-538,-1203,-1235,1562,2612,3181,3320,2594,868,-416,-957,-1042,-1081,-1098,-1040,-997,-983,-1020,-1060,-1068,-1085,-1121,-1110,-1175,-934,-349,-255,-618,-489,-170,145,287
2018-05-17,14:32:52.073,317,267,235,144,1,-243,43,-78,-136,-38,-75,87,58,188,432,552,718,720,825,763,677,640,568,-56,-1153,-1997,928,2612,3453,3416,2665,1006,-206,-716,-762,-694,-672,-662,-638,-632,-753,-868,-887,-920,-1034,-1043,-1008,-922,-807,-719,-595,-451,-311,-163,-42,111,165,183,121,66,12,-135,-211,-231,-213,-163,-7,163,339,496,584,664,710,668,650,607,580,108,-635,-1551,-686,1153,2060,2564,2441,1587,537,-119,-265,-318,-277,-391,-647,-829,-739,-771,-768,-774,-966,-980,-1107,-1156,-758,-556,-195,-90,-220,-138,-27,32,40,54,-59,-42,81,100,-96,-223,-128,-170,-262,-74,207,381,454,645,682,696
2018-05-17,14:32:53.110,649,614,573,208,-747,-1242,-1058,619,1236,1605,1839,1610,761,-6,-365,-434,-495,-567,-631,-690,-746,-868,-990,-1000,-1032,-1034,-984,-941,-864,-733,-577,-417,-395,-237,-3,81,162,159,110,92,46,151,77,-77,-296,-404,-391,-172,3,198,367,514,694,710,604,428,452,535,540,-442,-1343,-1253,401,1677,2528,2926,2347,1083,-141,-830,-1180,-907,-575,-660,-900,-1078,-1229,-1342,-1399,-1129,-1162,-1228,-1190,-1049,-914,-663,-508,-329,-215,-35,140,285,429,527,572,489,437,435,322,173,228,216,287,425,629,730,720,722,713,694,610,476,422,102,-579,-1376,-1081,1340,2247,2520,2436,1674,361,-410,-704,-742,-739,-764
2018-05-17,14:32:54.147,-708,-753,-862,-817,-917,-1069,-1066,-1035,-966,-857,-708,-591,-478,-276,-24,136,242,348,432,468,417,316,229,57,-77,-47,-36,-152,-231,17,266,562,452,393,351,268,60,-40,-21,-929,-1556,-1170,594,1273,1527,1676,1325,658,130,-234,-316,-326,-251,-313,-474,-541,-494,-513,-598,-626,-543,-381,-306,-283,-163,-65,37,173,307,362,386,339,262,166,51,-104,-306,-500,-641,-706,-704,-535,-276,-52,66,192,319,348,385,395,320,64,-699,-1193,-1416,534,2046,2777,2964,2577,1219,-151,-644,-757,-759,-848,-870,-895,-951,-950,-922,-932,-1003,-1003,-924,-783,-619,-428,-308,-254,-152,-120,73,435,269,283,585,460
2018-05-17,14:32:55.185,280,-7,-101,-256,-725,-529,-337,-60,202,343,415,482,540,617,694,626,558,485,-77,-795,-1663,859,2604,3387,3431,2901,1273,-46,-639,-610,-563,-639,-672,-639,-585,-536,-502,-495,-655,-729,-768,-706,-674,-738,-758,-684,-569,-451,-283,-171,-42,-20,-51,-25,-33,-115,-256,-345,-388,-405,-336,-150,86,232,401,561,582,545,575,530,472,160,-574,-1161,-1564,264,1499,2250,2442,2056,1028,183,-158,-178,-199,-294,-373,-513,-685,-437,-383,-761,-879,-974,-1030,-845,-892,-869,-894,-700,-465,-273,-76,-260,89,105,-151,104,147,-48,-172,-292,-353,-425,-350,-116,154,286,513,537,542,587,585,675,676,210,-606,-1340
2018-05-17,14:32:56.222,-654,1124,1772,2260,2171,1544,584,-77,-354,-438,-488,-584,-659,-750,-900,-1059,-1220,-1332,-1443,-1484,-1373,-1176,-987,-767,-610,-485,-297,-97,69,243,311,342,372,304,280,232,131,-20,-97,-89,-129,-57,65,291,554,696,767,749,737,719,719,550,-204,-1028,-1580,376,1848,2797,3047,2341,985,180,-278,-496,-564,-690,-691,-965,-1116,-760,-757,-945,-1118,-1090,-1102,-1085,-681,-650,-576,-290,-240,-209,-26,98,358,503,432,302,315,323,299,309,239,96,78,295,499,676,765,849,899,866,759,609,493,305,-366,-1037,-1584,-191,1449,2217,2458,1972,923,-58,-542,-622,-573,-603,-614,-640,-675,-715,-823,-860,-896,-814
2018-05-17,14:32:57.259,-810,-772,-684,-558,-464,-388,-270,-212,-121,37,143,228,240,284,316,159,-14,-74,-100,-36,-22,65,67,451,546,232,291,522,565,466,177,-557,-1179,-1855,-450,1488,2068,2144,1771,1013,-3,-589,-648,-719,-618,-507,-572,-716,-853,-842,-1004,-1165,-1192,-1278,-1180,-1018,-912,-639,-295,184,232,-12,89,380,661,621,546,379,191,-50,-227,-323,-289,-171,99,254,344,438,514,532,516,450,419,214,-471,-1187,-1141,1419,2368,2821,3077,2556,1015,-271,-867,-914,-832,-855,-946,-1073,-1182,-1236,-1424,-1572,-1528,-1384,-1231,-1031,-821,-599,-332,-76,68,197,490,752,767,682,499,268,230,274,285,118,-46,-171,-257,-39
2018-05-17,14:32:58.296,148,386,502,643,801,801,415,405,510,5,-804,-1787,-139,1843,2514,2890,2602,1406,179,-423,-564,-608,-594,-542,-419,-439,-504,-756,-771,-715,-702,-649,-508,-381,-347,-356,-383,-378,-398,-350,-244,-181,-170,-153,-196,-270,-331,-467,-594,-627,-530,-409,-219,-29,122,229,281,326,358,344,382,240,-481,-983,-1344,-118,1376,1857,2296,2184,1320,259,-260,-276,-205,-210,-278,-348,-398,-498,-564,-726,-697,-656,-772,-803,-844,-914,-767,-392,-316,-224,-119,-19,41,19,-175,-320,-223,-75,-40,-200,-329,-456,-378,-184,-18,237,357,393,471,529,547,548,461,-45,-830,-1980,-742,1632,2776,3117,2650,1435,252,-252,-393,-441
2018-05-17,14:32:59.333,-399,-415,-567,-614,-645,-799,-1023,-1230,-1327,-1417,-1470,-1412,-1234,-1037,-821,-542,-258,-8,193,290,398,381,322,306,250,168,16,-96,-168,-149,49,298,513,604,693,772,813,894,871,785,502,-276,-1093,-972,1128,2163,2820,2849,2009,737,12,-516,-403,-334,-487,-641,-932,-844,-722,-1055,-1301,-1113,-1110,-1047,-845,-693,-537,-435,-442,-204,102,272,204,171,304,334,296,233,126,52,-28,-80,-90,40,323,595,692,649,734,786,730,792,756,550,-151,-971,-1341,-585,919,1691,2356,2250,1358,228,-362,-556,-575,-568,-623,-656,-673,-684,-684,-746,-812,-816,-820,-788,-721,-597,-524,-415,-333,-240,-142,-33,15,43
2018-05-17,14:33:00.370,54,18,-47,-103,-89,-120,-164,-170,-85,61,233,311,352,418,519,522,427,409,71,-426,-726,-1321,-1201,762,1600,2137,1903,1267,290,-430,-583,-707,-802,-639,-664,-829,-900,-1020,-942,-998,-1326,-1255,-1288,-1263,-1077,-880,-848,-749,-497,-364,-275,-3,126,222,225,246,93,-127,-264,-325,-315,-199,-31,153,192,209,280,348,394,401,319,254,130,-489,-1206,-1914,724,2352,2956,2989,2279,801,-370,-841,-955,-926,-905,-894,-865,-1031,-1143,-1270,-1407,-1486,-1631,-1673,-1529,-1423,-1293,-1050,-729,-392,-122,179,446,571,630,634,611,490,222,205,201,341,312,165,429,684,750,717,798,825,642,631,485,538,-151,-998
2018-05-17,14:33:01.408,-1574,839,2400,2816,2592,2217,948,-50,-291,-567,-539,-441,-514,-531,-657,-774,-840,-892,-908,-963,-937,-748,-544,-379,-261,-33,121,211,372,540,543,588,503,323,207,38,-109,-204,-244,-137,-33,93,259,337,416,420,447,425,428,361,81,-718,-1087,-1163,489,1262,1532,1873,1673,856,176,-199,-247,-191,-200,-271,-375,-450,-455,-543,-656,-703,-677,-592,-490,-437,-365,-261,-98,-9,98,114,162,187,216,273,95,84,-50,-241,-384,-551,-356,-369,-131,170,225,189,236,160,326,481,601,105,-737,-1394,-1012,1254,2169,2665,2607,1747,521,-271,-576,-595,-595,-649,-712,-846,-888,-922,-967,-1086,-1155,-1085,-1005,-806
2018-05-17,14:33:02.445,-569,-360,-174,15,148,235,314,392,410,409,322,212,148,41,-102,-213,-259,-327,-321,-89,209,418,558,660,778,777,751,732,700,380,-303,-1051,-778,1933,3024,3625,3649,2698,904,-335,-838,-863,-800,-765,-742,-783,-872,-954,-1057,-1125,-1131,-1111,-1069,-1025,-785,-602,-459,-302,-192,-39,-10,233,378,363,315,254,117,-49,-84,-187,-145,-222,-203,-68,248,452,543,530,571,590,696,654,548,102,-640,-1467,-1017,1141,2147,2667,2555,1792,635,-61,-276,-281,-313,-394,-433,-391,-448,-510,-583,-626,-667,-711,-723,-724,-710,-653,-568,-527,-414,-321,-216,-143,-71,-63,-83,-132,-189,-236,-356,-452,-473,-462,-356,-165
2018-05-17,14:33:03.482,41,231,351,463,484,448,430,403,265,-347,-1105,-1973,-219,1734,2824,3129,2538,1149,32,-509,-630,-569,-539,-535,-551,-641,-729,-801,-924,-1086,-1219,-1323,-1328,-1121,-948,-924,-697,-385,-219,-77,110,252,244,296,287,188,126,-15,-139,-190,-216,-203,-2,230,401,531,632,664,644,638,591,543,361,-398,-1744,-1290,1059,2529,3340,3096,1980,551,-338,-681,-673,-685,-766,-784,-826,-975,-1086,-1230,-1420,-1537,-1524,-1394,-1202,-987,-742,-517,-285,-39,182,405,545,619,620,609,542,467,429,309,172,137,118,149,295,496,640,714,799,814,784,745,693,592,217,-586,-1169,-1098,680,1768,2487,2639,2008,747,-50,-422
2018-05-17,14:33:04.519,-482,-495,-540,-605,-664,-714,-772,-878,-964,-1034,-1070,-1064,-994,-881,-722,-577,-459,-318,-179,-63,27,89,117,102,55,-7,-32,-132,-233,-257,-237,-173,-65,98,259,354,454,497,526,520,480,402,43,-753,-1214,-1099,520,1280,1794,2071,1624,633,70,-197,-220,-240,-296,-366,-443,-511,-603,-721,-847,-935,-987,-992,-943,-852,-730,-593,-450,-311,-156,2,125,197,209,195,170,122,67,-17,-162,-220,-225,-208,-106,74,259,381,486,564,583,557,518,477,294,-467,-1187,-1668,142,1620,2594,2755,2081,823,5,-391,-450,-458,-465,-503,-547,-651,-737,-844,-969,-1092,-1182,-1221,-1191,-1118,-984,-861,-731,-569,-352,-111
2018-05-17,14:33:05.556,103,220,294,297,231,176,153,127,56,-43,-35,-16,13,137,330,484,611,675,729,707,659,626,582,379,-341,-1446,-1253,1353,2965,3824,3395,1998,432,-515,-848,-832,-839,-867,-908,-970,-1061,-1174,-1297,-1445,-1562,-1593,-1535,-1403,-1230,-1042,-827,-585,-318,-31,219,423,532,545,507,478,488,507,491,430,320,291,298,296,357,453,575,653,706,718,698,662,613,534,209,-584,-1371,-1412,721,2133,2870,2766,1804,497,-190,-434,-468,-486,-519,-546,-622,-702,-771,-863,-964,-1042,-1070,-1041,-952,-827,-670,-547,-443,-328,-194,-43,70,151,175,161,148,127,97,33,-80,-165,-166,-138,-29,138,305,403,473,525
2018-05-17,14:33:06.594,544,528,497,433,242,-554,-1155,-1309,60,935,1319,1769,1696,911,174,-190,-255,-270,-284,-332,-387,-477,-552,-628,-715,-802,-879,-883,-867,-815,-745,-675,-617,-523,-396,-250,-114,-30,4,8,10,0,-3,-30,-111,-211,-209,-197,-160,-50,156,316,401,480,552,527,490,454,408,6,-849,-1585,-1033,997,2241,2830,2408,1259,242,-293,-464,-472,-486,-544,-604,-681,-781,-907,-1058,-1211,-1323,-1395,-1365,-1274,-1123,-959,-822,-666,-430,-154,99,248,349,370,368,367,366,385,400,410,298,169,187,213,249,335,488,596,677,726,729,666,603,551,518,22,-938,-1923,-123,1832,3033,3260,2391,921,-58,-572,-620,-613
2018-05-17,14:33:07.631,-635,-665,-730,-833,-964,-1085,-1212,-1331,-1416,-1395,-1291,-1150,-978,-809,-642,-435,-169,76,283,413,455,457,441,442,454,493,507,432,302,253,223,193,270,438,575,657,703,708,695,655,601,540,222,-616,-1329,-1454,391,1556,2239,2490,1880,626,-68,-349,-373,-370,-420,-473,-526,-590,-667,-754,-868,-952,-989,-977,-907,-803,-706,-600,-514,-414,-281,-141,-70,-19,40,59,65,78,62,42,-17,-128,-151,-140,-109,12,197,315,388,449,501,497,471,442,383,59,-769,-1334,-1327,528,1359,1785,1971,1536,548,-33,-259,-289,-303,-343,-398,-462,-526,-612,-716,-830,-942,-997,-994,-931,-834,-740,-648,-534,-400,-252
2018-05-17,14:33:08.668,-89,17,104,141,143,144,144,162,174,109,16,-34,-14,-18,28,158,320,438,491,528,547,519,497,447,294,-434,-1266,-1830,184,1736,2623,2580,1669,520,-114,-404,-445,-449,-481,-525,-608,-700,-817,-958,-1102,-1233,-1309,-1303,-1249,-1136,-1003,-888,-748,-574,-301,-62,143,280,345,349,333,363,375,387,420,354,221,181,195,147,207,394,553,651,718,773,731,697,642,598,527,-186,-1536,-1824,904,2801,3809,3364,1968,450,-425,-755,-765,-770,-803,-827,-890,-967,-1080,-1215,-1371,-1493,-1564,-1516,-1395,-1212,-1025,-845,-662,-417,-132,120,331,456,493,483,484,484,494,524,542,454,328,300,276,245,270,468
2018-05-17,14:33:09.705,591,658,693,718,694,622,571,529,261,-546,-1434,-1515,551,1930,2550,2610,1822,542,-116,-377,-437,-490,-484,-432,-606,-723,-761,-841,-1025,-1100,-1128,-1076,-1001,-810,-726,-681,-498,-296,-181,-185,20,93,38,186,263,83,2,241,226,138,31,-89,16,107,223,481,569,527,554,624,559,483,487,283,-378,-1183,-1326,126,1170,1510,1850,1770,834,261,-74,-133,-275,-186,-62,-261,-368,-440,-454,-518,-619,-799,-753,-713,-651,-466,-407,-313,-214,-74,-2,184,240,299,237,288,255,263,287,181,147,22,-42,10,152,131,323,445,540,527,582,537,485,453,348,-222,-994,-1531,-417,1398,2127,2324,1733,706
2018-05-17,14:33:10.742,88,-358,-490,-462,-542,-572,-627,-723,-824,-970,-1099,-1174,-1326,-1384,-1362,-1261,-1167,-1013,-898,-749,-485,-203,8,156,230,260,203,196,239,232,242,243,-4,18,69,24,6,145,301,401,513,526,514,487,429,396,273,-292,-1223,-2049,135,1994,2978,2852,1781,400,-410,-829,-882,-860,-875,-924,-977,-1055,-1170,-1298,-1440,-1576,-1674,-1698,-1632,-1494,-1353,-1212,-1057,-842,-583,-333,-98,46,92,67,47,56,52,80,98,11,-125,-165,-177,-213,-133,24,166,242,288,345,322,275,228,184,-29,-872,-1710,-1798,312,1473,2059,2133,1447,338,-302,-537,-560,-577,-597,-628,-697,-770,-874,-959,-1061,-1161,-1211,-1178,-1087,-959
2018-05-17,14:33:11.780,-806,-698,-610,-468,-272,-111,-26,38,90,89,75,56,48,67,25,-48,-68,-54,-25,88,260,461,554,604,664,678,666,650,587,390,-412,-1061,-1237,253,1138,1450,1746,1646,979,367,66,-4,-16,-33,-92,-157,-235,-322,-422,-535,-612,-684,-707,-661,-564,-478,-382,-268,-135,14,141,243,290,296,296,277,264,271,262,241,147,49,63,114,179,288,502,633,706,749,777,773,713,670,560,-66,-867,-1196,-172,1217,1555,1693,1517,1029,464,106,0,-18,-47,-95,-150,-219,-331,-445,-557,-680,-785,-829,-814,-743,-636,-539,-440,-332,-182,-7,125,230,282,293,293,265,234,262,268,204,69,-6
2018-05-17,14:33:12.817,17,26,93,247,445,560,622,660,658,640,588,525,238,-613,-1168,-1015,742,1627,1740,1430,1018,469,91,-112,-152,-186,-237,-294,-354,-430,-529,-672,-830,-949,-1027,-1053,-1013,-943,-868,-789,-658,-478,-258,-40,96,158,206,219,226,261,309,351,318,178,65,98,99,132,241,437,572,641,703,728,698,652,602,525,-14,-836,-1349,-79,1661,2289,2239,1604,638,98,-217,-294,-298,-337,-397,-466,-545,-646,-773,-915,-1056,-1167,-1215,-1181,-1110,-1045,-977,-858,-663,-389,-134,73,187,237,281,333,364,388,433,461,323,172,167,175,146,240,432,589,687,731,750,731,680,652,656,433,-394,-1487,-1116,1274
2018-05-17,14:33:13.854,2461,3008,2384,1034,101,-387,-513,-544,-574,-592,-641,-706,-815,-948,-1114,-1265,-1389,-1448,-1428,-1344,-1256,-1156,-1051,-839,-557,-267,-21,149,253,331,355,376,413,471,495,405,257,228,209,156,230,403,586,694,753,786,766,714,680,667,631,-123,-1275,-1675,738,2110,2892,2731,1641,449,-199,-427,-448,-466,-488,-526,-588,-693,-824,-943,-1068,-1196,-1250,-1224,-1134,-1021,-903,-797,-660,-467,-245,-51,84,174,250,293,302,312,340,331,256,132,109,93,54,145,321,469,549,589,607,602,560,523,477,281,-493,-1216,-1385,329,1180,1697,1924,1490,596,27,-213,-247,-271,-311,-377,-424,-496,-568,-681,-790,-894,-950
2018-05-17,14:33:22.420,91,42,-107,-152,-157,-216,-176,36,194,314,396,488,487,422,421,445,223,-489,-1023,-877,206,1119,997,1156,1298,933,268,-89,-182,-188,-183,-182,-185,-202,-219,-368,-545,-253,-60,-163,-30,-97,-144,-39,32,107,159,-256,-127,415,186,-85,-58,-103,-354,-360,-267,-290,-397,-522,-528,-533,-512,-533,-474,-336,-213,-119,-98,30,82,59,18,4,-117,-690,-1346,-1959,-886,738,1504,2078,2031,1084,-5,-478,-650,-600,-559,-523,-556,-561,-569,-660,-742,-791,-874,-870,-872,-803,-632,-479,-299,-72,51,164,222,271,331,297,316,303,379,319,230,214,-19,167,559,335,522,637,114,389,1068,515,1072,1016
2018-05-17,14:33:23.470,814,524,-122,-129,-195,-664,-1164,-1980,-801,929,2438,2688,1929,629,-473,-1027,-1162,-1105,-1078,-1074,-1128,-1172,-1280,-1393,-1532,-1720,-1824,-1811,-1746,-1571,-1386,-1066,-769,-456,-103,199,459,649,764,834,816,762,697,639,600,613,622,598,566,487,351,327,415,471,487,628,656,701,687,668,600,550,500,399,-245,-1100,-1151,156,1766,2038,2365,2225,1504,579,28,-293,-102,-145,-94,-107,-122,-468,-566,-811,-1229,-1310,-1370,-1398,-1472,-1358,-1319,-1095,-831,-748,-268,-53,58,163,101,168,163,-7,-67,-50,-32,-27,-20,-24,-87,-160,-165,-160,-99,46,180,311,380,430,420,437,364,363,293,-87,-863,-1014,-690,975
2018-05-17,14:33:24.507,1017,1021,1385,1326,688,160,-55,-99,-111,-145,-186,-237,-323,-394,-477,-572,-671,-694,-684,-647,-570,-474,-357,-241,-57,91,196,317,400,337,333,651,707,316,122,304,173,96,-20,-177,-190,-298,-345,-363,-222,-140,-172,-137,-55,33,4,-15,-38,49,-260,-1087,-1541,-1417,452,1524,2159,2335,1634,373,-372,-692,-733,-727,-725,-748,-855,-895,-948,-1133,-1266,-1423,-1544,-1559,-1496,-1321,-1110,-790,-419,-107,147,404,564,670,738,696,617,558,486,458,428,374,358,273,141,87,68,125,182,278,474,573,716,802,879,846,607,595,466,-248,-725,-1111,401,2446,2891,2834,2400,1370,302,-585,-1091,-1157,-1062,-1181
2018-05-17,14:33:25.544,-1228,-1302,-1364,-1453,-1590,-1769,-1877,-1943,-1851,-1701,-1417,-1146,-902,-490,-133,116,339,568,625,667,689,601,522,477,443,405,398,394,334,268,185,108,82,160,286,480,571,680,756,774,740,700,675,591,179,-771,-1093,-687,753,1122,928,1163,1215,738,182,-46,-91,-148,-188,-181,-177,-212,-323,-418,-341,-320,-410,-490,-581,-281,-164,-264,-94,160,108,182,329,140,98,98,40,-26,-221,-392,-332,-354,-401,-378,-491,-571,-566,-506,-365,-294,-186,-59,-51,-27,1,23,7,-21,-96,-274,-1041,-1525,-1885,-606,645,1362,1826,1643,579,-328,-801,-957,-933,-940,-963,-1022,-1041,-1047,-1116,-1230,-1320,-1398,-1493,-1476
2018-05-17,14:33:26.581,-1377,-1255,-1106,-922,-734,-549,-409,-268,-175,-145,-118,-131,-210,-230,-259,-255,-201,-182,-160,-473,-541,325,432,273,335,546,514,507,534,411,331,395,588,211,-115,-632,-1364,-2249,-532,1319,2782,2846,1676,84,-717,-1210,-1320,-1232,-1185,-1200,-1133,-1149,-1261,-1484,-1641,-1829,-1999,-2076,-1964,-1808,-1556,-1126,-842,-552,-174,153,440,610,695,734,713,664,620,613,618,660,719,803,800,756,624,569,545,584,663,812,936,1043,1082,1099,1079,1029,1018,955,587,-373,-809,-420,924,1651,1396,1511,1637,1267,626,357,340,364,375,252,115,96,154,230,-112,-285,-205,-347,-402,-459,-576,-544,-599,256,945,-838,-985,-178
2018-05-17,14:33:27.618,566,573,188,132,225,101,-23,5,45,32,-17,-86,-142,-122,-105,-84,0,190,294,348,389,445,432,439,380,331,84,-761,-1154,-1245,220,1066,1632,2157,2028,1064,330,36,-16,0,15,-32,-85,-147,-237,-358,-515,-621,-722,-769,-784,-725,-650,-498,-295,-83,88,291,501,642,761,854,828,812,900,839,722,644,542,746,855,416,296,379,255,224,328,342,463,531,342,126,-67,-121,-42,-6,-333,-1109,-1935,-1361,848,2238,2725,2283,1102,-87,-747,-956,-918,-888,-904,-939,-992,-1086,-1214,-1348,-1569,-1735,-1785,-1781,-1627,-1438,-1187,-896,-596,-228,101,400,629,782,917,917,854,770,736,720,729,753
2018-05-17,14:33:28.656,765,789,763,647,529,437,451,465,517,607,709,765,870,939,906,864,825,787,629,-41,-669,-726,142,1690,2109,2286,1878,1235,595,554,263,-49,-281,-374,-500,-843,-818,-1018,-1668,-1964,-1386,-1614,-1405,-1273,-1203,-1272,-1105,-898,-714,-476,-268,-36,23,96,101,93,96,98,75,32,51,97,10,-36,-62,-83,-121,-123,19,229,297,305,399,448,417,408,379,364,137,-610,-1026,-1037,191,1045,1180,1632,1710,1059,310,-73,-154,-189,-176,-170,-177,-272,-333,-398,-556,-698,-798,-832,-777,-673,-506,-291,-63,120,298,457,613,787,760,512,543,486,277,275,326,336,199,-172,-321,-253,-312,-359,-451,-444
2018-05-17,14:33:29.693,-256,-393,-500,-158,-44,20,-15,2,54,0,-462,-1119,-1633,-1239,841,2142,2702,2416,1347,54,-606,-850,-869,-869,-889,-881,-927,-1023,-1089,-1223,-1398,-1543,-1636,-1620,-1546,-1339,-1087,-824,-515,-171,155,409,634,766,811,765,705,625,538,473,486,479,440,448,379,245,182,240,285,331,477,606,650,732,826,838,811,780,773,717,181,-730,-1354,327,2031,2862,3373,2785,1455,60,-825,-900,-651,-779,-920,-948,-1223,-1327,-1439,-1830,-1995,-2078,-2025,-2037,-1920,-1700,-1467,-1148,-838,-435,-118,131,322,494,564,528,496,433,385,389,315,330,373,316,249,185,117,95,76,39,160,398,518,548,634,715,695,687
2018-05-17,14:33:30.730,637,553,78,-766,-915,-542,839,1020,1025,1361,1295,652,166,-29,-90,-125,-187,-232,-244,-331,-401,-456,-506,-562,-609,-594,-475,-482,-522,-184,13,95,194,256,109,222,423,252,290,303,95,-48,-145,-300,-305,-422,-414,-410,-444,-364,-386,-386,-250,-136,-49,78,189,123,150,146,117,10,-533,-1210,-1625,-1137,723,1818,2368,2318,1335,132,-423,-669,-671,-678,-691,-679,-816,-823,-879,-965,-1073,-1097,-1152,-1129,-1028,-873,-700,-500,-267,-98,74,228,378,453,521,440,373,363,292,187,124,59,187,348,220,361,715,-269,-1356,683,1205,752,942,1559,895,903,1167,-165,-312,439,305,-1128,-1902,511,2089,3256
2018-05-17,14:33:31.767,3454,2016,-846,-1339,-667,-763,-979,-1067,-1097,-1029,-1082,-1192,-1361,-1602,-1748,-1867,-1866,-1702,-1477,-1173,-946,-663,-330,-31,135,347,527,595,651,582,480,425,428,412,393,458,489,421,335,290,321,335,408,647,694,651,705,738,719,696,633,545,311,-603,-1058,-740,438,1214,1112,1311,1489,1065,410,56,-29,13,109,167,71,-128,-134,-92,-36,-93,-604,-693,-488,-815,-1003,-684,-486,-288,-438,-301,-43,-281,-344,13,131,33,-229,-212,-116,-213,-242,-257,-345,-431,-410,-368,-290,-209,-31,63,139,215,236,242,253,244,180,-42,-717,-1331,-1699,-419,1088,1845,2337,2097,974,23,-371,-408,-357,-352,-373,-375
2018-05-17,14:33:32.804,-461,-550,-636,-752,-893,-998,-1046,-1063,-1022,-906,-747,-586,-403,-193,17,87,218,353,352,352,361,257,166,431,474,330,343,393,175,370,432,285,336,643,456,-16,149,714,561,22,-168,-164,-542,-1260,-2040,-985,1160,2439,2795,1872,363,-706,-1238,-1347,-1227,-1240,-1270,-1284,-1352,-1429,-1554,-1713,-1857,-2003,-2045,-1991,-1854,-1643,-1413,-1195,-885,-634,-373,-94,71,172,227,239,195,133,121,112,131,185,226,181,117,70,38,56,88,205,363,395,459,544,585,558,521,483,397,-156,-1015,-1065,-618,874,1093,1134,1461,1401,690,122,97,104,140,285,80,40,19,-29,-104,-270,-548,-714,-750,-727,-954,-959
2018-05-17,14:33:33.842,-801,-756,-556,-359,-290,-259,-175,-134,-122,-146,-232,-204,-196,-280,-207,-251,-344,-415,-399,-336,-313,-208,-31,184,264,329,382,393,425,391,399,286,-444,-1104,-1332,-336,1073,1598,2079,2239,1554,693,296,183,171,186,173,142,101,30,-57,-210,-364,-491,-556,-570,-588,-555,-427,-248,-81,136,325,471,612,729,773,800,761,759,762,728,802,843,629,240,228,488,711,622,505,826,526,508,783,472,495,347,160,104,-531,-1217,-1718,-653,1217,2381,2900,2344,1025,-72,-678,-822,-842,-832,-785,-841,-890,-974,-1088,-1240,-1396,-1539,-1618,-1535,-1362,-1179,-943,-670,-403,-96,172,432,688,778,892,910,881,854
2018-05-17,14:33:34.879,796,748,717,716,625,470,390,346,318,337,378,477,572,630,647,671,624,524,441,367,137,-679,-1183,-1059,103,1136,1007,1191,1564,1129,271,73,24,-147,-83,-101,-226,-237,24,-302,-577,-753,-1220,-1327,-1369,-1357,-1326,-1587,-1045,-693,-932,-906,-500,-195,-229,-273,-284,-307,-432,-479,-503,-548,-577,-657,-774,-766,-702,-661,-537,-310,-191,-89,-34,54,90,66,70,70,-52,-726,-1380,-1473,-658,580,873,1373,1626,1248,512,127,-1,9,-2,1,-30,-96,-147,-212,-301,-426,-525,-619,-644,-659,-640,-497,-339,-175,-11,144,329,491,567,612,550,545,577,600,496,440,584,522,321,247,218,386,388,679
2018-05-17,14:33:35.916,949,706,777,828,698,586,457,524,415,-294,-976,-2065,-897,1368,2775,2894,1924,760,-75,-602,-699,-680,-718,-770,-754,-820,-936,-1065,-1194,-1383,-1536,-1657,-1653,-1529,-1373,-1128,-814,-443,-136,178,476,715,856,875,870,899,880,829,773,732,719,733,649,562,479,436,448,479,562,674,733,763,753,738,689,621,508,364,-333,-1118,-1093,-169,1432,1683,1879,1867,1450,519,106,296,351,208,154,-5,-126,-258,-658,-753,-704,-1072,-1274,-1411,-1606,-1491,-1228,-1008,-720,-553,-383,-191,-55,-43,-1,48,98,11,-90,-144,-240,-205,-228,-309,-399,-368,-314,-319,-257,-39,147,219,214,290,331,302,275,236,125,-464
2018-05-17,14:33:36.953,-1134,-1152,-301,949,993,1275,1467,1183,513,137,15,-10,-40,-47,-44,-88,-162,-263,-329,-427,-581,-641,-656,-715,-681,-565,-368,-164,-25,114,275,399,461,517,469,412,558,520,73,251,604,655,193,-52,58,75,-56,-106,145,240,193,190,-125,-462,-57,-37,-153,-385,-1206,-1717,-1954,-546,849,1728,2042,1562,413,-428,-813,-910,-909,-902,-919,-982,-1015,-1094,-1194,-1313,-1442,-1569,-1651,-1651,-1601,-1431,-1204,-949,-641,-327,-58,167,363,494,560,601,570,528,467,403,394,382,357,256,159,87,145,223,276,400,546,598,626,682,677,659,605,551,372,-334,-1101,-1121,277,2044,2575,2821,2244,1040,272,-80
2018-05-17,14:33:37.990,-134,-137,-535,-286,31,-584,-623,-687,-1794,-2732,-936,-1008,-2291,-1964,-1575,-1577,-1360,-876,-481,-216,-107,115,290,385,389,310,270,266,277,231,217,189,126,59,60,61,34,122,302,427,508,560,626,598,562,570,504,440,-19,-802,-1166,-936,925,1524,1990,2264,1762,720,190,46,72,68,70,65,-11,-74,-140,-208,-347,-460,-497,-511,-462,-368,-231,-88,64,195,287,388,510,637,690,726,487,358,401,445,414,411,244,189,93,73,107,122,141,20,-190,28,105,113,108,111,89,20,-172,-828,-1432,-1920,-1053,665,1563,2035,1844,859,-76,-512,-671,-685,-669,-665,-696,-760,-816,-919,-1024,-1156
2018-05-17,14:33:39.028,-1316,-1390,-1433,-1354,-1256,-1119,-937,-696,-475,-262,-28,137,247,341,362,385,354,338,331,297,272,171,77,15,66,114,177,257,387,454,495,524,527,481,397,366,337,-207,-1123,-1363,-666,1285,2042,2556,2385,1562,378,-410,-577,-523,-294,-645,-948,-892,-983,-1308,-1587,-1595,-1827,-2264,-2519,-2518,-2348,-2120,-1892,-1597,-1233,-926,-612,-282,-33,10,98,122,23,-38,-48,-48,-71,-38,-23,-62,-141,-121,-106,-117,3,205,384,457,553,644,680,645,639,630,496,-192,-717,-928,510,1836,2108,2443,2370,1584,764,393,240,246,266,213,203,197,122,28,-63,-194,-342,-393,-390,-337,-245,-82,68,189,356,514
2018-05-17,14:33:40.065,606,482,502,859,858,718,739,618,419,306,222,102,4,-127,-212,-215,-142,-121,42,171,257,275,255,186,81,2,-56,-346,-1073,-1341,-1529,106,1324,2110,2384,1829,627,-175,-518,-557,-504,-541,-558,-566,-660,-693,-782,-912,-1023,-1152,-1158,-1154,-1079,-928,-680,-453,-202,23,230,406,542,647,677,637,601,558,529,460,434,414,335,241,184,205,293,382,502,635,699,726,779,832,863,850,756,509,-341,-974,-933,709,2146,2483,2400,1961,960,185,-83,-29,-262,-623,-563,-729,-738,-1071,-1724,-1614,-1615,-1948,-2141,-2200,-2029,-1893,-1714,-1438,-1104,-745,-374,-25,247,414,485,501,423,388,358,305,288,307
2018-05-17,14:33:41.102,335,305,269,121,64,130,107,230,435,549,639,699,756,801,822,835,746,309,-610,-854,-569,1193,1671,1885,2145,1825,923,350,67,26,12,-7,-57,-91,-141,-192,-266,-389,-486,-535,-565,-538,-628,-689,-201,202,208,185,223,275,94,-48,9,593,159,647,913,-286,-458,-231,-107,-59,-160,-524,-559,-222,-94,-101,-18,77,69,61,6,-84,-122,-175,-738,-1384,-1590,-1050,504,1105,1560,1706,1114,231,-255,-453,-454,-455,-495,-526,-573,-619,-743,-834,-853,-930,-1010,-998,-923,-763,-608,-438,-309,-163,-29,88,196,272,320,288,279,239,178,166,165,177,125,58,15,34,109,217,268,478,713,539
2018-05-17,14:33:42.139,620,1109,902,382,964,708,598,-246,-1293,-420,1368,1103,1795,2959,1968,712,-262,-1190,-1018,-896,-859,-966,-1638,-996,-1001,-1706,-1681,-1759,-1836,-1847,-1852,-1668,-1471,-1287,-1076,-761,-432,-109,166,402,591,646,637,591,508,485,452,435,413,408,361,273,189,184,170,250,420,555,643,717,784,827,813,772,722,649,88,-779,-940,-548,1120,1602,1941,2201,1779,718,72,-155,-180,-157,-206,-225,-227,-276,-346,-429,-523,-649,-751,-906,-855,-612,-496,-388,-400,-229,-170,-282,-99,-634,-241,1152,1157,-228,302,779,962,-568,-883,-250,-273,-475,-347,-435,-534,-418,-202,-145,-78,52,85,99,103,94,40,-256,-1019,-1358
2018-05-17,14:33:43.176,-1687,-36,1050,1739,2075,1687,633,-68,-430,-515,-463,-480,-517,-556,-566,-617,-663,-750,-873,-888,-923,-901,-762,-641,-485,-307,-189,-79,51,222,320,344,406,371,319,274,248,241,241,245,183,82,84,163,237,333,403,573,688,793,876,909,1028,956,913,717,-104,-892,-1290,-405,1314,2045,2557,2265,1207,96,-602,-881,-895,-908,-943,-951,-958,-1210,-1441,-1491,-1620,-1788,-1902,-1943,-1898,-1736,-1544,-1246,-936,-622,-252,-8,221,462,586,610,551,474,380,347,344,343,318,307,238,82,99,139,108,238,475,640,775,857,922,897,817,782,747,385,-506,-926,-815,659,1554,1731,2012,1896,1159,427,128,79
2018-05-17,14:33:44.213,24,-25,-40,-42,-80,-147,-193,-272,-368,-469,-536,-587,-549,-458,-338,-249,-269,-434,-242,272,258,157,55,-128,-137,-33,-37,-271,-306,-369,-432,-360,-453,-419,-496,-544,-468,-272,-118,-105,-4,85,88,84,114,61,-87,-755,-1342,-1757,-802,897,1717,2289,2064,1028,22,-462,-599,-614,-635,-644,-636,-675,-688,-724,-743,-782,-774,-748,-730,-684,-590,-461,-323,-204,-52,81,252,343,429,489,471,430,404,358,307,232,180,162,71,6,42,81,193,299,483,646,720,831,900,892,693,698,748,315,-725,-1088,-1095,591,1607,2139,2363,1724,591,-238,-911,-1053,-1020,-1046,-1100,-1205,-1200,-1323,-1448,-1552,-1684,-1838
2018-05-17,14:33:45.251,-1916,-1871,-1718,-1531,-1269,-979,-691,-409,-142,116,348,497,566,582,540,450,339,321,277,287,269,216,178,83,102,138,156,295,500,675,792,850,871,832,802,764,686,183,-710,-953,-556,1175,1680,1873,2155,1865,903,235,-4,5,4,10,-20,-59,-23,-109,-320,-351,-369,-537,-759,-561,-393,-567,-303,-220,-154,56,79,304,143,-24,133,21,-196,-165,-296,-496,-491,-448,-524,-565,-620,-581,-500,-469,-371,-173,-71,-4,112,186,226,205,175,182,59,-673,-1227,-1497,-500,931,1306,1757,1872,1165,255,-151,-299,-323,-351,-380,-393,-424,-462,-500,-574,-680,-731,-754,-762,-758,-718,-652,-543,-409,-316,-170
2018-05-17,14:33:46.288,-19,104,208,223,278,277,232,229,210,231,221,129,61,17,4,102,368,269,-38,274,628,889,914,689,544,715,532,487,-465,-1533,-1256,102,1854,1766,1785,2991,858,-719,-751,-1514,-905,-1377,-668,-607,-1155,-1146,-846,-1234,-1345,-1562,-1713,-1736,-1660,-1490,-1324,-1036,-745,-468,-187,57,311,497,557,551,512,432,360,295,296,276,273,237,117,43,112,119,175,403,642,716,753,805,831,788,747,701,637,277,-629,-1054,-918,978,1791,2047,2218,1915,1096,425,97,101,120,63,73,86,3,-59,-275,-361,-409,-372,-575,-820,-976,-898,-864,-452,-195,-316,-429,-496,-294,-34,47,90,82,-6,-94,-105
2018-05-17,14:33:47.325,-138,-299,-407,-434,-400,-345,-362,-348,-212,-5,83,159,243,286,330,324,264,215,-73,-919,-1323,-1423,239,1140,1626,1974,1710,743,58,-248,-244,-216,-218,-189,-192,-219,-307,-362,-415,-532,-622,-652,-647,-587,-508,-409,-306,-186,-55,52,207,317,404,415,418,353,323,250,72,26,8,58,126,11,-54,-70,-156,18,117,74,61,125,89,28,10,-13,-229,-1061,-1659,-2071,-861,553,1220,1679,1471,426,-545,-1013,-1174,-1192,-1206,-1184,-1200,-1228,-1258,-1377,-1504,-1623,-1744,-1831,-1872,-1795,-1688,-1525,-1365,-1146,-949,-762,-543,-369,-184,-141,-147,-190,-212,-240,-270,-307,-266,-283,-384,-472,-404,-287,-196,-72,86,221
2018-05-17,14:33:48.362,336,467,535,552,530,548,509,178,-770,-1188,-994,1042,2123,2495,2460,1794,795,162,-237,-178,81,-7,-145,-169,-354,-406,-594,-832,-1303,-1501,-1297,-1197,-881,-944,-991,-851,-678,-383,-122,134,435,517,459,546,471,433,360,317,362,476,413,334,232,241,263,331,389,597,743,795,849,954,928,904,844,804,690,19,-620,-1123,5,1724,2440,2902,2619,1510,558,213,135,151,232,211,185,118,64,-3,-120,-230,-312,-357,-381,-300,-200,-131,-9,137,205,321,441,520,635,644,669,663,627,548,443,475,456,259,268,233,197,444,427,441,555,523,489,548,464,354,263,234,146,-222,-1035,-1446
2018-05-17,14:33:49.400,-1833,-245,700,1190,1627,1404,562,-169,-502,-557,-570,-592,-537,-527,-617,-673,-705,-766,-879,-983,-1032,-1011,-974,-919,-793,-668,-539,-337,-177,-42,77,217,273,314,298,307,324,322,354,299,213,101,133,144,210,338,472,663,717,802,852,826,762,671,625,436,-427,-1188,-1123,383,1868,2107,2098,1797,1291,707,452,339,265,353,336,-32,-101,174,-127,-754,-1071,-984,-1613,-1656,-1272,-1521,-1644,-1412,-979,-830,-827,-271,86,118,119,167,158,75,-22,-65,-60,-44,-69,-145,-177,-179,-139,-141,-139,12,231,363,438,488,537,518,487,501,459,166,-599,-1150,-1218,826,1833,2265,2484,2034,941,267,-8,-54
2018-05-17,14:33:50.437,-79,-90,-109,-180,-214,-254,-391,-582,-710,-808,-838,-772,-676,-542,-427,-279,-135,-20,163,344,424,487,525,534,539,525,454,426,513,438,128,22,-28,-157,-210,-59,221,173,-14,0,122,252,266,106,22,-34,-518,-1274,-1642,-1334,327,835,1325,1553,1084,168,-374,-567,-553,-564,-601,-597,-604,-669,-746,-797,-847,-933,-971,-999,-961,-866,-853,-693,-590,-490,-377,-215,-95,-2,122,139,170,177,148,141,88,12,-78,-148,-175,-137,-79,14,131,306,404,443,435,505,491,475,498,447,-223,-1130,-1124,-217,1479,1852,2036,2033,1656,921,249,-44,23,44,21,1,-8,-343,-630,-1064,-1293,-1273,-1267,-1381
2018-05-17,14:33:51.474,-1671,-1657,-1347,-1487,-1201,-779,-398,-442,-311,11,176,161,136,108,59,-26,-40,-16,-95,-164,-181,-173,-163,-97,23,205,363,454,554,594,628,594,549,497,354,-316,-977,-1439,481,1996,2595,2803,2322,1173,339,-66,-128,-111,-132,-134,-200,-224,-317,-405,-516,-637,-783,-887,-877,-806,-724,-593,-420,-257,-102,43,197,389,498,526,537,478,269,478,722,336,277,356,208,-192,60,572,-95,-440,92,399,365,243,265,367,163,-22,-20,-597,-1359,-1891,-1064,569,1302,1823,1899,1027,21,-444,-596,-585,-572,-585,-572,-556,-637,-698,-764,-833,-876,-917,-921,-871,-781,-692,-578,-476,-333,-220,-122,-12,63,115
2018-05-17,14:33:52.511,130,124,110,100,80,40,-54,-141,-162,-132,-83,-30,116,250,386,502,554,525,510,501,490,441,-66,-953,-1046,-592,1150,1645,2046,2237,1804,897,269,-55,-215,-229,23,41,-233,-486,-516,-653,-712,-907,-1203,-1442,-1883,-1145,-713,-1200,-1225,-706,-342,-184,-87,20,138,144,142,148,126,44,7,-62,-170,-312,-336,-297,-252,-151,57,232,329,449,524,505,532,469,416,350,-161,-921,-1867,-107,1931,3016,3297,2482,1050,38,-527,-622,-577,-535,-534,-529,-554,-586,-683,-774,-902,-1050,-1093,-1109,-1042,-949,-772,-600,-470,-283,-55,156,355,498,614,566,357,318,465,635,737,484,192,476,679,469,39,-6
2018-05-17,14:33:53.548,467,21,435,586,512,466,479,536,445,228,-241,-972,-1376,-1496,250,1342,1874,2054,1522,406,-283,-595,-659,-669,-668,-674,-730,-788,-847,-905,-971,-1069,-1149,-1182,-1157,-1101,-987,-871,-756,-657,-506,-386,-291,-172,-103,-81,-83,-118,-116,-168,-233,-258,-353,-442,-525,-499,-446,-384,-258,-69,53,119,159,200,199,186,174,66,-518,-1342,-1394,-825,733,875,1209,1454,1109,319,-129,-331,-353,-358,-379,-442,-494,-548,-613,-729,-866,-993,-1102,-1184,-1204,-1143,-1049,-925,-785,-602,-392,-218,-66,85,205,260,255,215,163,120,100,88,43,-53,-151,-153,-100,-38,53,276,464,561,673,751,743,741,739,702,435,-430
2018-05-17,14:33:54.585,-976,-1270,1028,2752,3504,3055,1831,582,-31,-268,-307,-343,-372,-412,-489,-560,-670,-829,-994,-1186,-1399,-1523,-1523,-1456,-1334,-1155,-907,-692,-360,5,298,549,694,744,746,715,671,635,596,611,604,604,622,609,524,410,334,378,370,385,481,582,654,758,795,785,754,710,671,606,137,-576,-1446,-177,1883,2891,3247,2626,1301,249,-309,-451,-429,-436,-440,-469,-507,-576,-680,-801,-946,-1094,-1199,-1219,-1168,-1064,-903,-727,-579,-403,-190,20,224,384,485,497,472,411,382,372,347,366,380,393,373,282,193,250,263,234,289,460,501,551,645,661,642,606,553,495,193,-583,-1045,-1311,358,1307,1772,2178
2018-05-17,14:33:55.623,1934,886,152,-176,-238,-244,-275,-298,-340,-385,-440,-522,-630,-733,-817,-857,-855,-819,-740,-614,-511,-418,-329,-229,-139,-67,4,32,42,17,-6,-36,-52,-41,-39,-40,-74,-143,-217,-196,-160,-142,-85,72,122,197,277,308,289,265,230,171,-178,-1062,-1452,-1557,232,1102,1492,1620,1209,309,-272,-571,-642,-662,-703,-753,-807,-871,-947,-1067,-1211,-1375,-1534,-1648,-1687,-1633,-1525,-1378,-1222,-1056,-860,-677,-490,-324,-218,-180,-171,-184,-235,-275,-283,-281,-280,-256,-231,-289,-387,-436,-373,-387,-394,-259,-82,0,108,184,195,180,180,148,98,-366,-1132,-1655,-1078,1144,2300,2821,2408,1224,135,-404,-591,-567,-554,-546
2018-05-17,14:33:56.660,-552,-548,-631,-709,-800,-909,-1062,-1198,-1252,-1212,-1096,-891,-696,-493,-262,-1,274,566,806,954,1027,1021,995,970,974,985,1035,1080,1125,1170,1210,1150,1031,932,953,935,888,980,1145,1224,1294,1355,1335,1281,1226,1167,1074,765,18,-743,-882,1590,2849,3609,3422,2311,986,255,-59,-85,-94,-128,-169,-208,-277,-361,-478,-630,-775,-902,-990,-1000,-916,-793,-638,-471,-337,-168,23,225,383,477,499,480,428,373,330,279,255,248,262,274,290,237,143,71,94,84,42,52,213,236,298,368,368,341,302,255,179,-144,-923,-1311,-1373,294,1098,1463,1756,1502,627,-33,-357,-403,-416,-445,-483,-497,-528,-580
2018-05-17,14:33:57.697,-657,-768,-866,-956,-1006,-995,-967,-893,-799,-697,-599,-507,-416,-324,-245,-198,-169,-161,-180,-213,-230,-254,-272,-274,-242,-245,-300,-357,-396,-303,-278,-280,-143,8,76,159,232,266,266,243,213,116,-461,-1239,-1530,-958,840,1397,1772,1721,1022,128,-325,-477,-488,-516,-549,-571,-604,-654,-732,-847,-977,-1124,-1273,-1348,-1324,-1238,-1115,-976,-812,-656,-462,-261,-59,114,248,277,265,251,224,214,213,221,240,280,296,215,100,21,56,87,105,262,443,527,620,683,698,674,634,584,496,-27,-809,-1479,-612,1633,2741,3136,2482,1154,173,-311,-440,-452,-496,-524,-576,-634,-719,-825,-974,-1129,-1318,-1470,-1557,-1575
2018-05-17,14:33:58.734,-1475,-1296,-1147,-970,-730,-461,-178,94,318,452,485,467,431,397,373,364,377,403,436,467,474,380,239,131,181,188,165,251,424,488,597,682,678,655,628,588,532,163,-600,-1324,-990,1297,2465,3040,2697,1504,316,-294,-531,-537,-525,-526,-563,-592,-656,-735,-827,-964,-1126,-1254,-1316,-1319,-1233,-1083,-935,-765,-595,-418,-218,-6,173,281,316,321,318,312,284,276,296,307,337,373,397,354,258,166,179,202,142,119,292,372,416,506,540,517,484,443,397,201,-560,-1101,-1452,-171,1090,1453,1897,1845,1036,206,-200,-330,-330,-353,-389,-407,-424,-476,-562,-656,-745,-852,-930,-981,-976,-898,-782,-663
2018-05-17,14:33:59.771,-549,-448,-306,-161,-28,54,107,136,144,131,108,92,94,86,109,135,163,133,41,-61,-68,-11,6,9,165,236,309,402,435,415,381,333,266,-9,-818,-1269,-1355,364,1473,1824,1749,1181,282,-230,-506,-570,-594,-653,-706,-749,-813,-897,-994,-1119,-1276,-1428,-1537,-1584,-1538,-1436,-1322,-1197,-1063,-903,-713,-514,-332,-194,-133,-141,-179,-201,-228,-255,-271,-265,-233,-201,-177,-239,-339,-434,-391,-339,-341,-271,-80,-31,72,179,215,193,174,151,67,-419,-1235,-1455,-939,1208,1820,1902,1519,827,74,-301,-461,-473,-474,-487,-512,-549,-605,-684,-783,-907,-1061,-1194,-1269,-1281,-1206,-1094,-963,-826,-672,-455,-222,-4
2018-05-17,14:34:10.170,127,9,14,59,65,116,255,251,333,433,437,405,364,332,280,46,-731,-1248,-1345,398,1567,2117,2093,1410,385,-217,-519,-566,-570,-571,-588,-634,-684,-734,-828,-960,-1115,-1276,-1422,-1520,-1516,-1423,-1272,-1087,-875,-631,-378,-112,153,378,518,553,524,485,442,401,379,364,372,386,407,418,435,451,456,449,356,213,97,124,125,84,152,308,321,406,510,534,480,450,411,357,203,-410,-1068,-1772,98,1830,2868,3011,2025,577,-264,-723,-802,-787,-786,-798,-807,-838,-919,-1022,-1148,-1308,-1494,-1660,-1734,-1708,-1605,-1443,-1232,-1014,-767,-484,-174,112,343,496,568,552,496,459,414,370,367,375,360,395
2018-05-17,14:34:11.583,414,433,459,449,452,439,352,208,64,29,42,0,35,207,251,323,429,448,426,384,321,285,224,-217,-922,-2125,-200,2003,3264,3486,2386,683,-280,-811,-912,-892,-873,-858,-852,-860,-900,-984,-1099,-1243,-1421,-1566,-1640,-1601,-1473,-1296,-1084,-855,-596,-321,-34,246,478,655,724,717,687,637,576,531,514,515,506,494,512,519,515,512,520,505,415,296,210,233,217,131,157,323,368,438,496,502,479,445,422,389,202,-399,-970,-1646,-282,1371,2228,2679,2286,1046,33,-442,-568,-555,-565,-565,-587,-616,-663,-719,-809,-923,-1042,-1122,-1166,-1152,-1080,-960,-810,-651,-515,-380,-226,-84,43,119,133,115
2018-05-17,14:34:12.620,94,54,0,-50,-84,-102,-118,-125,-128,-131,-134,-166,-275,-416,-462,-430,-467,-496,-377,-308,-300,-221,-181,-203,-220,-274,-333,-384,-845,-1548,-2116,-1829,238,1390,2075,1891,821,-335,-934,-1202,-1231,-1218,-1199,-1209,-1230,-1270,-1338,-1450,-1586,-1734,-1902,-1998,-2004,-1926,-1761,-1552,-1290,-1003,-700,-415,-135,131,334,480,543,538,524,500,476,454,469,485,524,567,621,687,731,719,612,510,492,605,644,701,885,989,1084,1223,1291,1316,1299,1267,1234,1157,742,54,-645,376,2873,4013,4386,3364,1676,679,196,90,96,79,61,46,5,-68,-167,-288,-455,-665,-886,-1045,-1077,-1001,-865,-695,-466,-185,128,471,801,1073
2018-05-17,14:34:13.657,1281,1351,1354,1317,1261,1197,1129,1097,1049,1032,1014,980,951,939,931,908,826,665,498,428,457,419,386,540,585,642,725,751,727,666,606,547,461,-33,-711,-1518,-494,1625,2589,3017,2430,1055,-18,-556,-708,-706,-712,-722,-744,-785,-842,-921,-1004,-1143,-1320,-1459,-1533,-1519,-1428,-1283,-1086,-880,-666,-467,-251,-44,161,315,377,374,348,287,259,188,163,161,150,161,175,192,198,206,109,-25,-82,-27,-38,-109,-43,111,134,226,298,299,267,214,153,113,-171,-1014,-1361,-1526,214,1005,1253,1500,1251,427,-196,-529,-608,-614,-637,-648,-673,-701,-743,-816,-920,-1041,-1179,-1283,-1318,-1315,-1271,-1182,-1040,-894
2018-05-17,14:34:14.694,-732,-557,-392,-228,-81,5,38,58,33,7,-27,-57,-59,-39,-15,-7,2,19,50,39,-69,-201,-262,-189,-139,-147,9,89,158,286,347,332,297,269,228,118,-506,-1198,-1457,-142,1934,2623,2493,1578,412,-284,-610,-677,-684,-682,-697,-738,-776,-826,-916,-1052,-1232,-1410,-1592,-1719,-1740,-1663,-1508,-1321,-1081,-790,-471,-131,174,423,591,651,647,609,555,508,485,458,452,458,457,484,477,489,488,478,464,415,272,83,-71,-49,19,19,136,251,306,431,498,483,462,410,362,305,-57,-750,-1418,-852,1751,2968,3362,2505,940,-168,-693,-850,-843,-841,-849,-857,-878,-922,-991,-1111,-1282,-1470,-1654,-1788
2018-05-17,14:34:15.731,-1818,-1736,-1576,-1379,-1161,-911,-617,-275,59,358,575,679,686,664,643,604,557,539,542,533,539,559,580,598,600,592,599,582,572,568,533,492,361,183,90,124,99,18,114,244,322,424,459,439,402,365,317,251,-181,-932,-1439,-1197,1068,1936,2402,2217,1288,222,-301,-518,-543,-545,-548,-553,-585,-626,-695,-791,-908,-1041,-1153,-1243,-1269,-1226,-1115,-959,-792,-642,-475,-291,-101,62,201,293,323,315,289,272,245,214,204,211,219,231,248,270,275,287,305,318,300,221,86,-20,16,13,-62,-6,175,197,298,359,357,349,331,296,215,-121,-904,-1322,-1423,374,1404,1818,1962,1458,417,-176
2018-05-17,14:34:16.769,-506,-551,-529,-538,-557,-585,-606,-638,-724,-831,-979,-1124,-1256,-1336,-1324,-1235,-1098,-917,-707,-512,-313,-102,115,302,423,456,458,457,410,366,341,319,320,310,331,370,403,418,439,458,454,459,401,236,69,22,72,81,65,245,331,421,508,537,509,469,426,384,248,-394,-1016,-1515,417,2419,3250,3112,1854,380,-391,-750,-785,-775,-792,-824,-830,-853,-909,-1021,-1140,-1312,-1524,-1709,-1825,-1828,-1732,-1581,-1393,-1145,-853,-520,-170,182,482,680,765,746,702,665,611,552,514,504,489,481,494,509,520,522,526,519,498,480,461,428,383,240,55,-68,-34,20,10,119,225,293,411,445,420,409
2018-05-17,14:34:17.806,370,332,269,-185,-890,-1503,-707,1592,2630,2990,2346,961,-133,-658,-830,-820,-826,-844,-819,-865,-904,-960,-1044,-1172,-1327,-1466,-1580,-1622,-1548,-1394,-1209,-1015,-809,-559,-289,-19,230,424,551,595,601,576,535,496,478,456,446,462,465,468,482,486,476,476,471,457,439,404,330,224,107,84,76,0,-30,158,217,271,313,319,300,306,275,216,77,-515,-985,-1409,-635,762,1136,1737,1965,1328,333,-132,-326,-389,-421,-427,-426,-451,-529,-574,-619,-734,-829,-902,-963,-1003,-976,-904,-813,-703,-580,-434,-302,-159,-12,93,151,224,227,159,130,122,79,63,63,56,101,139,153,167,188,203,215,196
2018-05-17,14:34:18.843,84,-50,-74,26,-40,-150,-63,34,57,129,174,137,124,61,5,-143,-639,-1269,-1847,-1890,255,1704,2582,2639,1765,292,-472,-782,-801,-793,-824,-895,-960,-941,-989,-1077,-1221,-1389,-1597,-1820,-1941,-2026,-2023,-1832,-1541,-1220,-948,-745,-563,-428,-161,55,38,32,32,0,-44,-34,-74,-72,-56,-45,5,85,158,261,444,522,443,387,386,280,234,412,497,506,581,657,549,439,398,268,114,172,-305,-928,-1781,-513,1246,1992,2346,2144,1218,157,-329,-537,-379,-338,-456,-434,-431,-494,-554,-588,-638,-716,-791,-757,-655,-416,-111,152,372,521,592,717,850,943,1001,1007,953,855,720,651,552,389,296,213
2018-05-17,14:34:19.880,150,192,202,148,79,59,76,102,64,37,39,295,490,462,527,587,757,930,797,605,577,269,-360,-977,-1611,755,2395,3555,3610,2914,1532,573,25,-51,11,-25,-68,-141,-318,-387,-468,-668,-762,-954,-1256,-1261,-1299,-1297,-1169,-960,-731,-451,-244,-100,285,365,432,560,555,412,319,286,247,200,139,117,77,118,131,234,436,464,387,186,132,177,224,257,451,472,423,434,484,420,326,276,280,272,30,-554,-1232,-1976,607,2432,3218,3277,2706,1142,-251,-935,-1114,-1105,-929,-932,-995,-1006,-1022,-1130,-1240,-1400,-1505,-1588,-1495,-1271,-1114,-939,-793,-576,-310,-40,112,260,581,1052,1064,841,304,277
2018-05-17,14:34:20.917,562,448,97,-25,162,71,-7,-144,-389,-75,-13,-128,-98,-124,-216,-215,108,139,162,357,377,300,289,361,161,16,-421,-883,-1722,-529,1136,1986,2581,2497,1592,497,-81,-259,-243,-244,-334,-421,-481,-572,-672,-783,-928,-1107,-1215,-1326,-1370,-1359,-1274,-1109,-902,-729,-457,-163,-1,187,336,365,340,295,226,151,102,80,23,-58,-52,12,26,93,297,298,135,34,-3,20,119,271,349,369,353,339,283,57,142,237,495,-36,-800,-1279,-1760,669,2042,2720,2936,2465,734,-408,-849,-1012,-879,-912,-1016,-1177,-1166,-1141,-1261,-1413,-1524,-1639,-1819,-1832,-1699,-1404,-1057,-651,-255,91,418,718,945,1093,1128,1073
2018-05-17,14:34:21.954,977,840,647,461,279,80,-41,-68,-83,-89,-54,-74,-126,-173,-185,-105,-73,-76,72,273,333,441,527,519,500,475,418,386,243,-353,-1057,-1990,328,2242,3373,3741,3097,1495,179,-461,-646,-607,-622,-701,-738,-685,-657,-692,-894,-1278,-1320,-1270,-1484,-1486,-1489,-1421,-1212,-968,-722,-460,-235,-91,125,352,353,301,279,215,134,116,72,33,47,122,133,157,195,248,406,500,518,455,392,383,571,644,641,642,638,567,470,371,266,144,-305,-1009,-1450,-1689,720,2105,2715,2664,1923,507,-450,-941,-959,-923,-937,-904,-845,-797,-845,-880,-960,-1067,-1173,-1329,-1455,-1455,-1333,-1117,-590,-73,131,298,395,496
