2018-05-17,15:42:39.970,-54,-30,-32,-14,13,33,44,64,67,67,100,115,99,111,125,122,133,147,127,120,108,101,81,89,79,54,62,59,38,39,38,36,21,-17,-45,-49,-32,17,80,67,28,19,46,52,38,27,42,-71,-699,-986,318,2607,4230,1720,-479,-393,-539,-726,-728,-652,-597,-564,-520,-505,-452,-424,-417,-393,-364,-348,-321,-291,-287,-255,-199,-169,-88,-19,5,37,76,85,49,-1,-8,-14,-15,-8,-19,-27,-21,-22,-22,-6,12,45,51,56,71,94,103,98,95,96,110,117,119,117,103,104,113,100,78,55,31,12,9,6,27,75,112,80,53,58,58,53,48,32
2018-05-17,15:42:41.007,33,-154,-828,-794,583,2945,3836,884,-524,-479,-661,-760,-722,-662,-614,-570,-535,-503,-471,-444,-420,-418,-410,-400,-383,-361,-322,-294,-269,-217,-145,-86,-41,1,35,48,55,54,64,83,87,83,75,76,70,65,59,65,84,87,94,98,108,118,110,123,135,124,122,119,117,118,117,106,100,93,70,57,54,50,35,0,-41,-65,-69,-46,4,50,28,-13,-9,7,11,-6,-25,-33,-198,-817,-938,412,3078,4367,1565,-756,-748,-828,-896,-867,-815,-758,-704,-677,-650,-632,-601,-580,-554,-531,-504,-469,-422,-397,-370,-332,-290,-228,-170,-126,-87,-63,-57,-59,-47,-34,-11,6,-29,-1
2018-05-17,15:42:42.420,29,35,33,20,24,27,30,50,66,63,78,98,98,95,106,106,103,104,89,78,75,66,53,31,17,17,10,-20,-61,-95,-103,-84,-34,21,1,-18,-16,-4,-10,-16,-14,-37,-169,-756,-967,290,2814,4224,1609,-669,-644,-749,-836,-813,-761,-705,-646,-603,-578,-548,-514,-489,-464,-434,-369,-320,-302,-266,-217,-177,-137,-71,-8,41,64,88,97,71,67,84,103,113,116,118,130,136,134,130,147,170,197,204,214,244,257,264,262,281,288,282,279,278,274,274,262,235,237,242,223,200,173,132,109,101,99,109,183,218,161,119,135,161,162,158,143,105,-245,-893
2018-05-17,15:42:43.457,-335,1574,3973,3375,85,-443,-474,-649,-674,-634,-576,-519,-467,-446,-422,-395,-387,-342,-330,-334,-316,-279,-245,-210,-181,-123,-59,9,40,52,72,55,12,-17,-21,-23,-49,-49,-15,-23,-36,-22,-23,-17,10,20,32,59,100,104,106,104,106,119,121,119,109,101,103,94,94,93,64,22,-16,-13,-8,-7,12,59,29,-18,-22,-7,-22,-32,-23,-31,-209,-861,-901,453,2743,3785,910,-559,-507,-709,-816,-782,-729,-682,-626,-584,-559,-532,-509,-498,-486,-469,-446,-414,-387,-365,-318,-256,-198,-120,-58,2,35,34,-3,-25,-49,-48,-30,-17,-14,-7,3,8,-2,6,19,44,60,69
2018-05-17,15:42:44.494,67,84,99,114,112,109,101,93,97,105,96,88,81,68,54,31,-5,-39,-55,-29,16,61,34,1,12,18,22,13,-8,-15,-98,-660,-1038,-31,2454,4352,2322,-509,-739,-775,-876,-863,-797,-736,-679,-627,-587,-575,-559,-530,-506,-483,-464,-440,-411,-370,-323,-276,-224,-155,-93,-49,-12,-3,-21,-23,-25,-8,16,31,33,35,35,18,21,16,8,34,58,73,73,79,84,92,95,105,110,99,94,94,87,90,86,81,68,34,4,-24,-26,-17,25,75,60,19,31,47,50,51,46,25,-147,-756,-821,522,2983,4029,1236,-576,-585,-729,-805,-762,-696,-642,-593,-554,-525,-508
2018-05-17,15:42:45.531,-476,-452,-430,-406,-399,-372,-326,-285,-241,-185,-127,-81,-33,6,27,31,0,-17,-16,-13,-6,5,15,28,33,27,23,21,34,44,64,76,84,93,110,117,116,110,116,112,105,101,83,48,22,16,29,55,124,129,75,50,68,76,72,67,57,2,-410,-975,-263,1880,4135,3040,-116,-587,-628,-760,-765,-710,-667,-621,-572,-538,-511,-499,-484,-457,-433,-421,-395,-369,-333,-283,-224,-169,-119,-59,-13,2,-15,-29,-56,-71,-58,-40,-19,-18,-13,-13,-4,4,5,9,24,41,55,58,72,92,95,103,117,125,131,133,132,128,105,65,41,26,15,26,88,137,105,88
2018-05-17,15:42:46.568,93,102,94,76,76,61,-227,-903,-583,1199,3702,3770,467,-551,-550,-731,-780,-720,-662,-608,-577,-546,-528,-503,-475,-450,-433,-406,-383,-365,-315,-282,-234,-168,-104,-66,-26,8,31,-2,-61,-89,-104,-80,-65,-57,-45,-31,-21,-27,-21,-2,16,22,25,56,69,80,100,113,108,102,125,142,141,131,127,121,115,92,49,23,23,27,32,80,107,58,34,42,45,53,53,33,-3,-312,-931,-517,1182,3484,3317,255,-461,-484,-685,-752,-718,-662,-604,-552,-518,-476,-440,-448,-448,-429,-410,-367,-331,-308,-253,-199,-131,-78,-39,21,60,55,2,-47,-74,-80,-98,-85,-68,-78,-78,-68
2018-05-17,15:42:47.606,-48,-40,-28,-17,-5,9,28,41,62,83,93,105,113,105,94,103,108,105,101,89,71,41,18,8,22,44,115,109,51,30,47,42,38,28,24,-45,-545,-1035,-119,1911,3918,2365,-377,-508,-613,-818,-833,-784,-751,-706,-665,-646,-644,-637,-608,-612,-594,-559,-539,-532,-519,-471,-427,-381,-319,-265,-231,-208,-222,-281,-318,-361,-380,-372,-375,-391,-385,-379,-380,-391,-389,-378,-376,-364,-345,-330,-317,-311,-313,-316,-315,-292,-267,-265,-247,-252,-245,-223,-215,-223,-244,-262,-270,-255,-220,-155,-84,-104,-118,-116,-87,-67,-48,-18,-4,-146,-758,-840,610,3430,4797,1755,-472,-415,-484,-539,-478,-386
2018-05-17,15:42:48.643,-302,-228,-155,-71,-21,10,57,116,171,236,287,368,444,514,584,672,764,855,910,936,943,920,926,953,961,972,991,956,947,929,900,875,849,807,765,738,704,680,659,635,623,601,569,540,511,482,450,415,390,366,329,286,245,214,189,125,64,24,3,-8,29,55,2,-52,-42,-22,-29,-63,-93,-120,-349,-1045,-966,767,3700,4526,628,-1046,-929,-1052,-1127,-1097,-1042,-989,-919,-858,-817,-782,-745,-725,-706,-675,-635,-601,-539,-478,-412,-354,-282,-227,-195,-165,-119,-113,-145,-151,-147,-141,-121,-121,-127,-140,-143,-127,-132,-137,-144,-136,-110,-91,-88,-69,-40,-31,-44,-34,-34,-44
2018-05-17,15:42:49.680,-54,-59,-62,-67,-77,-83,-92,-104,-99,-78,-74,-102,-146,-174,-166,-140,-92,-24,-34,-63,-50,-23,-17,-23,-42,-54,-187,-863,-979,510,3251,4587,1459,-716,-762,-895,-972,-942,-891,-834,-756,-712,-693,-678,-660,-647,-610,-569,-539,-518,-479,-440,-385,-301,-250,-180,-125,-104,-96,-89,-117,-149,-152,-130,-107,-92,-57,-46,-59,-47,-32,-38,-21,3,22,38,65,99,101,113,140,130,119,119,108,120,124,113,104,90,97,104,94,82,52,33,0,-52,-58,-36,12,49,21,-10,3,6,-2,-5,-3,-40,-419,-1002,-411,1429,3651,3035,-5,-520,-583,-765,-776,-734,-682,-625,-576,-526,-500,-481
2018-05-17,15:42:50.717,-467,-436,-409,-394,-384,-325,-267,-245,-198,-144,-70,-6,41,61,47,6,-34,-33,-41,-47,-29,-13,-20,-36,-39,-47,-30,-29,6,33,41,69,71,77,96,101,102,112,108,104,96,99,93,77,70,50,15,3,-31,-49,-52,-56,36,55,19,-4,5,31,34,16,-9,-77,-540,-1052,-212,1784,3849,2589,-286,-516,-613,-803,-800,-764,-715,-672,-630,-576,-530,-511,-518,-497,-471,-456,-436,-414,-372,-321,-263,-219,-147,-77,-36,-3,2,-9,-25,-27,-9,-5,0,12,25,20,21,18,24,40,45,59,64,86,83,108,125,124,131,127,118,131,146,145,138,126,109,89,59,19
2018-05-17,15:42:51.754,-2,2,31,62,130,113,78,60,73,73,64,59,62,-65,-647,-971,149,2760,4655,2364,-601,-736,-793,-890,-885,-824,-749,-695,-644,-621,-599,-579,-548,-515,-492,-459,-420,-389,-346,-290,-241,-195,-138,-107,-60,-19,-30,-48,-46,-28,0,10,33,47,42,40,26,18,22,31,40,47,51,71,94,102,118,131,128,132,139,148,136,129,139,137,127,127,126,118,102,70,25,4,11,12,30,105,125,81,52,70,68,66,67,48,0,-378,-1015,-443,1657,4261,3727,-65,-712,-715,-863,-876,-832,-769,-697,-650,-611,-573,-537,-527,-507,-479,-455,-434,-394,-351,-300,-252,-205,-145,-93,-54
2018-05-17,15:42:52.791,-29,-24,-51,-59,-65,-56,-49,-37,-26,-26,-24,-12,0,13,14,23,37,44,54,68,78,93,106,126,143,140,121,116,120,108,114,120,98,87,100,93,59,23,0,9,1,10,82,104,68,61,75,65,55,51,26,-20,-424,-995,-238,1739,3936,2807,-131,-467,-551,-745,-752,-683,-626,-587,-550,-503,-488,-461,-425,-416,-396,-362,-352,-311,-257,-215,-159,-95,-21,17,46,71,59,30,-3,-27,-29,-26,-22,-21,-14,5,-9,-19,-19,-7,6,24,55,69,80,99,105,94,98,101,99,100,81,83,80,85,81,65,69,61,52,38,-4,-22,-24,-29,-10,64,51,6
2018-05-17,15:42:53.829,3,16,19,25,28,22,-55,-527,-1031,-140,1855,3923,2516,-328,-488,-568,-766,-788,-741,-681,-632,-598,-550,-514,-486,-460,-445,-433,-407,-376,-346,-306,-266,-216,-154,-90,-41,-11,11,19,-4,-23,-32,-29,-21,-8,-5,1,3,0,9,22,25,27,46,48,56,72,85,100,105,109,117,117,112,111,115,116,104,96,89,84,78,82,70,52,10,-24,-34,-18,0,78,99,33,20,52,47,51,59,40,-20,-439,-1021,-328,1968,4487,3525,-172,-741,-713,-854,-874,-800,-740,-688,-648,-609,-569,-555,-537,-512,-476,-449,-425,-397,-369,-331,-269,-205,-147,-96,-61,-27,-31,-48,-55,-53,-34
2018-05-17,15:42:54.866,-13,7,35,52,45,48,43,44,35,28,35,53,70,79,89,106,122,135,126,139,144,141,136,142,127,115,118,104,86,91,92,78,60,36,20,-1,-11,-7,12,72,100,69,38,48,67,55,39,25,2,-399,-1083,-480,1686,4320,3719,-41,-738,-734,-903,-921,-858,-800,-742,-688,-654,-606,-569,-550,-534,-506,-486,-446,-411,-370,-323,-260,-186,-126,-77,-50,-50,-45,-67,-80,-68,-44,-10,11,17,23,0,-1,6,5,17,19,22,41,81,95,107,128,126,133,145,152,135,125,138,157,150,128,128,130,119,92,88,93,82,59,39,23,0,17,49,100,80,43
2018-05-17,15:42:55.903,50,65,59,52,43,31,-121,-783,-857,572,3032,4099,1193,-518,-474,-679,-783,-749,-699,-638,-592,-567,-527,-496,-469,-442,-434,-417,-365,-344,-321,-268,-222,-158,-95,-47,-12,31,20,-12,-36,-45,-49,-56,-29,-2,-19,-27,-24,-23,-14,-8,-10,1,30,52,76,83,92,90,99,105,114,124,118,116,112,114,111,117,106,88,86,77,39,15,0,0,12,37,95,76,37,36,49,49,32,27,29,-92,-681,-952,282,2665,4284,1767,-603,-540,-690,-842,-816,-746,-703,-658,-617,-574,-543,-531,-524,-494,-462,-438,-419,-385,-346,-313,-247,-176,-129,-72,-36,-12,-21,-34,-43,-39,-11,12
2018-05-17,15:42:56.940,19,23,32,37,16,7,-3,-14,-5,16,30,38,40,57,68,74,84,92,88,82,84,88,98,95,90,85,78,80,77,45,9,-14,-42,-41,-18,45,100,67,28,25,29,24,18,28,6,-188,-857,-855,734,3647,4760,1102,-808,-713,-836,-909,-858,-789,-739,-689,-647,-621,-580,-544,-520,-494,-450,-440,-420,-383,-351,-294,-242,-172,-113,-62,-41,-33,-30,-39,-37,-18,17,39,58,59,48,37,22,30,35,37,41,41,50,66,81,98,115,122,137,143,135,136,133,136,132,119,104,105,95,87,76,68,54,48,53,27,-6,-27,-38,-38,-10,63,87,37,25,34
2018-05-17,15:42:57.977,40,51,49,33,-6,-403,-1028,-428,1734,4313,3704,73,-740,-699,-848,-887,-839,-773,-710,-667,-630,-595,-576,-550,-519,-489,-462,-440,-401,-362,-333,-282,-207,-150,-108,-71,-53,-48,-68,-52,-35,-11,7,30,32,43,43,36,40,48,41,40,54,70,82,85,110,120,123,119,132,143,141,147,151,140,126,119,125,111,93,95,89,89,73,66,34,-2,-11,-14,-4,11,58,88,54,30,32,47,43,32,23,-15,-402,-993,-326,1619,3945,3235,-111,-523,-541,-747,-764,-735,-677,-632,-601,-529,-522,-510,-463,-431,-421,-416,-378,-353,-318,-257,-199,-168,-100,-29,-1,22,28,12,-11,-22
2018-05-17,15:42:59.014,2,25,37,22,13,20,16,7,10,17,29,40,46,60,77,70,77,93,99,101,102,99,95,99,97,95,78,67,64,52,47,43,25,2,-24,-45,-56,-29,13,58,33,-12,-11,1,8,8,-1,-5,-105,-718,-1012,234,2718,4407,1723,-609,-577,-718,-848,-826,-770,-707,-649,-607,-570,-536,-510,-498,-492,-471,-448,-424,-398,-358,-307,-257,-195,-144,-78,-34,-25,-15,-26,-4,33,56,72,79,77,76,77,70,67,63,66,75,71,74,78,83,85,100,104,94,109,108,106,111,104,87,84,81,76,77,56,55,64,49,35,-1,-40,-53,-42,-32,28,71,35,9
2018-05-17,15:43:00.052,39,55,41,40,29,5,-254,-930,-724,1028,3751,4256,763,-747,-691,-828,-885,-838,-781,-724,-671,-632,-599,-564,-536,-511,-494,-466,-429,-414,-381,-323,-273,-219,-163,-117,-78,-53,-33,-46,-48,-34,-10,22,41,64,61,63,67,64,58,39,37,61,46,57,67,78,92,97,99,139,141,137,126,122,112,102,107,96,104,84,73,80,61,24,-9,-38,-47,-25,4,61,82,36,8,32,43,18,19,11,-24,-373,-992,-463,1537,4074,3707,64,-705,-665,-835,-866,-818,-761,-698,-647,-624,-583,-556,-525,-499,-487,-458,-424,-395,-361,-310,-254,-204,-151,-87,-61,-36,-28,-27,-53,-30,23
2018-05-17,15:43:01.089,43,62,59,44,56,79,63,58,57,66,58,67,99,111,101,112,121,119,122,137,138,111,98,106,119,136,115,90,85,77,68,62,34,1,-21,-32,-35,35,88,41,17,47,64,44,30,36,24,-285,-951,-536,1179,3620,3629,216,-492,-516,-730,-783,-731,-683,-622,-564,-545,-500,-481,-478,-454,-418,-390,-358,-343,-318,-262,-229,-183,-92,-29,18,20,16,-2,-12,-12,-17,0,17,22,16,31,31,21,16,13,29,27,33,48,57,73,85,91,95,99,84,70,80,85,94,77,56,63,57,58,52,13,-17,-38,-47,-35,0,62,63,19,-1,34,33,22,21
2018-05-17,15:43:02.126,11,-64,-543,-1053,-114,2088,4229,2595,-410,-610,-671,-834,-826,-765,-716,-656,-611,-566,-535,-520,-511,-499,-476,-445,-422,-400,-374,-326,-263,-207,-138,-100,-66,-46,-17,-21,-12,6,28,49,75,73,66,68,63,58,51,32,55,67,44,66,94,114,111,113,115,109,98,98,87,86,120,131,118,99,75,48,62,65,19,1,-8,-2,32,82,123,70,46,57,60,41,68,61,-2,-372,-952,-450,1558,4112,3763,183,-729,-672,-841,-897,-813,-741,-713,-683,-643,-594,-573,-495,-499,-455,-423,-436,-392,-340,-284,-230,-191,-133,-115,-24,0,-22,-36,-23,-4,-8,-4,28,51,48,29,42
2018-05-17,15:43:03.163,37,50,27,25,-7,21,71,88,71,103,112,119,117,117,108,105,114,116,89,93,91,106,103,94,57,21,-9,-21,-26,-7,67,86,32,29,55,46,25,43,35,-8,-375,-988,-450,1554,4101,3770,170,-659,-645,-830,-863,-813,-750,-694,-656,-610,-573,-554,-545,-534,-482,-415,-388,-376,-349,-306,-230,-173,-116,-71,-53,-43,-53,-81,-91,-78,-54,-18,-2,-6,10,27,23,32,2,34,42,20,31,55,71,75,94,89,106,113,102,97,114,102,100,84,80,70,78,90,69,53,9,1,-6,-2,36,120,108,64,64,76,74,70,64,50,-16,-579,-949,135,2271,4135
2018-05-17,15:43:04.200,2033,-387,-449,-605,-748,-758,-697,-625,-594,-557,-511,-483,-480,-474,-442,-404,-364,-337,-311,-277,-226,-155,-125,-77,-32,1,25,-9,-37,-31,-23,-11,0,2,13,4,5,0,-23,17,13,5,28,55,67,50,59,91,73,90,66,78,71,87,94,73,59,49,49,26,24,-2,-46,-51,-52,-39,-10,52,47,14,-20,-6,0,26,0,-12,-98,-709,-1050,140,2607,4381,1953,-519,-582,-720,-871,-829,-760,-705,-678,-607,-556,-540,-528,-518,-502,-447,-424,-393,-371,-318,-316,-232,-135,-128,-77,-24,-13,-29,-31,-21,0,21,53,64,84,79,63,72,68,51,46,43,51,59,76,73
2018-05-17,15:43:05.238,64,78,82,109,117,120,105,92,118,108,93,89,67,49,63,40,2,-44,-31,-14,0,51,67,33,13,46,69,43,30,26,-14,-398,-1023,-488,1659,4326,3864,135,-806,-749,-873,-888,-838,-779,-739,-676,-608,-561,-523,-517,-496,-454,-433,-404,-368,-324,-277,-253,-174,-102,-61,-32,-25,-26,-35,-41,-21,18,29,49,88,83,79,74,80,70,60,51,57,71,71,61,71,83,101,113,105,110,111,99,90,94,89,79,83,68,62,66,70,47,5,-29,-54,-51,-27,33,65,21,-7,-10,-15,-6,-11,-13,-29,-235,-886,-929,618,3375,4539,1302,-791,-797,-931,-1013,-959,-877
2018-05-17,15:43:06.275,-832,-809,-775,-718,-703,-717,-685,-647,-620,-601,-579,-543,-501,-463,-412,-358,-312,-269,-259,-276,-299,-300,-299,-294,-255,-280,-259,-239,-258,-259,-265,-288,-307,-319,-312,-303,-295,-291,-284,-273,-259,-258,-245,-243,-244,-255,-262,-247,-276,-259,-226,-240,-243,-235,-260,-286,-306,-297,-283,-260,-179,-146,-164,-160,-171,-154,-95,-75,-74,-65,-356,-993,-497,1318,3753,3587,125,-350,-334,-567,-655,-595,-500,-418,-348,-274,-232,-185,-107,-49,6,65,118,165,210,272,395,478,556,621,638,666,641,577,549,561,588,607,658,671,670,665,666,646,641,642,616,604,606,591,587,606,615,563,506,516,519,497
2018-05-17,15:43:07.312,452,386,342,346,306,255,218,184,154,141,161,166,191,201,164,134,137,138,123,85,75,69,-203,-912,-685,991,3685,4151,457,-644,-577,-781,-844,-801,-739,-684,-617,-574,-533,-494,-446,-419,-411,-379,-355,-329,-294,-262,-226,-175,-131,-64,-23,-3,15,12,26,69,105,136,145,143,137,123,113,94,75,60,82,101,97,103,110,128,136,133,148,149,132,112,120,134,119,100,95,104,104,80,30,-15,-25,-16,0,41,68,29,7,13,28,16,8,9,-4,-261,-979,-802,992,3851,4349,669,-834,-798,-924,-966,-919,-879,-831,-778,-724,-680,-664,-639,-612,-585,-556,-534,-498,-462
2018-05-17,15:43:08.349,-406,-365,-318,-258,-214,-188,-172,-154,-157,-145,-120,-103,-78,-40,-23,-25,-25,-30,-37,-46,-71,-86,-86,-93,-79,-64,-42,-18,-3,-6,-3,12,21,28,30,18,10,-4,2,16,1,-24,-58,-86,-107,-88,-62,-21,43,13,-39,-44,-29,0,-23,-49,-48,-241,-900,-930,612,3381,4513,1288,-757,-745,-866,-944,-910,-846,-794,-745,-695,-644,-594,-600,-562,-537,-503,-472,-436,-392,-345,-293,-235,-163,-113,-84,-69,-77,-76,-77,-73,-49,-21,-4,24,24,22,8,12,15,11,9,10,14,23,38,56,77,78,89,97,80,77,86,99,96,85,93,99,94,69,41,-5,-22,-21,-5
2018-05-17,15:43:09.386,48,101,64,25,46,28,47,42,28,3,-182,-832,-755,758,3135,3840,773,-519,-473,-694,-803,-774,-717,-664,-615,-569,-553,-525,-500,-479,-465,-454,-431,-386,-332,-299,-233,-160,-95,-52,-7,-2,-30,-56,-76,-93,-83,-33,0,13,3,12,6,-17,-15,-11,-6,15,22,22,32,44,65,70,71,75,74,78,86,81,79,69,79,67,58,33,-4,-17,-16,-12,11,63,50,3,-5,7,20,8,0,-4,-62,-549,-1029,-103,2068,4183,2628,-421,-568,-649,-838,-837,-787,-735,-678,-629,-592,-582,-550,-506,-477,-473,-455,-427,-396,-361,-305,-260,-199,-133,-80,-48,-36,-43,-36,-24,-5,26
2018-05-17,15:43:10.423,48,59,55,58,60,44,36,28,31,41,33,38,49,66,70,76,89,86,86,90,102,123,118,114,112,95,93,85,78,53,18,-8,-24,6,39,96,93,46,36,59,69,50,46,38,-11,-429,-1034,-380,1896,4556,3711,-232,-776,-746,-883,-882,-819,-775,-724,-670,-626,-590,-564,-541,-512,-482,-457,-434,-403,-372,-318,-249,-194,-142,-94,-61,-44,-40,-41,-46,-24,14,59,83,81,81,78,61,50,61,69,71,61,74,84,88,106,121,128,129,139,145,141,138,125,118,116,112,99,87,80,70,66,55,29,-6,-42,-39,-13,11,60,74,27,0,16,19,3,17
2018-05-17,15:43:11.461,6,0,-232,-947,-762,1012,3822,4392,755,-744,-699,-845,-904,-871,-818,-746,-699,-653,-605,-565,-537,-537,-502,-466,-450,-416,-381,-335,-279,-222,-163,-116,-79,-74,-96,-127,-133,-124,-100,-55,-48,-30,-25,-32,-46,-48,-52,-58,-48,-41,-28,-23,-16,-18,0,0,14,24,26,33,40,30,33,37,20,11,4,0,-3,-3,11,9,-4,-34,-69,-70,-70,-62,-30,37,36,-4,0,26,28,10,10,19,-75,-630,-979,143,2483,4258,2086,-466,-516,-657,-816,-804,-758,-712,-643,-584,-559,-520,-480,-456,-424,-417,-389,-365,-310,-255,-199,-149,-87,-9,43,65,60,38,-6,-21,7,17,6,53
2018-05-17,15:43:12.498,69,49,53,60,53,44,43,43,66,81,96,96,112,113,118,140,153,164,173,165,168,166,172,176,178,186,167,179,154,119,84,83,85,86,141,202,172,135,129,150,152,150,138,126,-33,-703,-811,622,3055,4368,1134,-554,-385,-608,-739,-706,-668,-640,-584,-525,-493,-471,-448,-426,-409,-398,-380,-327,-295,-250,-183,-129,-80,-22,19,37,30,-6,-13,-2,0,20,30,39,37,39,40,32,22,14,21,20,11,15,27,48,67,76,80,87,96,108,115,121,126,118,97,99,96,105,109,91,71,49,20,-3,-13,30,88,124,83,56,61,59,69,54,58,52
2018-05-17,15:43:13.535,-116,-819,-915,554,3385,4627,1393,-687,-684,-819,-895,-859,-803,-745,-695,-651,-621,-583,-565,-547,-515,-502,-479,-455,-413,-350,-289,-223,-163,-100,-64,-36,-41,-54,-55,-37,1,40,60,78,91,96,81,65,48,45,43,42,41,35,40,45,59,64,76,93,100,103,108,100,91,84,80,72,51,48,58,46,45,37,38,17,-24,-62,-85,-63,-35,42,75,27,2,22,19,13,21,13,-18,-349,-1006,-613,1425,4222,4241,401,-824,-744,-885,-932,-896,-836,-775,-721,-659,-611,-588,-563,-544,-520,-497,-467,-415,-367,-324,-264,-203,-155,-102,-57,-47,-60,-84,-86,-64,-43,-14,20,39,46
2018-05-17,15:43:14.572,36,22,12,17,4,7,7,7,6,4,19,32,43,54,54,57,69,77,58,61,73,71,65,62,46,35,25,13,30,13,1,8,0,-37,-79,-92,-71,-51,-8,59,41,-10,-5,25,32,21,11,0,-80,-699,-1051,226,2955,4770,2067,-624,-668,-766,-898,-873,-808,-754,-703,-640,-597,-574,-540,-516,-499,-475,-438,-410,-374,-334,-266,-207,-156,-82,-56,-51,-45,-50,-83,-99,-93,-69,-37,-14,-11,-6,-7,-52,-70,-68,-68,-55,-55,-54,-43,-21,-1,0,6,10,18,46,41,16,19,21,16,8,-3,1,4,-8,-22,-41,-56,-72,-104,-100,-117,-115,-78,-25,-12,-53
2018-05-17,15:43:15.609,-87,-80,-55,-51,-65,-66,-104,-432,-1050,-495,1332,3719,3300,-28,-603,-578,-798,-860,-798,-730,-685,-617,-559,-539,-517,-482,-452,-449,-404,-364,-326,-287,-251,-190,-127,-62,10,55,58,23,-21,-33,-6,-19,-2,20,47,62,44,39,42,29,23,36,43,33,90,125,117,154,182,175,190,214,234,237,247,229,229,252,241,234,221,242,242,244,233,199,164,176,202,224,294,284,222,209,241,236,232,226,217,185,-240,-810,-30,1901,4205,3211,-130,-322,-375,-609,-640,-592,-553,-499,-444,-400,-359,-339,-310,-292,-274,-243,-216,-189,-168,-120,-71,-9,49,100,130,156,148,130,122,122
2018-05-17,15:43:16.647,143,149,155,168,164,143,144,124,119,109,94,84,95,94,110,113,109,106,124,114,94,90,90,102,97,90,84,99,90,77,67,67,47,29,11,-3,-36,-71,-86,-71,-47,13,42,-1,-33,-13,-5,2,-12,-16,-60,-400,-1084,-648,1389,4222,4117,242,-845,-782,-922,-979,-933,-875,-807,-761,-720,-669,-626,-614,-595,-569,-537,-508,-483,-464,-419,-355,-292,-235,-190,-154,-104,-79,-77,-55,-20,0,33,60,74,84,82,55,48,51,52,37,28,18,13,10,31,42,48,51,58,72,73,71,73,69,76,58,53,54,39,23,22,1,-5,-10,-19,-10,-9,-13,-39,-82
2018-05-17,15:43:17.684,-103,-109,-86,-59,-2,23,-3,-34,-24,-7,-13,-7,-5,-29,-339,-987,-651,1354,4221,4374,434,-875,-767,-919,-971,-914,-861,-799,-745,-700,-661,-629,-597,-565,-544,-516,-499,-468,-429,-383,-326,-269,-206,-145,-116,-98,-78,-70,-77,-66,-33,-12,5,18,22,23,16,14,-1,-10,-4,5,11,10,12,24,30,37,60,70,75,73,77,78,85,85,84,91,104,102,96,74,62,59,53,54,48,23,23,36,35,29,12,-35,-74,-78,-57,-36,-21,50,49,1,-20,-2,6,13,13,17,-97,-701,-1018,169,2729,4580,2269,-537,-677,-775,-903,-884,-834,-773,-704,-639,-591,-569,-549,-521
2018-05-17,15:43:33.483,-685,-514,-429,-431,-402,-409,-431,-324,-293,-293,-239,-176,-92,-7,10,135,201,177,78,-24,-112,-167,-199,-234,-209,-192,-196,-175,-196,-187,-194,-164,-165,-110,-114,-136,-115,-95,-103,-111,-42,-62,-43,15,-15,-10,-26,-5,-26,-74,-78,-20,-6,4,18,15,4,-20,35,13,-21,8,11,-62,-569,-1160,-308,1885,4189,3312,-171,-647,-600,-818,-870,-811,-688,-701,-700,-575,-436,-407,-418,-482,-472,-435,-415,-405,-358,-297,-282,-192,-130,-26,83,80,-13,-133,-155,-172,-229,-253,-161,-88,-111,-55,-53,-67,-94,-110,-73,-62,-63,-90,-48,12,-29,-20,-36,-18,23,22,7,6,79,63,5,-72
2018-05-17,15:43:34.245,73,132,67,23,-11,-2,5,42,117,79,108,30,50,133,86,73,41,-189,-824,-686,916,3441,3977,733,-719,-431,-594,-674,-644,-617,-563,-528,-521,-492,-467,-458,-463,-424,-368,-332,-300,-254,-173,-85,-20,50,118,157,183,138,29,-56,-128,-145,-164,-134,-97,-77,-82,-68,-38,-39,-63,-64,-39,-11,11,14,-75,-46,-5,1,31,41,45,47,30,0,24,12,85,118,111,91,81,66,57,85,119,121,102,30,-431,-1053,-162,1966,4207,3307,-161,-419,-321,-567,-681,-655,-524,-522,-515,-480,-491,-506,-481,-392,-357,-364,-339,-281,-194,-109,-66,6,70,134,133,119,22,-57,-107,-156
2018-05-17,15:43:35.282,-184,-111,-118,-178,-117,-87,-166,-116,-24,-48,-68,-74,-51,-54,-92,-103,-85,-31,-58,-108,69,137,56,32,62,67,8,-53,-120,158,222,7,-11,80,177,226,171,105,82,-146,-851,-830,630,2926,3772,1070,-700,-494,-608,-756,-717,-641,-601,-576,-530,-484,-489,-488,-464,-416,-387,-326,-312,-249,-188,-146,-38,90,158,170,218,212,152,66,-48,-87,-89,-32,-45,-69,-66,-1,19,1,-17,-14,-64,7,38,8,19,12,6,35,50,70,87,74,65,88,80,64,45,81,90,56,14,14,61,86,104,142,84,142,183,226,198,133,86,42,-248,-963,-791,968,3441,3989,729,-734
2018-05-17,15:43:36.319,-478,-709,-882,-791,-689,-638,-600,-568,-535,-500,-499,-516,-497,-410,-369,-355,-256,-202,-173,-60,31,23,40,126,88,-16,-51,-59,-88,-103,-59,-40,8,1,-64,-33,55,48,60,62,-1,-8,137,154,125,106,59,-14,60,119,203,235,196,178,207,183,165,139,141,107,104,57,100,184,153,131,124,89,87,76,61,70,35,-366,-1042,-467,1405,3654,3236,-79,-625,-512,-744,-797,-787,-670,-619,-598,-579,-518,-461,-447,-420,-384,-343,-291,-256,-195,-75,2,92,182,228,247,276,203,31,-104,-138,-189,-205,-163,-151,-155,-162,-164,-122,-124,-161,-139,-133,-138,-128,-116,-172,-117,-158,-96
2018-05-17,15:43:37.357,23,36,-6,-54,-68,-89,-121,-170,-125,-101,-142,-109,-122,-184,-126,-110,-162,-201,-223,-241,-293,-667,-1268,-796,798,2786,2612,-285,-686,-611,-864,-917,-857,-781,-741,-724,-690,-672,-642,-612,-592,-544,-531,-491,-417,-442,-245,-124,-54,32,101,110,155,104,-67,-47,-31,-29,-59,0,-4,26,80,85,126,173,237,248,225,257,299,288,281,293,309,335,330,337,336,345,361,373,390,391,384,386,408,425,403,378,375,371,407,454,455,425,409,390,507,534,518,530,497,154,-584,-93,1801,4339,4549,1120,-173,-85,-278,-360,-347,-305,-205,-166,-161,-148,-144,-89,-41,-34,-18,-3,51,136
2018-05-17,15:43:38.394,201,287,375,477,533,572,574,507,360,241,132,40,0,71,41,44,145,174,157,137,108,32,22,28,21,-10,-32,-33,-67,0,20,-6,-24,-34,-19,-11,2,-14,8,12,-37,-57,-57,-76,-77,-111,-13,36,-30,-70,-96,-80,-114,-122,-94,-89,-359,-1010,-742,796,2899,2948,266,-628,-527,-706,-800,-763,-652,-642,-682,-564,-506,-496,-546,-553,-448,-418,-321,-231,-249,-220,-129,-76,-36,82,201,230,176,77,-37,-115,-175,-217,-217,-193,-229,-231,-212,-221,-208,-231,-224,-217,-178,-193,-239,-252,-243,-212,-219,-211,-199,-180,-177,-186,-189,-187,-175,-156,-142,-92,-41,-62,-100,-36,-52,-123
2018-05-17,15:43:39.431,-91,-68,-44,-57,-219,-914,-1018,406,2686,3944,1374,-658,-570,-710,-854,-826,-800,-709,-689,-686,-590,-597,-578,-501,-459,-429,-394,-323,-288,-191,-64,2,66,106,185,236,175,20,-62,-180,-263,-252,-256,-271,-250,-255,-308,-166,-177,-200,-163,-170,-211,-186,-208,-206,-127,-82,-99,-82,-106,-42,-30,-51,-86,-80,-21,3,-32,-36,-29,-49,-95,-96,-105,-79,-38,-23,-67,-71,-69,-74,-58,-62,-112,-103,-183,-751,-925,252,2535,3549,1264,-611,-416,-599,-752,-719,-653,-643,-547,-508,-430,-366,-363,-339,-347,-268,-200,-164,-139,-117,-70,-7,50,124,175,181,155,115,53,-36,-112,-135,-133,-120,-107,-125
2018-05-17,15:43:40.468,-97,-78,-92,-115,-123,-157,-97,-62,-69,-125,-23,29,66,33,30,61,70,54,17,79,139,111,69,71,77,50,24,97,135,135,105,89,104,108,107,96,81,56,-326,-997,-473,1602,4258,4146,378,-735,-533,-700,-763,-697,-637,-610,-594,-551,-533,-543,-509,-482,-462,-435,-393,-366,-282,-180,-106,-34,59,145,189,177,109,8,-90,-198,-206,-186,-153,-97,-87,-70,-55,-46,-60,-71,-70,-73,-81,-54,-41,-18,1,-8,-25,-8,27,31,34,67,57,42,46,53,53,42,3,78,90,64,61,75,191,145,70,60,76,131,146,106,-175,-797,-551,1046,3406,3812,558,-557,-311,-551
2018-05-17,15:43:41.505,-656,-612,-614,-596,-541,-498,-498,-436,-419,-404,-358,-337,-269,-229,-193,-143,-66,-12,54,118,132,173,37,-14,-29,-93,-133,-184,-96,-68,-110,-77,-85,-98,-28,-33,-81,-86,-63,-88,-124,-116,21,66,28,-17,-34,-30,-3,13,26,10,-38,-102,-33,-11,95,101,8,-2,40,37,-1,-25,49,20,-152,-778,-909,560,3162,4733,1977,-749,-535,-517,-723,-751,-703,-674,-645,-631,-584,-497,-439,-468,-434,-379,-330,-366,-278,-162,-148,-63,21,98,123,122,55,-3,-59,-115,-150,-153,-158,-88,-58,-58,-41,-109,-111,-92,-107,-83,-122,-162,-77,-57,-43,34,28,15,-6,10,0,125,155,120
2018-05-17,15:43:42.542,104,66,-2,58,151,135,125,74,45,22,-6,-11,214,219,193,211,213,183,149,116,93,55,-194,-892,-821,816,3524,4504,1110,-746,-591,-694,-793,-797,-724,-674,-665,-623,-576,-530,-476,-430,-413,-368,-354,-196,-94,-73,-29,94,204,266,282,319,277,171,74,-19,-46,-97,-117,-115,-104,-79,-57,-46,-92,-103,-60,-68,-38,-13,-44,-26,-14,-13,-20,-71,24,55,81,68,-1,2,76,16,45,155,116,86,105,-18,77,189,148,73,11,19,7,-8,2,19,-14,-24,-459,-1090,-463,1396,3504,2976,-99,-610,-528,-766,-764,-660,-667,-629,-568,-558,-524,-528,-535,-429,-396,-394,-347,-234
2018-05-17,15:43:43.580,-181,-173,-80,58,124,128,164,133,65,66,-56,-184,-116,-84,-111,-51,-38,-165,-45,59,-8,-14,-85,34,54,-33,33,67,78,35,-41,-21,86,136,92,81,59,42,9,-19,-52,2,70,59,93,88,56,60,83,62,39,84,54,-13,-431,-1109,-373,1596,3841,3305,-29,-564,-445,-691,-774,-707,-673,-645,-565,-588,-523,-447,-412,-423,-375,-306,-263,-274,-210,-101,-16,86,162,205,192,250,176,14,-53,-115,-182,-146,-107,-52,-48,-101,25,59,-11,45,46,69,32,17,4,-11,-18,-27,-24,-39,-44,14,56,49,33,29,14,-72,7,75,-28,-7,60,30,-27,-28,80,94
2018-05-17,15:43:44.617,-29,-63,-1,50,30,16,-4,-15,-194,-844,-851,510,2844,3605,1077,-717,-508,-608,-743,-739,-653,-659,-608,-496,-494,-392,-438,-419,-342,-439,-435,-437,-265,-76,-34,-16,105,252,375,424,386,346,271,157,69,16,-21,-46,-46,-52,-10,-1,3,-31,-39,-43,-49,-53,-74,-73,-48,-53,-65,-60,-33,5,27,2,-42,-11,87,73,61,55,26,43,65,94,158,146,105,109,104,95,80,100,83,18,-371,-950,-374,1433,3634,3351,205,-500,-473,-682,-744,-696,-656,-577,-560,-537,-460,-412,-405,-353,-292,-245,-256,-180,-107,-70,-45,3,60,89,107,103,43,-40,-88,-107,-148,-171,-150,-90
2018-05-17,15:43:45.654,-120,-135,-79,-74,-142,-148,-58,-116,-145,-111,-81,-73,-22,-31,-38,0,33,12,-14,5,35,-2,30,14,-10,33,52,48,28,39,78,53,0,22,71,14,-36,-552,-957,-31,1803,3353,1922,-383,-337,-411,-617,-693,-571,-543,-348,-296,-366,-344,-312,-326,-287,-269,-243,-205,-172,-125,-77,-38,-47,33,131,205,153,108,17,-29,-73,-103,-98,-74,-71,-70,-76,-65,-62,-66,-80,-129,-116,-39,-14,-46,-10,6,-8,-9,56,55,41,46,53,103,125,75,16,7,-4,1,29,105,104,22,56,76,78,34,69,83,48,-150,-838,-984,577,3367,4909,2015,-745,-580,-629,-777,-767,-716
2018-05-17,15:43:46.691,-678,-643,-615,-588,-575,-653,-579,-433,-451,-447,-361,-330,-351,-218,-79,-9,56,108,123,105,30,-51,-91,-99,-165,-138,-46,-59,-67,-54,-67,-56,-53,-79,-89,-56,-18,-78,-125,-85,-51,-61,-56,-22,14,51,54,36,38,38,22,-84,18,22,-27,9,156,145,81,111,36,100,224,209,138,140,128,-277,-880,-273,1666,3728,2977,-244,-637,-496,-674,-735,-689,-603,-545,-575,-494,-408,-409,-394,-352,-335,-320,-258,-228,-180,-78,11,87,198,276,305,247,251,143,37,-96,-123,-134,-148,-145,-92,-84,-113,-139,-103,-64,-72,-81,-66,-71,-66,-49,-50,-49,-1,-14,-11,2,-2,-12,-58
2018-05-17,15:43:47.728,2,-42,9,60,124,113,81,113,154,204,187,120,91,80,-186,-855,-651,878,2922,3267,389,-579,-346,-582,-686,-673,-567,-512,-469,-468,-465,-382,-367,-384,-375,-359,-351,-295,-174,-163,-189,-76,29,53,85,72,60,0,-85,-183,-113,-147,-138,-128,-68,-44,-76,-213,-45,29,-54,-74,-122,-54,48,7,-15,42,38,-28,23,72,110,148,141,136,125,91,64,48,47,48,65,63,67,21,-11,-19,33,-18,18,0,-88,-535,-954,-74,2017,3898,2608,-459,-545,-523,-768,-745,-701,-677,-618,-564,-519,-494,-452,-429,-402,-405,-351,-302,-318,-235,-91,-34,-7,83,215,250,214,123,105,7
2018-05-17,15:43:48.766,-52,-56,-60,-42,-18,-30,-6,4,21,20,3,2,3,0,23,77,39,3,97,208,219,275,260,184,152,149,108,59,14,-29,-23,-74,19,122,90,32,-37,-36,-5,-11,-95,-38,4,-257,-936,-811,700,2932,3306,495,-662,-490,-649,-715,-719,-677,-563,-513,-550,-537,-486,-473,-460,-448,-422,-368,-312,-264,-222,-187,-77,25,144,117,176,122,-45,60,-5,-61,-25,-42,-8,-10,58,91,138,187,141,95,99,67,61,79,95,47,25,13,35,48,47,47,54,56,45,45,44,64,34,61,156,172,100,77,50,13,25,31,34,-3,-166,-860,-773,744,2963,3753,791,-661
2018-05-17,15:43:49.803,-518,-617,-698,-700,-670,-639,-559,-416,-425,-466,-474,-426,-333,-330,-326,-247,-175,-102,-27,58,145,209,228,239,153,55,-59,-289,-156,-63,-162,-133,-129,-117,-51,-13,-32,-43,-9,-20,-36,-35,-19,-30,-66,-72,-76,-109,63,-1,-14,5,-7,-21,9,-24,-41,-11,79,19,10,71,67,81,25,-51,-4,-38,-452,-999,-358,1406,3372,2697,-296,-543,-478,-666,-715,-654,-660,-666,-517,-476,-481,-517,-423,-387,-385,-402,-354,-234,-228,-255,-141,-75,45,81,22,61,119,80,88,4,33,130,80,159,201,173,155,126,80,42,7,-22,-51,-64,-115,-47,-17,-16,10,-16,42,57,14,-4
2018-05-17,15:43:50.840,93,55,34,41,18,34,30,79,122,91,55,53,76,124,111,18,-64,-41,-454,-1046,-320,1855,4301,3559,-196,-670,-542,-793,-811,-746,-697,-643,-595,-561,-528,-491,-459,-423,-410,-347,-250,-209,-146,-55,43,120,207,246,371,405,263,97,0,-63,-148,-172,-157,-163,-189,-184,-127,-101,-88,-123,-157,-170,-139,-113,-82,-76,-95,-73,-57,-48,6,43,-28,-52,-20,-27,-78,-61,-6,55,56,4,-41,-20,8,-16,-22,21,-1,-415,-969,-455,1195,3112,2696,-35,-443,-393,-565,-629,-610,-498,-458,-466,-449,-454,-376,-309,-271,-298,-215,-37,15,17,78,152,194,254,284,261,195,54,-29,-157
2018-05-17,15:43:51.877,-122,-59,-77,-113,-76,-35,-21,-15,-33,-45,-45,-51,-40,-25,-13,7,2,-28,45,73,68,66,44,47,55,25,20,34,85,139,89,50,64,66,72,66,37,29,-33,-466,-956,-189,1627,3496,2682,-176,-425,-398,-627,-665,-618,-616,-512,-433,-424,-352,-345,-371,-270,-220,-203,-181,-169,-88,-27,-6,8,45,159,195,122,40,-52,-129,-132,-191,-109,-74,-121,-108,-46,-88,-113,-141,-168,-100,-25,-50,-92,-19,9,-12,-30,-5,-2,24,19,-44,-21,-11,-21,14,78,55,31,-2,-76,-24,12,69,-25,-29,-297,-817,-566,843,2917,3029,240,-475,-237,-477,-632,-613,-541,-479,-460,-447
2018-05-17,15:43:52.914,-410,-320,-328,-345,-295,-262,-256,-276,-226,-150,-150,-101,12,87,72,17,42,39,-54,-106,-97,-70,-43,-33,-13,3,-67,-48,26,-2,-18,-30,-19,-4,6,16,1,12,41,56,4,-19,25,63,26,0,16,68,4,43,65,60,26,17,25,85,92,46,48,-137,-850,-953,627,3481,4841,1789,-787,-688,-761,-875,-835,-842,-639,-489,-605,-608,-512,-475,-490,-485,-470,-455,-436,-351,-298,-233,-174,-123,-97,-57,22,18,-41,-98,-154,-164,-138,-148,-153,-147,-110,-98,-79,-94,-142,-99,-84,-90,-102,-55,-62,-68,-26,-27,-46,-25,3,16,57,37,37,43,9,-28,-6,80,121,113
2018-05-17,15:43:53.951,237,196,150,105,83,4,187,201,-133,-797,-576,998,3492,4149,1026,-555,-373,-556,-666,-634,-607,-577,-534,-517,-520,-512,-518,-424,-312,-335,-318,-232,-166,-106,-17,54,124,203,294,312,222,128,45,-20,-113,-121,-53,-51,-98,-103,-51,-68,12,-25,-60,-9,-59,-41,3,18,38,34,43,46,23,47,49,26,30,38,42,74,127,107,98,95,78,64,73,85,69,-30,-586,-978,172,2324,4065,2150,-491,-325,-370,-601,-616,-590,-606,-569,-543,-532,-495,-407,-493,-406,-355,-296,-235,-261,-216,-155,-36,-8,36,84,84,31,-17,-98,-189,-166,-164,-128,-140,-141,-121,-138,-120,-65,-131,-146
2018-05-17,15:43:54.989,-93,-88,-110,-83,-91,-58,-69,-93,-60,7,4,44,2,99,185,72,-65,21,74,-15,-167,-27,192,180,172,174,209,189,161,118,-268,-941,-418,1571,4057,3791,209,-766,-573,-788,-905,-813,-730,-648,-638,-559,-540,-534,-447,-448,-398,-327,-347,-281,-197,-150,-68,2,57,125,192,171,123,36,-47,-120,-116,-134,-156,-73,-32,-77,-82,-73,-80,-82,-50,-44,-102,-63,10,11,8,17,27,40,44,51,63,74,54,30,52,31,42,88,121,96,116,103,216,197,142,104,62,30,-62,-322,-1020,-790,1061,3269,3057,118,-575,-427,-557,-720,-645,-646,-673,-567,-398,-482,-364,-330,-597,-791
2018-05-17,15:43:56.026,-464,-304,-255,-720,-211,-2,-433,-200,98,147,42,151,-406,-198,558,238,253,309,340,-418,528,521,251,-70,390,443,-8,-50,618,323,73,-76,111,509,190,274,486,350,317,64,488,290,41,62,-124,186,303,-134,28,-142,83,-65,74,159,66,-104,-416,-1106,-544,1213,3389,3042,-104,-739,-559,-759,-834,-806,-763,-691,-640,-642,-571,-575,-600,-527,-510,-414,-304,-240,-257,-238,-85,128,201,170,248,281,197,100,-6,-78,-132,-176,-168,-156,-149,-127,-142,-132,-141,-150,-159,-163,-154,-46,-27,43,21,-8,-22,-30,-43,-73,-93,-88,-72,-96,-64,6,-26,-48,-44,-20,-25,-17,-7,-35
2018-05-17,15:43:57.063,-82,-477,-1014,-250,1379,3014,2017,-404,-406,-322,-529,-614,-607,-547,-483,-461,-442,-426,-408,-419,-382,-330,-317,-308,-271,-275,-146,-49,-30,-28,30,83,89,-7,46,27,-47,-176,-61,133,158,51,71,92,89,71,13,28,37,18,29,20,-10,-26,-52,-45,-103,-44,51,51,29,11,13,-9,-32,-13,15,30,61,102,48,-12,11,9,12,22,12,-44,-278,-957,-769,856,3372,3953,730,-749,-577,-676,-806,-774,-759,-742,-591,-529,-564,-549,-533,-526,-522,-435,-433,-383,-320,-268,-201,-138,-96,-31,15,7,41,2,-68,-88,-104,-96,-61,-50,-47,-58,-21,-35,-61,-67,-78,-131,-155,-171
2018-05-17,15:43:58.100,-102,-69,-19,-9,-26,-61,-48,-13,5,7,26,6,-13,-83,-110,-91,-38,-18,-15,18,60,51,51,55,39,-13,-86,-106,-546,-1061,-334,1587,3245,2043,-380,-556,-573,-740,-765,-737,-714,-664,-654,-601,-550,-555,-561,-590,-625,-502,-520,-557,-519,-453,-371,-251,-179,-75,-91,-77,-49,-106,-163,-215,-258,-284,-301,-310,-304,-300,-313,-336,-275,-205,-200,-236,-227,-149,-91,-75,-58,-27,35,69,95,138,169,196,180,329,449,487,486,496,591,657,648,695,767,747,652,22,-80,1417,3698,4787,2117,463,695,569,430,466,507,591,651,685,738,771,807,846,864,875,901,885,967,1040,1098,1220
2018-05-17,15:43:59.137,1266,1218,1163,1095,996,887,789,710,697,692,688,730,687,634,640,586,645,641,577,544,509,514,520,493,530,464,340,384,345,325,239,195,213,197,232,269,226,249,244,201,188,207,168,162,121,-461,-768,277,2140,3439,1499,-462,-105,-211,-524,-587,-529,-490,-428,-379,-396,-503,-526,-334,-351,-411,-405,-368,-384,-390,-376,-356,-339,-346,-318,-334,-407,-473,-505,-427,-438,-476,-471,-443,-409,-391,-384,-383,-391,-382,-405,-387,-388,-379,-350,-337,-337,-338,-334,-339,-352,-353,-362,-385,-445,-448,-435,-408,-342,-333,-352,-360,-381,-356,-337,-327,-326,-375,-564,-1215,-1311,172,2877,4123,1108,-1134,-934,-1048
2018-05-17,15:44:00.175,-1068,-1092,-1000,-930,-907,-896,-871,-849,-840,-792,-790,-741,-752,-743,-607,-536,-531,-411,-344,-240,-274,-217,-224,-220,-223,-297,-361,-339,-254,-238,-187,-211,-262,-297,-322,-316,-259,-253,-275,-318,-319,-289,-239,-210,-220,-238,-212,-185,-189,-224,-226,-201,-149,-203,-149,-38,-19,-137,-91,-25,-67,-112,-72,-185,-782,-1143,-91,2244,3765,1800,-529,-512,-626,-694,-581,-581,-568,-562,-569,-580,-567,-556,-547,-551,-541,-467,-420,-318,-248,-186,-97,8,72,86,91,81,-19,-128,-175,-186,-219,-207,-195,-165,-149,-169,-159,-166,-157,-169,-182,-173,-130,-128,-158,-114,-62,-68,-49,-68,-74,-49,30,5,24,94,25,15
2018-05-17,15:44:01.212,52,64,57,63,62,7,-320,-976,-531,1262,3616,3678,246,-632,-394,-620,-759,-738,-686,-601,-565,-556,-552,-525,-501,-393,-395,-380,-347,-301,-226,-154,-158,-16,86,62,64,38,-37,-142,-169,-205,-178,-135,-123,-170,-190,-120,-141,-133,-151,-118,-119,-179,-206,-149,-78,-88,-60,-50,5,-15,-56,-24,-7,-61,-88,-17,8,-71,10,72,27,59,39,155,167,136,-43,-752,-967,386,2836,4261,1802,-648,-577,-637,-854,-817,-667,-619,-585,-515,-525,-523,-494,-449,-471,-422,-358,-312,-301,-181,-82,-39,74,171,228,221,161,89,27,-18,-76,-98,-136,-97,-14,-36,-48,-57,-67,-57,8,-6,-28,-36
2018-05-17,15:44:02.249,-54,-13,21,-45,1,104,91,78,62,25,-31,10,45,50,77,110,56,57,113,173,179,163,154,124,-256,-1011,-485,1528,3897,3455,4,-683,-547,-712,-749,-703,-682,-676,-654,-599,-501,-482,-447,-436,-436,-376,-350,-338,-285,-211,-91,-11,1,23,94,71,-3,-57,-70,-39,-136,-124,-66,-40,-19,-14,-59,-52,-29,-3,0,-20,-105,-8,30,67,29,47,135,188,86,32,69,201,163,105,61,153,172,175,128,70,80,37,-2,14,-13,-111,-613,-1012,58,2344,3957,1951,-470,-414,-502,-677,-695,-648,-611,-575,-538,-491,-467,-477,-449,-376,-337,-328,-306,-204,-146,-43,30,85,169,220
2018-05-17,15:44:03.286,235,193,109,5,-85,-137,-187,-189,-172,-147,-137,-104,-81,-84,-75,-57,-73,-67,-54,-68,5,5,21,51,81,87,68,81,102,81,122,186,142,97,92,92,97,79,-35,-11,94,-243,-907,-487,1199,3321,3085,-25,-513,-350,-557,-697,-610,-552,-492,-487,-469,-439,-418,-427,-426,-386,-383,-341,-303,-298,-264,-219,-163,-138,-80,-8,42,4,-75,-84,-89,-68,-70,42,-8,-2,115,114,37,-159,-78,72,33,80,151,143,141,189,184,130,147,136,98,67,11,0,-7,-3,20,26,-83,-17,118,101,89,53,81,65,-90,-701,-944,334,2811,4245,1852,-674,-571,-610,-780,-769,-701,-660
2018-05-17,15:44:04.323,-620,-595,-562,-554,-488,-456,-431,-442,-409,-355,-310,-255,-175,-73,4,71,133,158,141,87,13,-50,-94,-105,-55,-44,-48,-9,5,4,6,-41,-23,40,90,115,114,111,109,104,109,103,97,85,40,56,81,25,17,12,-14,19,58,63,54,27,26,18,1,23,-24,-188,-747,-987,182,2455,3727,1704,-544,-559,-623,-723,-717,-652,-598,-558,-549,-517,-487,-469,-463,-442,-393,-338,-333,-327,-321,-178,-88,-6,93,80,145,213,105,-35,-43,4,-9,-114,-93,145,195,134,140,113,90,172,160,116,75,64,51,20,7,9,8,27,14,-32,-15,53,65,51,74,140,109,47
2018-05-17,15:44:05.360,73,73,28,130,99,50,-91,-568,-933,119,2164,3780,2031,-470,-466,-491,-662,-645,-610,-557,-502,-484,-493,-437,-401,-368,-352,-295,-277,-237,-169,-110,-78,-23,82,147,207,242,250,201,100,-7,-30,-37,-67,17,87,51,-52,-91,-112,-71,-74,-97,-93,-86,-54,-68,-51,52,32,-10,-27,13,-35,-8,-10,-48,-69,-7,48,23,71,26,-33,-10,18,21,-28,-37,-132,-707,-896,232,2276,3216,1009,-539,-392,-553,-757,-655,-611,-501,-437,-469,-497,-432,-342,-469,-322,-295,-356,-366,-278,-240,-285,-173,25,52,93,175,199,176,123,133,136,121,112,100,68,32,-14,-1,-17,-52,-44,-41
2018-05-17,15:44:06.398,10,-24,3,40,67,88,61,99,135,110,114,115,89,74,69,34,17,-7,5,38,97,89,47,50,51,42,64,59,21,-185,-842,-856,655,3290,4396,1487,-637,-566,-678,-781,-730,-671,-631,-581,-570,-533,-471,-429,-412,-367,-274,-204,-216,-222,-157,-92,-54,-11,31,54,75,70,5,-75,-114,-105,-111,-128,-81,-63,-36,-86,-123,-95,-99,-105,-139,-119,-72,-96,-91,-40,-1,18,-8,38,64,37,26,35,29,-4,-2,-3,26,49,69,50,21,-2,14,17,42,50,43,-26,-492,-900,-39,1760,3348,1977,-266,-348,-386,-554,-594,-543,-544,-524,-452,-487,-345,-272,-323,-240,-156,-140
2018-05-17,15:44:07.435,-135,-129,-96,-55,2,47,75,75,126,126,61,-27,-74,-103,-111,-134,-97,-37,-36,-81,-98,-70,-102,-127,-58,-68,-77,-61,-24,-14,-7,-6,15,89,79,4,19,62,48,36,78,39,120,153,104,109,88,98,97,100,82,20,-492,-1035,-24,2085,4091,2613,-427,-474,-455,-660,-617,-548,-502,-436,-443,-429,-428,-432,-391,-382,-380,-337,-332,-310,-285,-258,-277,-139,15,22,7,-23,-25,-50,-84,-95,-90,-102,-91,-43,-52,-100,-88,-59,-49,-87,-181,-63,-50,-36,-88,-52,50,-5,-21,8,17,-5,0,-63,-22,50,46,78,-8,-24,-52,-6,124,87,94,97,98,49,39,-28
2018-05-17,15:44:08.472,6,92,-340,-957,-266,1842,4208,3267,-99,-455,-389,-622,-689,-669,-634,-612,-595,-590,-583,-579,-607,-593,-392,-356,-412,-334,-290,-243,-154,-64,3,55,126,167,112,115,169,163,91,48,22,34,36,-63,-20,12,1,-8,-37,-64,-5,35,26,12,93,96,107,121,116,124,121,100,111,117,83,55,38,35,33,90,121,120,100,93,108,122,161,131,89,106,-507,-961,114,2475,4032,2080,-598,-632,-663,-807,-809,-784,-763,-743,-695,-630,-603,-579,-519,-526,-515,-482,-416,-389,-387,-338,-196,-135,-85,-27,-42,-13,-15,-58,-125,-130,-98,-53,0,-19,-39,-15,-23,-22,-11,-8,-25,-10
2018-05-17,15:44:19.333,3144,2805,428,-68,-139,-367,-310,-213,-187,-157,-243,-291,-359,-431,-276,-275,-355,-215,90,27,-8,-3,-38,-29,0,49,61,20,-36,-135,-213,-289,-342,-367,-401,-418,-429,-440,-453,-469,-469,-460,-426,-410,-396,-348,-322,-335,-299,-271,-243,-271,-319,-275,-215,-159,-167,-213,-236,-280,-188,-122,-167,-200,-230,-572,-1192,-774,1094,3569,3232,107,-537,-486,-700,-714,-649,-620,-656,-698,-647,-614,-629,-704,-754,-804,-648,-457,-490,-476,-479,-312,-247,-229,-274,-274,-155,-189,-284,-390,-454,-396,-314,-374,-375,-384,-371,-329,-287,-311,-313,-279,-235,-170,-170,-127,-255,-162,68,-51,-46,-51,-221,-181,-86,152,165,2
2018-05-17,15:44:20.395,-89,-175,-209,-58,-10,-121,-150,-409,-879,-37,1917,3621,2273,-267,-434,-497,-713,-763,-743,-693,-675,-643,-620,-593,-529,-536,-543,-498,-469,-441,-398,-375,-294,-215,-228,-184,-204,-97,-5,-114,-237,-249,-219,-297,-294,-342,-331,-303,-336,-329,-142,-183,-219,-193,-141,-128,-101,-96,-93,-99,-114,-130,-123,-123,-99,37,112,45,47,119,150,167,221,234,153,-296,-872,-36,1902,3677,2305,-408,-465,-417,-595,-705,-749,-621,-548,-549,-593,-484,-421,-381,-313,-367,-342,-336,-292,-218,-145,-144,-52,-40,-49,-11,-1,-71,-144,-250,-296,-247,-224,-259,-128,-75,-71,-114,-200,-99,-49,-158,-113,156,90,-442,-527,-412
2018-05-17,15:44:21.432,-584,-243,689,669,468,349,262,204,169,149,88,51,47,-78,-654,-1080,39,2290,4058,2167,-660,-537,-587,-812,-887,-791,-659,-713,-546,-444,-437,-455,-446,-399,-383,-348,-201,-199,-154,-41,-28,-71,73,154,167,117,86,12,-27,-67,-90,-110,-77,-114,-86,-38,-75,-121,-61,164,254,282,349,366,320,241,147,188,128,-32,50,163,74,39,-48,-76,-133,-59,-22,-65,-162,-651,-1137,-302,1786,3268,1825,-398,-461,-470,-695,-711,-652,-493,-452,-464,-461,-399,-445,-441,-418,-359,-254,-246,-239,-253,-94,26,20,16,102,166,139,154,182,-69,-149,74,31,42,38,-186,87,275,203,141,215,278
2018-05-17,15:44:22.469,219,218,179,230,170,121,86,53,64,66,100,81,4,-48,-82,-95,-84,-92,-108,-160,-480,-1056,-593,1087,2993,2527,-245,-454,-301,-556,-652,-550,-431,-377,-409,-472,-416,-336,-306,-286,-256,-237,-260,-191,-73,17,63,131,266,315,299,286,237,195,105,42,9,6,25,-46,-86,-76,-94,-67,-158,-282,-156,-90,-31,-8,-63,-97,-66,-63,-63,-23,43,34,-148,-74,208,199,61,-6,19,-15,-424,-896,-172,1315,2692,1743,-282,-201,-288,-544,-500,-581,-505,-486,-658,-428,2,81,-57,-164,-229,-248,-388,-156,-59,-58,177,238,222,278,324,303,207,95,-8,-92,-64,-118,-163,-164,-191,-199
2018-05-17,15:44:23.507,-205,-214,-220,-199,-170,-167,-166,-168,-143,-129,-149,-212,-133,49,99,61,2,-14,-9,69,116,126,91,30,-534,-1049,88,2305,3810,1758,-562,-380,-417,-561,-533,-497,-442,-401,-382,-401,-358,-359,-314,-104,28,77,23,56,121,134,180,228,124,108,93,-108,-219,-163,-261,-185,-208,-231,-250,-253,-227,-221,-208,-182,-226,-130,-128,-148,-129,-114,-67,-88,-109,-70,-6,-20,68,39,-54,166,218,114,80,84,137,-5,-618,-524,989,2932,2871,250,-416,-329,-476,-540,-562,-471,-429,-423,-383,-122,19,-50,-13,2,-32,-67,-41,-37,30,75,51,141,158,151,124,31,-106,-209,-273,-288,-287,-272
2018-05-17,15:44:24.544,-263,-263,-223,-260,-226,-231,-311,-242,-140,-52,19,-119,-197,-65,24,73,43,105,125,137,159,138,165,160,167,171,76,-472,-990,-26,2128,4188,2690,-239,-312,-256,-351,-309,-229,-134,-162,-244,-286,-249,-179,-254,-311,-339,-230,-263,-125,-118,-154,-141,-164,-252,-129,-132,-210,-78,-201,-327,-243,-188,-281,-306,-276,-277,-281,-241,-265,-268,-202,-204,-145,-67,-139,-162,-88,-12,-74,-157,49,105,-3,-140,159,405,281,124,135,125,-235,-1015,-823,1241,3463,3060,73,-211,-70,-323,-396,-378,-375,-373,-356,-313,-302,-324,-304,-281,-262,-243,-253,-231,-173,-123,-103,-49,7,17,1,-31,-114,-208,-211,-226
2018-05-17,15:44:25.581,-233,-208,-196,-240,-198,-141,-89,-132,-125,-24,3,-132,-78,-25,-8,17,-31,0,-6,29,156,183,126,0,48,88,118,151,77,-134,-671,-959,337,3177,5356,2924,-359,-381,-390,-579,-694,-775,-674,-514,-501,-563,-549,-554,-665,-685,-570,-531,-631,-503,-374,-276,-84,-63,-37,-16,-104,-246,-278,-154,-154,-247,-265,-210,-203,-185,-183,-121,-129,-184,-151,-8,70,83,-120,-126,-110,-78,150,204,-3,282,473,285,172,179,149,140,224,262,133,-54,-475,-43,1773,4258,4012,256,-423,-174,-426,-545,-537,-513,-495,-503,-516,-511,-502,-491,-497,-526,-509,-450,-401,-341,-249,-208,-108,3,71,74,6,-77
2018-05-17,15:44:26.618,-216,-288,-280,-248,-166,-117,-160,-142,-106,-95,-64,-57,-32,-31,-32,0,-16,-36,-21,-52,-42,50,135,232,232,255,267,354,423,420,374,351,221,-481,-839,417,2775,3900,1361,-701,-404,-528,-696,-719,-774,-752,-698,-631,-588,-496,-544,-466,-500,-441,-353,-366,-307,-234,-128,-121,-75,-18,41,24,-41,-108,-163,-154,-152,-191,-113,-21,-29,-38,-139,-51,-30,26,120,34,2,-89,-174,-174,-55,275,338,303,305,348,263,179,138,127,95,80,-20,-419,-1049,-370,1542,3809,3031,-468,-616,-496,-727,-800,-765,-710,-668,-657,-628,-438,-376,-418,-418,-363,-323,-233,-160,-92,10,-109,-29,119,137,161
2018-05-17,15:44:27.655,148,66,-11,-62,-124,-102,-169,-136,20,156,103,23,-43,36,95,96,115,212,305,350,313,382,333,207,285,294,196,85,66,116,-78,10,22,-157,-808,-1134,-23,2256,3644,1602,-699,-665,-706,-792,-834,-784,-684,-633,-635,-546,-572,-490,-408,-501,-577,-474,-358,-535,-403,-340,-110,79,-169,210,369,245,40,29,-22,-138,-194,39,46,153,288,220,237,310,285,222,186,148,132,119,66,80,113,112,128,166,173,119,60,26,2,-13,-42,-48,-62,-378,-1035,-733,905,2996,2566,-288,-582,-352,-617,-691,-618,-510,-485,-467,-388,-336,-367,-391,-350,-283,-225,-220,-149,-85,113,156,285,430
2018-05-17,15:44:28.692,398,334,292,172,124,93,-18,-26,59,-30,-43,45,-47,-75,-112,-150,-107,-132,-198,-124,-113,-132,-184,-197,-228,-240,-161,-57,-27,-20,-67,-99,-73,-61,11,-81,-148,-352,-937,-559,892,2414,2011,-103,-332,-318,-472,-446,-418,-421,-510,-320,-264,-319,-154,-169,-140,-138,-205,-291,-305,-94,172,283,432,513,519,488,443,329,165,57,-26,-49,-53,-73,-94,-89,-120,-155,-199,-181,-188,-225,-201,-185,-207,-198,-199,-187,-166,-105,-38,-8,-37,-28,40,61,45,17,48,26,-243,-881,-335,1307,3328,2944,51,-403,-359,-458,-496,-513,-494,-477,-508,-450,-368,-319,-269,-179,-75,17,25,58,120,137
2018-05-17,15:44:29.730,144,183,240,98,-36,-176,-202,-99,-117,-159,-191,-278,-278,-237,-260,-284,-340,-383,-331,-283,-212,-226,-254,-284,-261,-214,-250,-299,-272,-263,-236,-219,-214,-158,-87,-224,-270,-220,-294,-298,-718,-1126,-294,1601,3031,1591,-628,-672,-707,-999,-1042,-770,-630,-681,-554,-551,-500,-473,-515,-534,-574,-547,-502,-468,-414,-356,-287,-250,-199,-164,-206,-293,-394,-488,-567,-585,-533,-493,-470,-444,-429,-428,-423,-421,-334,-271,-269,-183,-122,-90,-31,-42,-62,0,81,174,232,255,246,274,267,222,326,499,334,-163,-498,661,2852,4766,2833,111,217,296,243,332,309,294,294,305,299,290,296,421,374,513,546,513
2018-05-17,15:44:30.767,582,678,707,703,828,858,873,889,805,704,644,621,579,683,722,627,633,597,533,684,652,557,581,651,693,708,647,585,626,738,686,601,746,618,566,748,703,577,438,410,462,495,-217,-595,500,2699,4694,2676,-390,-229,-300,-559,-606,-554,-531,-537,-505,-491,-505,-505,-504,-523,-503,-471,-467,-453,-402,-361,-326,-143,-35,-130,-215,-249,-374,-376,-392,-363,-426,-430,-466,-333,-331,-366,-333,-324,-339,-342,-352,-314,-280,-187,-189,-213,-132,-189,-138,-2,135,174,146,70,97,78,38,-27,-97,-621,-1414,-879,1300,3622,2941,-349,-894,-843,-1045,-1070,-1021,-945,-888,-852,-817,-722,-735,-796,-716,-700
2018-05-17,15:44:31.804,-616,-610,-566,-461,-342,-289,-269,-188,-166,-167,-200,-203,-297,-427,-349,-238,-230,-336,-262,-272,-156,-251,-61,-31,-240,-105,-202,-187,-17,-190,104,161,196,259,317,255,156,83,42,3,-3,-1,-9,-252,-964,-919,657,2906,3424,291,-853,-467,-685,-818,-742,-663,-640,-582,-541,-510,-462,-419,-382,-319,-285,-268,-177,-94,-81,27,131,149,203,258,242,167,52,-73,-115,-108,-108,-95,-94,-90,-39,-6,-2,-34,16,80,118,152,92,78,83,121,127,146,176,149,79,205,280,146,117,128,57,-508,-992,-73,1704,3377,2153,-284,-271,-347,-574,-551,-551,-493,-494,-424,-386,-450,-374,-364,-405,-437
2018-05-17,15:44:32.841,-381,-348,-337,-249,-220,-105,-62,-106,-16,48,-51,-126,-125,-93,-148,-153,-231,-140,-30,0,-66,-126,-94,-71,-132,-166,-189,-210,-204,-183,-165,-139,-79,-7,23,-19,-67,-62,-58,-62,-55,-65,-100,-460,-1051,-542,1135,3152,2654,-215,-490,-422,-611,-639,-599,-562,-558,-507,-503,-460,-423,-414,-481,-500,-407,-197,-205,-191,-218,37,249,256,245,241,237,179,38,-56,16,-71,-164,-162,-173,-183,-191,-170,-176,-150,-122,-102,-164,-185,-175,-149,-127,-103,-60,-45,18,-13,-14,12,64,60,1,-53,-85,-163,-716,-972,81,2138,3038,1038,-587,-491,-582,-641,-569,-524,-451,-465,-552,-494,-232,-238,-369,-349
2018-05-17,15:44:33.878,-354,-428,-314,-103,-13,105,282,488,510,568,611,494,303,127,6,-76,-114,-132,-122,-127,-144,-196,-253,-273,-290,-299,-257,-234,-248,-245,-219,-170,-108,-128,-35,-5,-14,-48,-61,4,98,127,26,-377,-984,-357,1286,3268,2698,-336,-427,-341,-583,-636,-561,-515,-546,-431,-412,-475,-401,-296,-208,-186,-135,-25,33,148,312,368,365,398,385,294,204,-111,-255,-249,-223,-271,-217,-225,-285,-342,-305,-350,-345,-206,-239,-254,-224,-191,-153,-192,-170,-138,-117,82,0,-37,10,40,-26,-55,-77,-58,-124,-662,-745,513,2405,3077,656,-396,-323,-497,-586,-615,-554,-529,-679,-749,-416,-134,-261,-286,-141,-110
2018-05-17,15:44:34.916,-125,-86,-104,-90,-28,18,37,62,45,-10,-108,-231,-353,-420,-408,-432,-437,-488,-487,-446,-434,-465,-435,-398,-431,-406,-342,-277,-231,-280,-282,-162,-84,-29,-43,-49,-52,-61,-60,-3,0,-38,-388,-1035,-437,1616,4169,3547,-146,-504,-339,-528,-468,-287,-268,-362,-348,-268,-225,-202,-227,-222,-143,-153,-37,80,26,144,284,298,336,353,392,435,321,160,46,79,149,264,286,247,249,246,199,228,309,307,360,365,397,475,462,516,601,596,554,604,639,678,629,671,840,868,829,528,-180,-58,1264,3258,3535,992,304,462,365,274,158,274,281,207,144,105,105,102,-2,231,275,222
2018-05-17,15:44:35.953,184,163,207,260,307,341,375,360,296,191,82,5,-34,-23,1,0,-63,-90,-40,-17,-123,-143,-75,-67,-119,-102,-82,-192,-239,-139,-38,-51,110,52,-1,-97,-125,-112,-59,33,-6,-236,-1049,-1125,657,3551,4788,1208,-1149,-847,-1028,-1178,-1004,-1005,-1247,-907,-767,-774,-847,-816,-910,-816,-737,-826,-727,-535,-511,-603,-480,-332,-325,-317,-386,-310,-366,-628,-823,-524,-492,-575,-617,-353,-243,-391,-222,-325,-567,-216,-348,-323,-200,-308,-91,89,-70,-62,-109,-122,-110,-136,-62,11,-44,-28,57,40,-327,-1090,-761,1117,3715,3720,216,-915,-656,-855,-937,-914,-905,-843,-843,-844,-826,-804,-786,-725,-622,-623
2018-05-17,15:44:36.990,-562,-443,-349,-241,-180,-102,14,113,186,92,4,-124,-220,-276,-342,-314,-255,-278,-281,-285,-254,-260,-337,-136,-81,-60,-49,-61,-11,62,126,132,129,276,233,110,133,152,109,37,-98,-210,-771,-1065,374,2672,4031,1348,-814,-466,-613,-879,-783,-539,-468,-542,-495,-493,-445,-473,-414,-330,-335,-351,-289,-321,-203,-15,-8,-72,113,172,57,138,13,-81,29,-8,39,-59,-27,57,50,29,-46,-23,-126,-156,42,83,245,206,241,207,139,337,452,337,187,74,66,87,24,-28,10,-418,-1038,-331,1621,3699,2590,-467,-662,-549,-722,-755,-693,-657,-648,-586,-549,-561,-495,-414,-416,-378,-349,-377
2018-05-17,15:44:38.027,-314,-313,-297,-260,-31,1,26,111,57,-142,-144,-162,-173,-1,-34,-120,-113,-115,-104,24,92,65,58,102,107,-21,-95,-80,-32,46,51,89,81,22,-58,-51,0,10,-8,-141,-187,-521,-960,-103,1764,3341,1876,-535,-358,-471,-710,-529,-475,-497,-562,-517,-480,-475,-429,-364,-491,-286,-242,-175,-205,-90,-128,-152,50,156,258,263,145,-73,-172,55,238,246,31,53,105,169,165,120,34,-36,-103,-56,-33,75,41,0,-31,-78,-85,-59,4,-1,-66,-68,-97,-68,-92,-137,-27,-51,-582,-979,-13,2116,3303,1471,-500,-392,-625,-621,-410,-387,-394,-390,-381,-438,-512,-240,-336,-480,-185,68
2018-05-17,15:44:39.064,-102,-50,115,158,267,238,495,679,641,594,455,224,91,-28,-163,-249,-437,-347,-381,-286,-232,-424,-448,-413,-417,-396,-436,-348,-275,-190,-256,-257,-253,-151,-377,-281,6,-32,-122,-51,-113,-188,-362,-782,-877,43,1685,2441,858,-237,-275,-548,-508,-371,-366,-382,-397,-246,-227,-174,-305,-164,-199,-7,-45,218,256,437,604,606,586,602,628,561,388,211,82,-39,-144,-240,-292,-299,-339,-394,-414,-432,-417,-346,-301,-283,-255,-238,-212,-171,-178,-102,62,103,87,48,32,62,77,88,78,84,-292,-852,-437,992,2631,2549,352,-186,-187,-323,-477,-311,-326,-151,-65,-12,73,-16,-70,-76,-106,-78
2018-05-17,15:44:40.101,-69,-19,-200,-249,-178,-181,-76,-29,-37,-57,-204,-428,-471,-582,-707,-529,-454,-547,-581,-537,-532,-586,-578,-490,-494,-452,-394,-333,-354,-442,-485,-351,-252,-408,-210,9,-15,-38,-85,6,-23,-96,-1,-147,-761,-1120,199,2426,3051,653,-110,168,133,4,28,91,25,8,-25,-45,-52,-24,-44,-62,-22,17,72,142,204,274,348,430,516,529,497,456,376,267,233,301,284,123,179,305,357,358,389,481,547,513,551,629,698,729,732,778,780,907,1013,1027,915,980,1109,1099,933,1056,1242,1139,388,-99,1437,3819,5229,2700,200,460,399,111,238,353,306,418,464,433,461,475,419,412
2018-05-17,15:44:41.139,411,445,483,521,557,604,695,786,795,825,857,727,553,463,379,325,145,162,280,264,179,87,261,264,124,111,263,68,0,180,137,-44,-49,-41,-46,279,190,44,205,174,14,-23,-71,-278,-921,-1363,-226,2154,3959,1680,-1196,-924,-973,-1190,-1224,-1163,-1095,-1071,-1051,-1052,-1047,-995,-964,-930,-875,-834,-819,-791,-685,-602,-503,-437,-390,-354,-331,-417,-486,-553,-624,-745,-882,-660,-437,-558,-644,-551,-543,-611,-588,-596,-472,-384,-332,-329,-350,-353,-352,-315,-251,-249,-279,-291,-269,-260,-249,-235,-264,-244,-406,-1062,-1062,393,2859,3520,656,-794,-601,-750,-779,-711,-612,-583,-580,-541,-489,-509,-493,-390
2018-05-17,15:44:42.176,-408,-318,-280,-377,-229,-110,-18,46,152,213,154,76,218,182,-69,-241,-167,-203,-73,78,182,133,-36,113,99,37,14,-55,-87,-58,-103,-120,-66,-29,29,69,35,-15,-25,-4,-36,-48,-67,-73,-190,-712,-1125,-130,1984,3659,1818,-815,-476,-464,-643,-548,-575,-482,-459,-477,-388,-256,-311,-331,-245,-166,-141,-90,-10,72,152,273,349,413,471,490,406,301,74,58,151,181,150,83,43,30,3,-57,-131,-111,24,-2,94,175,150,102,83,234,260,285,316,246,267,363,274,214,254,218,132,-250,-635,-26,1545,3153,2282,-105,-209,-135,-246,-263,-286,-233,-261,-164,-164,-36,-57,-234
2018-05-17,15:44:43.213,-207,29,10,-64,-239,-30,50,175,378,326,358,457,389,228,33,-115,-147,-178,-226,-252,-276,-278,-283,-296,-309,-350,-320,-329,-341,-312,-275,-249,-247,-274,-270,-205,-118,-118,-162,-163,-169,-177,-133,-158,-207,-313,-896,-1111,151,2499,3488,831,-841,-600,-665,-761,-734,-735,-802,-812,-478,-414,-458,-388,-429,-446,-425,-355,-313,-263,-216,-154,-38,-44,-156,-181,-72,-60,-156,-349,-454,-437,-460,-445,-444,-426,-401,-436,-422,-375,-353,-351,-297,-295,-251,-149,-146,-182,-171,-113,-24,18,-3,-52,-121,12,-4,18,-46,-131,-591,-1117,20,1965,3388,1642,-611,-602,-482,-581,-488,-635,-361,-464,-423,-371,-449,-467
2018-05-17,15:44:44.250,-473,-475,-471,-498,-453,-332,-243,-178,-151,-101,-39,23,5,-82,-272,-390,-431,-483,-493,-540,-562,-524,-485,-587,-485,-456,-425,-323,-301,-353,-321,-261,-326,-342,-252,-201,-145,-113,-262,-214,-97,-57,27,31,-48,-101,-492,-1343,-636,1537,4287,4104,-180,-760,-549,-763,-847,-807,-793,-883,-910,-869,-756,-539,-381,-518,-607,-561,-449,-385,-420,-369,-141,-18,-33,-47,25,-26,-134,-218,-252,-219,-223,-215,-231,-290,-208,-132,-26,18,-33,-179,30,162,121,-46,172,208,231,158,199,125,123,129,416,486,392,277,358,350,118,-530,-982,137,2749,4544,2232,-601,-481,-481,-641,-604,-568,-514,-483,-469,-424,-400
2018-05-17,15:44:45.287,-364,-311,-273,-251,-213,-88,-7,38,123,209,269,264,422,581,501,241,97,106,68,58,121,164,183,5,216,103,226,389,378,348,311,316,400,415,384,393,429,483,521,472,355,377,361,317,256,250,394,129,-589,-381,1246,3653,3591,310,-421,-222,-240,-281,-233,-292,-215,-192,-204,-122,-32,-73,-145,-175,-199,-102,118,143,135,280,259,276,247,315,548,396,194,185,149,100,77,79,4,-65,92,250,149,59,228,223,263,191,78,7,-27,-9,-8,6,45,21,-40,-10,-50,-145,-141,-131,-171,-289,-820,-1151,-174,1676,2871,1154,-726,-515,-650,-833,-718,-546,-483,-549,-563,-539
2018-05-17,15:44:46.325,-490,-490,-574,-517,-375,-443,-333,-116,-160,-307,-147,158,254,196,82,-62,-204,-152,-132,-208,-122,-246,-295,-317,-382,-412,-405,-375,-456,-399,-434,-354,-229,-212,-314,-258,-173,-247,-236,-149,-3,-25,-75,3,-12,-75,-28,-77,20,13,-512,-1034,12,1955,3078,1033,-477,-162,-287,-477,-454,-410,-380,-227,-409,-254,-72,-172,-95,-62,-36,-227,-127,62,273,464,501,480,497,627,578,379,154,-17,-180,-220,-222,-252,-253,-286,-287,-302,-335,-361,-343,-343,-319,-303,-292,-272,-226,-212,-266,-28,92,68,-50,49,63,76,21,0,88,-10,-555,-862,183,2159,3418,1518,-305,-104,-346,-367,-234,-194,-365,-321
2018-05-17,15:44:47.362,-158,-51,-102,22,46,-20,138,297,330,301,357,342,348,551,535,495,466,281,169,114,19,119,123,171,55,-21,137,140,120,112,95,210,224,149,251,266,232,283,382,421,343,370,339,369,495,359,510,436,544,452,-8,-522,-79,1286,3417,2971,319,-96,-34,-295,-471,-283,-249,-165,-188,-101,82,-25,-126,-108,-145,-170,-111,-43,4,80,152,192,167,130,89,-37,-225,-350,-458,-512,-519,-528,-517,-504,-534,-519,-517,-558,-542,-447,-433,-409,-391,-361,-372,-424,-373,-261,-267,-216,-233,-286,-268,-316,-337,-166,-280,-483,-345,-883,-1000,474,3000,3771,639,-1043,-779,-678,-937,-1000,-896,-990
2018-05-17,15:44:48.399,-847,-732,-784,-912,-838,-705,-639,-653,-616,-451,-439,-436,-257,-203,48,72,74,-95,-237,-381,-461,-357,-418,-499,-387,-467,-392,-334,-299,-258,-324,-304,-138,-147,-98,-4,-51,-284,-166,73,99,-39,-29,61,-25,-70,-106,-77,112,72,78,-35,-702,-1000,332,2597,3719,1259,-816,-565,-686,-758,-755,-668,-636,-670,-651,-634,-649,-617,-603,-572,-567,-494,-504,-326,-215,-150,-101,-75,4,48,40,-92,-278,-368,-297,-391,-406,-456,-352,-249,-259,-375,-620,-204,-40,-214,-143,-147,-94,-75,-98,-120,-112,46,283,102,-128,40,70,20,-1,-73,-100,-132,-516,-1113,-802,879,3037,2651,-247,-714,-538,-751,-778,-793
2018-05-17,15:44:49.436,-607,-586,-521,-522,-473,-476,-493,-368,-252,-336,-290,-197,-150,-36,89,119,217,254,151,144,138,-3,-29,-112,-109,-90,-109,113,52,-45,-94,-199,-255,-153,-182,37,105,129,172,235,316,223,464,528,329,177,94,119,96,50,15,-24,-238,-957,-1047,450,2839,3563,721,-876,-559,-674,-775,-812,-840,-683,-489,-426,-431,-462,-432,-416,-434,-339,-237,-124,-60,0,87,296,330,325,327,259,118,-24,-141,-212,-216,-198,-136,-119,-74,-39,-99,-92,-81,-105,-138,-90,-95,-86,-82,-52,-42,56,168,211,167,85,115,156,173,247,235,132,-230,-705,61,1790,3539,2561,-141,-83,-49,-193,-183,-122
2018-05-17,15:44:50.473,-70,38,99,48,123,239,265,331,282,380,377,359,761,978,875,965,868,1139,1120,971,803,587,742,795,762,768,735,687,636,551,475,487,515,520,435,506,578,587,573,588,623,658,630,591,624,676,626,550,425,471,672,287,-456,359,2323,4303,2982,22,-3,69,-146,-230,-134,-111,-55,-90,-61,-49,-91,-32,-48,-38,-128,-31,82,223,304,431,487,474,452,342,163,46,-80,-180,-243,-283,-311,-377,-414,-373,-366,-428,-434,-382,-310,-390,-390,-347,-379,-448,-446,-333,-272,-301,-291,-285,-281,-313,-326,-322,-328,-353,-387,-861,-1405,-630,1354,3132,2012,-683,-683,-708,-960,-969,-882,-758
2018-05-17,15:44:51.510,-864,-723,-556,-650,-739,-691,-778,-570,-570,-211,-83,-92,3,123,92,123,104,-26,-219,-443,-501,-583,-669,-686,-698,-702,-707,-733,-732,-742,-728,-734,-737,-719,-754,-772,-593,-443,-597,-531,-436,-391,-343,-356,-325,-371,-457,-396,-342,-320,-1055,-1475,-180,2077,3630,1097,-995,-722,-621,-908,-896,-709,-739,-813,-805,-547,-468,-512,-545,-553,-503,-478,-458,-393,-328,-274,-222,-288,-158,-93,-120,-220,-329,-428,-457,-367,-397,-281,-322,-285,-330,-317,-291,-234,-202,-256,-187,-76,-110,-127,-140,-15,131,-56,25,215,184,163,11,-45,219,299,270,-31,-858,-512,1150,3306,3116,-13,-710,-108,-357,-475,-472,-386,-235,-216
2018-05-17,15:44:52.548,-313,-307,-263,-295,-356,-194,-152,-101,-60,28,104,153,214,275,288,211,58,-107,-225,-281,-311,-277,-244,-189,-204,-170,-155,-186,-111,-49,-31,22,77,144,159,170,194,163,216,394,366,211,511,672,546,569,532,475,259,-486,-328,1487,4161,4598,946,-308,-5,-175,-305,-195,-163,-144,-172,-165,-99,-30,3,63,37,11,165,218,343,462,547,526,644,561,594,521,433,183,49,132,134,53,98,202,215,82,139,220,148,43,123,265,263,194,162,-48,87,374,727,512,270,254,420,448,346,292,310,265,-106,-804,-421,1505,3810,3340,-66,-707,-431,-641,-747,-738,-716,-725,-736,-688
2018-05-17,15:44:53.585,-649,-650,-652,-613,-541,-480,-452,-355,-233,-145,-28,84,150,119,96,4,-156,-282,-364,-495,-570,-511,-514,-495,-462,-455,-468,-464,-488,-524,-385,-326,-259,-279,-307,-289,-218,-131,-94,-65,-93,-81,-171,-229,-260,-267,-215,-375,-1112,-1271,164,2657,3605,440,-939,-623,-806,-945,-872,-831,-830,-879,-835,-664,-674,-666,-654,-614,-521,-497,-477,-384,-257,-197,-166,-31,11,24,-49,-149,-277,-495,-365,-57,-232,-503,-195,9,-83,-205,-242,-379,-360,-175,-106,-99,-61,-52,-184,-114,96,166,72,-14,-43,-92,-61,-49,-122,-194,-739,-1275,-331,1703,3637,2134,-630,-606,-682,-879,-899,-846,-801,-750,-667,-582,-604,-544
2018-05-17,15:45:03.608,271,95,25,102,11,-91,-168,-432,-1241,-1327,450,3552,4737,921,-1297,-945,-1069,-1225,-1174,-1102,-1046,-1051,-1015,-966,-910,-840,-816,-819,-733,-650,-552,-439,-304,-176,-96,-47,-9,12,-83,-251,-388,-431,-461,-499,-486,-455,-385,-296,-334,-362,-80,95,91,18,-47,-445,49,414,290,138,190,134,156,151,3,-58,-126,-80,20,-167,-679,-1007,-23,1780,3127,1271,-798,-545,-537,-714,-668,-445,-512,-588,-533,-445,-347,-360,-377,-435,-430,-366,-226,-100,37,254,350,432,519,416,417,400,298,131,57,58,96,13,-67,-87,-92,-64,-115,-183,-283,-305,-237,-232,-317,-251,-148,-76,-83,-102,-116,-103,-7,-2
2018-05-17,15:45:03.957,62,63,-168,-806,-716,653,2903,3823,912,-425,-334,-503,-618,-615,-640,-601,-499,-514,-461,-402,-313,-166,-92,82,234,397,635,825,949,1097,1098,1098,867,603,754,708,543,388,265,124,103,38,-97,-223,-349,-364,-520,-628,-614,-657,-666,-618,-592,-525,-378,-310,-408,-451,-415,-267,-166,-239,-396,-406,-885,-940,0,2038,3537,1142,-437,-385,-524,-569,-606,-639,-459,-335,-312,-263,-199,-239,-312,-198,-109,-150,-138,-44,26,37,108,68,71,126,32,-139,-181,-176,-240,-249,-255,-295,-337,-313,-301,-309,-325,-367,-393,-364,-359,-356,-296,-236,-199,-162,-83,-76,-91,-107,-74,0,21,23,-119,-151,-505,-132
2018-05-17,15:45:04.995,1351,3818,3503,287,42,338,143,-225,-551,-390,-129,-61,-428,-505,-413,-365,-417,-482,-585,-535,-449,-513,-555,-519,-493,-452,-395,-259,-220,-284,-185,-278,-408,-255,-243,-376,-241,-265,-408,-273,-284,-358,-373,-309,-130,-105,-374,-58,218,245,195,212,248,146,49,88,104,52,39,-343,-1190,-1032,955,3800,3846,155,-962,-691,-831,-905,-834,-689,-666,-732,-654,-521,-422,-305,-175,-114,-57,-27,-8,-14,-51,-31,54,203,326,332,222,126,61,-96,-9,-53,-72,96,48,41,162,236,137,17,50,34,15,168,121,60,51,-11,100,86,7,-9,35,-41,-149,-115,-20,-161,-799,-778,517,2452,2206,-237
2018-05-17,15:45:06.032,-257,145,-290,-644,-532,-416,-644,-394,-117,-30,-115,-335,-586,-550,-277,-160,-234,150,355,407,504,634,635,635,547,352,150,94,-5,-125,-183,-155,-206,-278,-312,-347,-399,-391,-368,-366,-356,-354,-369,-338,-329,-202,-102,-54,-78,-49,25,18,3,5,-131,-562,-914,26,1939,3089,1228,-357,-55,-170,-375,-34,191,154,-177,23,437,474,279,290,105,198,281,472,477,353,369,574,480,561,559,472,325,111,44,21,26,142,236,330,251,271,432,525,369,410,365,516,777,789,692,886,987,924,802,755,989,1143,1106,1268,1276,1090,526,202,1448,3724,5415,2903,391,660,603,378,268,392
2018-05-17,15:45:07.069,427,442,456,531,579,612,662,653,715,767,817,933,1079,1165,1245,1316,1390,1399,1363,1313,1188,1073,994,911,862,825,759,756,764,739,692,630,482,794,731,720,711,613,423,297,444,421,307,24,2,46,-205,-194,-250,-468,-951,-1753,-1171,828,2938,1656,-1290,-1341,-1290,-1568,-1591,-1609,-1585,-1570,-1487,-1470,-1499,-1541,-1509,-1441,-1389,-1396,-1559,-1394,-1254,-1119,-850,-1203,-1248,-801,-942,-961,-972,-1046,-1087,-936,-899,-1012,-1059,-1027,-1017,-1085,-1119,-1074,-1134,-1175,-1168,-1246,-1193,-1144,-1113,-1080,-997,-994,-933,-859,-833,-835,-791,-790,-926,-1462,-1272,85,2273,2640,-122,-995,-886,-1025,-1105,-1072,-1037,-1039,-1028,-1006,-743,-682
2018-05-17,15:45:08.106,-749,-801,-690,-696,-560,-401,-154,48,208,50,-239,-57,626,419,-119,-135,0,-148,-280,-289,-201,-288,-245,-279,-301,-338,-424,-548,-455,-345,-375,-396,-358,-171,-1,33,-204,-64,20,35,-15,-120,-103,-303,-789,-158,1140,2678,2143,-211,-588,-184,-347,-679,-512,-6,-29,-212,-304,-287,-331,-336,-325,-268,-234,-176,-177,-81,4,43,11,-24,-72,-134,-237,-398,-396,-399,-399,-375,-319,-338,-349,-316,-308,-340,-308,-218,-263,-225,-202,-199,-138,-165,-91,36,40,43,66,-33,-59,466,323,334,451,79,-698,-185,1764,4040,3159,57,-327,-218,-451,-586,-366,-356,-349,-296,-234,-252,-191,-231,-269,-201,-181,-161
2018-05-17,15:45:09.143,2,-44,112,207,260,253,604,513,472,198,48,214,401,441,384,312,352,244,240,347,235,379,467,475,505,509,234,182,784,837,638,535,423,350,397,326,282,244,229,-91,-794,-511,1316,3733,3669,211,-537,-190,-334,-400,-293,-213,-222,-161,-145,-100,-105,-70,-77,-51,-5,27,85,123,158,278,405,455,539,597,379,211,407,644,564,490,278,-25,305,441,287,73,-194,54,181,187,154,55,13,76,60,42,24,-73,-110,-133,-137,-194,-97,-414,-905,-338,780,2763,2862,70,-447,-498,-849,-757,-488,-572,-485,-528,-915,-726,-476,-589,-524,-274,-236,-230,-109,36,93,150,265,262
2018-05-17,15:45:10.181,199,116,-97,-344,-545,-751,-856,-875,-846,-892,-881,-859,-849,-857,-813,-735,-713,-696,-634,-533,-474,-405,-301,-173,-203,-240,-250,-270,-266,-208,-260,-299,-863,-1119,-13,1895,2907,842,-852,-263,-99,-140,-147,-312,-227,-393,-589,-685,-160,-220,-405,-281,-230,-298,-342,-250,-110,-151,63,105,12,164,55,-229,-246,-188,-269,-98,-83,-93,-84,-201,-192,-45,-64,-170,-313,47,148,0,-175,-40,11,-70,170,326,0,231,537,481,386,84,-719,-880,707,3662,4880,1180,-741,-504,-698,-720,-614,-656,-589,-535,-526,-517,-434,-370,-318,-321,-266,-195,-138,-44,26,81,214,250,287,319,276,158,35,-43,7,-121
2018-05-17,15:45:11.218,15,143,123,47,-39,-22,25,484,577,384,178,41,107,94,78,200,327,307,274,231,152,157,54,-38,-31,-442,-884,49,1841,2967,1137,-652,-354,-451,-558,-466,-313,-220,-315,-393,-463,-477,-481,-258,-128,-143,-243,-166,-90,-356,-56,-55,-35,294,360,180,147,189,55,-67,-173,-238,-281,-280,-306,-417,-456,-474,-548,-618,-608,-553,-523,-507,-375,-302,-343,-331,-324,-311,-248,-221,-224,-229,-708,-1142,-137,1859,3447,1608,-652,-457,-537,-763,-727,-727,-709,-608,-492,-519,-680,-620,-250,3,103,100,277,290,-90,249,738,794,621,349,202,-99,-157,-258,-406,-419,-398,-407,-681,-613,-447,-558,-713,-522
2018-05-17,15:45:12.255,-573,-767,-306,-6,-216,-288,-80,26,-192,-283,-312,-115,169,201,-262,-672,-1168,-635,1113,2822,1777,-558,-92,-330,-400,-283,-376,-352,-376,-417,-471,-435,-447,-424,-451,-386,-318,-297,-290,-252,-201,-188,-138,-41,-29,-99,-201,-278,-303,-378,-352,-297,-326,-320,-339,-320,-316,-304,-353,-358,-358,-282,-210,-120,-112,-218,54,115,-9,152,245,441,408,155,-424,-1118,-429,1798,4277,3250,-87,-451,-383,-664,-606,-632,-487,-487,-467,-429,-476,-444,-583,-622,-196,-115,-205,-99,-327,-124,221,150,-185,119,357,139,46,-54,65,-141,-298,-238,-214,-200,-163,10,-19,-120,172,282,149,39,-16,-17,-4,79,70,57
2018-05-17,15:45:13.292,-19,-108,-87,-53,-17,-49,-462,-1133,-689,1092,3040,2405,-446,-686,-490,-636,-624,-647,-613,-404,-411,-424,-357,-366,-424,-417,-458,-466,-415,-354,-223,-106,-98,-2,-59,72,244,427,397,372,202,17,39,-122,-259,15,231,100,-62,-129,-391,10,130,-233,-13,169,133,28,-17,6,94,31,67,74,-201,-589,-652,482,2511,3043,634,-519,-88,-177,-125,-7,-52,44,-175,-397,-233,-13,43,107,240,97,242,688,916,997,1082,1114,1066,1043,943,748,552,373,238,163,160,176,82,72,85,134,110,-25,-27,183,256,276,294,481,595,636,677,678,682,685,612,562,565,507,-38,218,1392,2981
2018-05-17,15:45:14.329,2441,244,830,856,459,546,827,904,422,520,565,650,238,277,577,510,387,337,320,674,611,569,746,583,652,719,461,105,-80,8,-63,28,131,29,-166,-159,-108,-208,-205,-144,-20,24,-7,-129,261,300,-198,-129,27,34,43,99,327,189,-586,-478,1303,4055,3729,-114,-789,-601,-909,-1017,-1041,-990,-986,-930,-877,-898,-978,-958,-836,-739,-814,-818,-638,-549,-618,-552,-303,-122,-250,-311,-351,-570,-608,-733,-716,-700,-806,-914,-758,-621,-599,-589,-520,-473,-558,-406,-446,-344,-319,-319,-45,-103,-278,-375,-319,-409,-411,-486,-611,-1155,-1179,40,2276,3542,986,-999,-613,-749,-827,-847,-722,-621,-631,-622
2018-05-17,15:45:15.366,-632,-473,-571,-607,-539,-456,-619,-334,-279,-18,130,-7,78,72,176,180,113,-100,-205,-10,-29,-153,-180,-296,-449,-466,-494,-540,-537,-534,-514,-586,-514,-448,-436,-418,-411,-548,-519,-454,-485,-309,-339,-816,-1248,-358,1494,3080,1470,-763,-445,-543,-757,-807,-711,-674,-642,-565,-563,-555,-552,-516,-663,-593,-250,311,208,201,247,274,398,435,344,529,212,84,108,29,-149,-209,-168,-275,-180,-383,-17,-95,-169,-179,-182,-239,-191,184,213,145,102,243,266,227,264,397,-132,-375,-296,854,2690,3350,921,-478,20,351,138,89,165,306,644,655,659,589,408,445,427,376,472,608,666,708,746,773
2018-05-17,15:45:16.404,813,798,651,449,303,148,14,-14,19,-10,-64,31,127,152,167,144,168,199,204,195,174,306,521,532,422,420,565,577,442,94,465,462,26,915,3265,4598,1838,-93,-229,-150,-137,-166,-189,-226,-87,-171,-251,-286,-224,-30,-1,-184,-35,-35,-98,-131,-16,19,163,136,317,291,-15,-162,-237,-404,-510,-422,-440,-488,-334,-135,-410,-842,-763,-331,-581,-627,-126,-217,-329,60,202,18,-71,-214,-326,-313,-601,-1468,-1552,332,3301,4173,260,-1483,-1033,-1204,-1329,-1208,-1191,-1163,-1118,-1114,-1115,-1078,-1014,-955,-918,-796,-723,-667,-560,-417,-335,-260,-161,-150,-167,-305,-523,-644,-624,-600,-679,-755,-697,-224
2018-05-17,15:45:17.441,-117,-89,-272,-373,-306,-416,-541,-466,-185,25,-160,-264,76,16,-145,-106,-55,-41,-291,-1011,-1067,364,2635,2999,111,-875,-236,-360,-456,-519,-492,-497,-521,-457,-387,-518,-495,-313,-238,-139,-198,-12,-10,65,175,391,764,745,722,831,660,363,114,2,-112,-120,-107,-228,-357,-378,-494,-549,-537,-503,-442,-405,-309,-254,-278,-288,-245,-223,-154,-180,-182,-557,-1127,-304,1719,3805,2602,-384,-385,-385,-603,-695,-655,-533,-454,-455,-400,-292,-260,-195,-181,-75,209,336,407,510,615,1040,797,1016,951,852,524,263,110,27,7,-237,-326,-210,-186,-243,-303,-381,-463,-288,-332,-285,-206,-231,-74,-97,145,8
2018-05-17,15:45:18.478,-67,-69,-19,-374,-932,-768,689,2644,3172,513,-788,-737,-563,-675,-777,-641,-409,-445,-245,-38,-213,-244,-181,-165,-220,-220,-145,9,16,96,106,150,134,16,-225,-359,-478,-568,-566,-559,-571,-548,-544,-526,-498,-483,-448,-439,-389,-298,-206,-166,-100,-108,-120,-182,-66,84,97,-248,-545,-581,-42,1588,3967,3532,-33,-810,-442,-422,-672,-394,-336,-262,-205,-395,-489,-327,-415,-620,-355,-174,-123,11,27,-117,-197,76,252,118,162,356,237,-22,-166,-300,-373,-370,-225,-54,-164,-229,-504,-436,-365,-263,-342,60,208,241,170,453,504,390,319,189,59,-415,-1255,-566,1886,4640,3619,-623,-913,-641,-806,-870
2018-05-17,15:45:19.515,-837,-794,-809,-864,-832,-812,-755,-733,-683,-612,-534,-434,-317,-179,-27,94,153,268,301,184,-27,-295,-315,-385,-428,-404,-384,-354,-195,-176,81,81,-9,-134,-263,-199,165,127,261,194,-350,-265,575,345,572,696,203,-488,-151,1499,3803,3247,335,-74,23,-230,58,181,363,272,249,444,462,321,217,330,487,350,667,981,957,865,1057,1347,1579,1376,1026,983,1426,1624,1290,1232,1095,836,703,683,639,559,504,460,429,361,393,560,559,482,443,415,393,399,348,338,264,-420,-694,639,2845,3946,1368,-156,68,-143,-266,-245,-267,-284,-316,-318,-295,-256,-214,-306,-423,24,387,266,184,387
2018-05-17,15:45:20.552,372,419,841,858,692,469,49,-264,-281,-326,-339,-607,-802,-1263,-754,-391,-565,-725,-810,-827,-673,-620,-674,-561,-468,-459,-535,-491,-527,-497,-650,-1624,-1427,-37,2383,3120,103,-885,-726,-1030,-1217,-1210,-858,-738,-962,-794,-616,-539,-627,-728,-700,-629,-597,-518,-472,-346,-178,-58,-108,-202,-359,-594,-779,-901,-996,-1061,-1048,-1048,-1066,-1019,-1033,-1043,-984,-945,-889,-803,-684,-562,-489,-458,-492,-491,-459,-424,-401,-406,-521,-1088,-978,306,2108,2692,470,-266,129,-235,-723,-466,-596,-523,-567,-437,-358,-369,-616,-633,-163,-166,-424,-162,-91,-66,-46,114,214,184,93,-64,-13,-104,-228,-299,-350,-409,-418,-345,-310,-292
2018-05-17,15:45:21.590,-459,-461,-473,-381,25,94,-42,-180,-199,92,498,634,416,403,498,-127,-846,322,3210,5254,2669,-712,-601,-648,-770,-696,-700,-601,-579,-642,-563,-537,-603,-681,-690,-616,-566,-514,-461,-330,-111,15,137,317,369,249,150,-30,-161,-277,-353,-392,-400,-469,-466,-444,-410,-353,-261,-291,-264,-170,-149,551,833,676,498,93,118,472,713,539,-260,-835,343,2903,4548,1726,-507,-346,-592,-564,-599,-613,-624,-641,-709,-538,-515,-375,-304,-381,-421,-230,-127,-141,-3,286,402,320,-144,323,425,251,-275,-317,-204,-192,-301,-140,-127,-406,-84,286,310,188,10,-52,-23,37,8,-26,-65,-51,-18,-25,-47,-62
2018-05-17,15:45:22.627,-193,-937,-1135,403,2796,3398,438,-888,-560,-645,-761,-711,-663,-551,-524,-448,-374,-392,-381,-397,-361,-319,-405,-307,-90,85,52,29,79,552,618,703,334,-135,-3,110,26,-399,-461,-345,-398,-376,-313,-363,-256,-159,-17,41,27,55,-21,-56,4,56,-58,-73,-312,-1096,-905,864,3262,3464,317,-705,-235,-339,-402,-339,-307,-376,-326,-280,-215,-384,-342,-175,83,226,518,646,940,1103,1034,986,946,820,637,460,182,-48,-162,-247,-370,-501,-578,-615,-663,-707,-732,-741,-747,-664,-557,-482,-356,-237,-191,-193,-141,-77,-44,-17,-118,-720,-1047,97,2197,3352,1179,-543,-280,-441,-576,-521,-420,-354,-427,-184
2018-05-17,15:45:23.664,-39,163,197,181,196,227,166,373,625,722,549,577,574,657,458,169,-26,-33,-220,-285,-394,-552,-599,-508,-520,-701,-644,-413,-302,-423,-348,-171,-200,-336,-198,115,125,116,144,70,-113,-711,-882,289,1965,2971,1053,-460,-167,-247,-92,-81,105,-71,-197,-266,-294,-304,-191,-163,-244,-261,-221,-184,-88,32,62,69,203,216,108,-53,-278,-344,-394,-476,-520,-483,-456,-426,-423,-389,-331,-303,-326,-330,-312,-189,-171,-179,-141,-123,-24,-20,-299,-21,529,243,-641,-314,1658,3721,3041,-289,-453,-390,-675,-671,-457,-342,-456,-389,-355,-375,-252,-256,-283,-179,-305,-180,-105,3,29,135,490,699,504,312
2018-05-17,15:45:24.701,151,240,89,-53,-53,-188,-105,0,-172,-68,157,79,-9,-104,119,558,704,642,1031,1075,895,834,702,562,530,544,187,-674,-190,2114,4825,4043,115,-300,-39,-200,-287,-284,-228,-181,-182,-115,-7,0,107,200,159,268,367,453,607,752,801,887,972,999,881,708,524,435,436,435,377,356,423,432,762,828,772,804,632,293,704,1017,796,740,774,579,617,651,568,562,418,-164,-740,87,1946,3433,1847,-320,-273,-203,-105,-215,-403,-504,-378,-335,-329,-559,-503,-226,134,-96,-373,-320,-267,-157,-42,303,460,480,375,260,333,189,-66,-234,-372,-495,-601,-576,-604,-727,-703,-691,-634,-522
2018-05-17,15:45:25.738,-490,-463,-454,-465,-495,-629,-569,-538,-564,-583,-702,-1328,-1402,81,2659,3483,496,-1114,-818,-978,-1128,-1069,-1088,-997,-958,-896,-799,-737,-764,-827,-849,-680,-430,-250,31,528,360,16,-170,-54,-44,-301,-585,-627,-421,-457,-516,-578,-576,-510,-639,-762,-721,-589,-603,-559,-657,-693,-660,-350,-244,-296,-316,-310,-352,-241,-401,-982,-1326,-191,2136,3552,1230,-732,-605,-867,-1019,-668,-564,-590,-496,-441,-239,-144,-140,-153,-206,-204,-135,-60,15,50,149,202,201,193,-15,-251,-496,-632,-770,-924,-902,-982,-995,-934,-935,-946,-853,-810,-686,-569,-452,-326,-238,-248,-254,-241,-229,-248,-264,-235,-366,-947,-1060,352,2632,3566
2018-05-17,15:45:26.775,423,-223,32,-107,-160,-140,-241,-181,-262,-266,-77,3,-206,-119,-84,-29,-166,-104,155,129,187,203,326,322,143,-27,-308,-213,30,-117,-378,-296,-81,-228,-206,-119,-229,-305,-52,81,76,261,407,182,-113,142,464,459,459,440,367,0,-198,1263,3930,4710,876,-525,-204,-383,-492,-404,-293,-285,-369,-254,-202,-176,-127,-120,-126,-92,-104,-39,67,217,343,418,541,602,633,515,295,170,88,-3,-86,-85,-100,-150,-182,-34,80,36,-101,273,267,500,590,424,499,462,243,351,300,391,320,-69,-822,-537,1446,3939,3250,-128,-403,-169,-491,-505,-439,-628,-831,-714,-356,-303,-335,-332,-509,-603
2018-05-17,15:45:27.813,-486,-136,-212,-118,63,126,285,410,296,196,-124,-362,-367,-387,-49,-38,-130,-57,-19,-113,-312,-325,-271,-372,-394,-322,-336,-306,-289,-328,-321,-381,-410,-399,-384,-568,-1240,-1403,-15,2311,3150,446,-936,-712,-793,-877,-911,-851,-733,-729,-659,-674,-681,-662,-645,-623,-546,-470,-357,-258,-261,259,636,611,606,583,132,-11,114,-210,-113,115,-173,-422,-300,-355,-420,-483,-410,-434,-195,-114,-148,-216,-223,-280,-448,-466,-86,19,-206,-781,-1094,110,2135,3069,752,-603,-344,-363,-672,-549,-549,-596,-650,-641,-401,-332,-119,69,-195,-350,-2,349,438,494,425,483,503,386,220,53,-159,-308,-409,-495,-456,-474
2018-05-17,15:45:28.850,-521,-462,-555,-613,-656,-662,-608,-545,-472,-395,-264,-191,-203,-191,-148,-88,-76,-140,-712,-1138,3,2148,3221,945,-661,-286,-592,-618,-485,-261,-241,-86,86,-58,-39,-44,-194,-352,-380,-336,-107,116,266,474,503,447,340,260,189,101,-32,-150,-248,-311,-387,-253,-334,-335,-238,-237,-284,-395,-189,-19,-27,-119,154,171,147,104,147,213,163,-572,-1047,2,1803,3708,2635,-102,250,229,27,-133,-240,-272,-277,-287,-332,-365,-359,-351,-275,-212,-190,-139,-109,-75,-55,-19,111,136,46,-105,-196,-313,-348,-330,-414,-425,-452,-428,-376,-350,-387,-398,-380,-313,-277,-198,-141,-45,6,0,58,-68,160,342
2018-05-17,15:45:29.887,426,-249,-685,571,2920,4303,1370,-298,52,-198,-644,-738,-174,-197,-524,-338,-288,-190,-253,-401,-361,-403,-363,-388,-313,8,151,214,423,454,-16,-199,25,140,57,-357,-634,-125,27,-352,-426,-454,-442,-273,-180,-39,-21,139,273,521,543,355,243,126,52,2,-314,-1170,-1056,1075,4158,4279,249,-903,-520,-627,-758,-744,-813,-828,-763,-729,-733,-718,-675,-517,-474,-412,-351,-187,-48,52,125,264,292,229,38,-236,-280,-288,-349,-378,-458,-207,-215,159,273,100,-75,-305,-482,-313,-352,-51,194,63,30,104,85,104,83,-12,-513,-848,-532,898,3039,2743,-32,-448,-255,-447,-568,-551,-295,-252,-213,-158
2018-05-17,15:45:30.924,-407,-308,-423,-385,51,206,110,-82,259,314,352,692,865,801,516,671,789,569,344,160,58,-70,-156,-293,-377,-275,-245,-206,-143,-84,-67,-73,-121,-162,-167,-242,-282,-288,-352,-850,-1181,-36,2172,3644,1432,-604,-333,-426,-681,-692,-652,-631,-600,-584,-618,-549,-433,-379,-301,-467,-429,1,535,379,403,379,642,1237,840,247,-182,-306,38,54,-96,-231,-262,-527,-324,-264,-418,-409,-175,-59,-62,75,-184,14,125,214,289,27,-80,-212,-515,315,2089,2999,1271,-170,384,637,328,68,-43,323,413,229,398,989,1218,1115,1086,938,829,947,1092,1281,1343,1377,1484,1287,1017,757,630,550,330,342
2018-05-17,15:45:31.961,380,286,261,232,301,342,395,473,565,597,732,829,848,868,883,871,887,852,774,671,83,-15,1398,3584,3810,904,236,1307,1114,804,773,621,245,190,388,400,445,510,296,255,331,552,544,554,540,501,566,563,1136,769,246,61,-29,-187,-251,-145,-171,-315,-394,-406,-459,-442,-291,-271,-242,-250,-460,-505,-224,-174,-419,-569,-172,-136,-625,-1316,-562,1624,3751,2288,-1180,-1147,-1124,-1408,-1433,-1363,-1354,-1353,-1405,-1410,-1374,-1403,-1393,-1354,-1358,-1356,-1319,-1221,-1151,-989,-850,-763,-713,-762,-872,-1021,-1124,-1148,-1193,-1257,-1282,-1324,-1347,-1321,-1323,-1232,-1144,-1058,-987,-901,-881,-828,-825,-55,29,-196,-188,-333
2018-05-17,15:45:32.999,-631,-767,-1488,-928,779,2926,2892,-303,-1230,-1216,-854,-943,-966,-860,-816,-956,-993,-804,-837,-1027,-1081,-744,-627,-585,-492,-345,-327,-192,-69,73,-130,-174,-173,-269,-392,-413,-468,-632,-810,-483,-356,-422,-468,-442,-376,-105,11,85,126,-17,-57,-151,-143,-163,-221,-266,-478,-1289,-1253,751,3465,3687,149,-897,-606,-811,-924,-865,-792,-675,-601,-604,-564,-544,-551,-463,-375,-291,-213,-136,-89,21,89,175,312,265,133,-103,-122,80,191,92,82,65,-228,121,-51,-180,-132,-135,-249,148,267,-119,-20,410,374,181,148,61,-16,-517,-988,125,2292,3549,1613,-352,-243,-258,-324,-465,-499,-331,-388,-352,-281,-276
2018-05-17,15:45:34.036,-418,-470,-240,-97,-37,-103,197,340,580,937,934,785,561,308,92,-68,-232,-273,-380,-411,-390,-476,-547,-588,-546,-496,-395,-359,-367,-393,-377,-358,-315,-287,-184,-136,-298,-951,-974,518,2730,3398,560,-614,-374,-501,-654,-768,-574,-481,-480,-414,-334,-657,-522,1,204,209,260,219,32,-128,211,589,373,176,-33,39,-29,-125,-27,-75,-160,-226,-104,-146,-141,-86,-232,-264,-171,-42,-11,87,332,511,380,286,258,221,76,-449,-603,755,3033,3973,1624,-151,-99,-178,-145,7,72,-128,-81,562,561,618,512,405,392,482,653,725,746,827,925,892,894,751,505,298,115,33,1,-22,-23,-11
2018-05-17,15:45:35.073,7,-45,3,6,96,200,177,309,496,564,502,521,545,523,516,524,485,122,-444,243,2176,4055,3249,542,615,649,381,120,137,183,459,431,82,11,239,285,181,98,103,172,243,331,327,404,412,350,321,161,11,-271,-230,-75,-75,-70,-43,-362,-539,-747,-618,-491,-339,-92,250,-74,-322,-208,-54,-132,-247,-154,-269,-708,-1148,-375,2063,4196,2360,-866,-686,-717,-953,-1047,-1007,-955,-896,-890,-937,-905,-892,-861,-784,-804,-796,-728,-636,-542,-399,-284,-246,-165,-212,-322,-407,-466,-578,-618,-704,-764,-723,-643,-808,-835,-671,-513,-475,-471,-553,-424,-166,192,22,-319,-158,-455,-584,-580,-923,-1459
2018-05-17,15:45:36.110,-202,3015,4308,849,-1029,-875,-828,-865,-827,-816,-777,-765,-832,-745,-880,-815,-839,-541,-602,-487,-241,-144,13,17,-8,38,-63,-290,8,-78,-227,-116,-424,-654,-402,12,-57,-50,10,23,152,248,192,113,25,-37,-50,-82,-124,-68,29,-17,-375,-1215,-996,1071,3636,3175,-418,-990,-839,-952,-971,-927,-838,-771,-745,-633,-649,-600,-503,-458,-405,-347,-295,-251,-188,-49,71,142,167,98,-1,-76,-171,-362,-191,218,264,150,152,59,-152,-326,103,364,319,165,89,153,156,201,-24,-109,49,241,-323,-1050,-395,1374,3090,1955,-322,-279,-374,-570,-587,-677,-439,-402,-394,-413,-559,-521,-460,-283,-214,-392
2018-05-17,15:45:37.147,-203,-55,-179,-75,208,380,49,335,584,530,272,31,-75,-141,-184,-195,-330,-413,-334,-317,-327,-177,-95,-25,-13,-154,-107,-131,-211,-237,-249,-642,-1233,-565,1597,3675,2397,-456,-497,-438,-631,-668,-661,-635,-570,-596,-612,-539,-516,-426,-349,-379,-249,-85,271,482,445,102,88,431,514,263,75,-84,-133,-91,-6,0,-119,-513,-536,-152,-31,-72,-103,-47,-53,8,57,-54,31,63,300,252,-127,-843,-467,1101,2861,2786,106,-269,-110,-555,-285,-241,-510,-439,-304,-174,-148,-151,48,234,333,266,258,432,482,426,477,471,338,191,-56,-275,-419,-479,-485,-518,-563,-666,-684,-705,-724,-700,-620,-531
2018-05-17,15:45:38.184,-300,-153,-170,-109,-103,-107,-75,-31,-61,-156,-778,-1019,53,2022,2923,634,-490,-405,-381,-242,-35,-47,88,31,-252,-284,-26,3,49,42,-121,-11,281,393,369,377,434,451,468,445,248,195,301,260,158,141,207,456,463,204,294,307,464,415,483,744,750,922,1003,1061,724,494,774,586,-134,435,2885,4986,3473,639,853,1011,842,706,624,606,661,708,671,646,676,718,715,761,750,819,933,973,988,1006,963,862,761,564,489,531,463,394,409,417,359,357,347,269,276,280,306,367,428,492,527,561,570,535,411,547,799,410,-288,435,2484,4509,3348,-232,-183,162,-78,-383
2018-05-17,15:45:39.222,-408,-391,-400,-379,-399,-441,-517,-375,-440,-539,-459,-512,-430,-310,-297,-397,-109,-42,-251,-325,-429,-600,-772,-895,-1069,-992,-1118,-844,-878,-1034,-1125,-1263,-1235,-1037,-579,-571,-605,-712,-620,-508,-622,-717,-827,-1473,-2058,-816,1985,3763,681,-1909,-1569,-1568,-1714,-1741,-1680,-1566,-1534,-1526,-1508,-1455,-1400,-1409,-1389,-1298,-1196,-1109,-1013,-869,-718,-628,-542,-501,-633,-737,-836,-947,-990,-829,-808,-758,-921,-955,-545,-463,-297,-368,-389,-100,-350,-511,-412,-207,-336,-331,-282,-251,-254,-779,-1484,-479,1987,3712,1641,-824,-614,-628,-658,-799,-854,-655,-648,-410,-360,-448,-593,-514,-374,-407,-361,-322,-22,141,305,-92,474,452,-235,-280
2018-05-17,15:45:40.259,-10,219,372,87,-73,203,287,169,250,69,-66,-91,-46,57,84,23,-14,30,62,48,11,-4,-148,-858,-1114,290,2616,3160,157,-775,-376,-496,-644,-567,-496,-465,-416,-342,-388,-362,-415,-443,-356,-186,-152,-17,-20,137,325,557,403,515,520,280,64,-108,-323,-533,-545,-675,-507,-393,-394,-374,-274,-375,-223,160,153,39,181,172,113,112,6,-386,-1135,-677,1208,3573,2731,-168,-135,-53,-367,-473,-355,-245,-364,-421,-50,-55,-138,-117,-217,-187,96,88,307,504,569,887,1084,921,652,385,125,113,87,18,-75,-228,-276,-282,-316,-294,-318,-348,-281,-260,-288,-270,-273,-288,-252,-249,-262,-268
2018-05-17,15:45:41.296,-729,-1130,20,2248,3909,1486,-516,-372,-482,-640,-677,-659,-587,-533,-484,-429,-394,-405,-457,-663,-354,137,462,620,923,949,765,561,641,504,443,224,205,85,73,48,-210,-303,-235,-302,-361,-342,-298,-396,-364,-359,-285,46,-5,68,125,-22,-334,-1037,-751,773,2743,2730,216,-308,-303,-505,-723,-700,-389,-300,-457,-525,-413,-612,-333,315,346,98,193,331,304,267,425,408,217,38,-129,-208,-266,-279,-307,-325,-372,-397,-456,-514,-599,-575,-544,-434,-285,-177,-115,-78,-18,37,78,21,34,-6,-625,-1039,-51,1947,2996,816,-695,-340,-399,-561,-660,-293,-79,-127,123,2,36,-144,-403,-414,-1044,47
2018-05-17,15:45:42.333,412,103,344,412,352,412,351,71,-25,-11,16,-27,-92,-165,-297,-254,-155,-168,-253,-220,-159,-24,64,35,81,105,10,4,269,284,7,-505,-944,-138,1317,3156,2564,-55,-88,-121,2,198,116,-28,-132,-140,-146,-109,-26,-86,-67,-70,-29,79,89,153,189,234,239,91,-72,-242,-311,-359,-383,-374,-343,-342,-351,-326,-296,-317,-290,-255,-214,-106,0,-55,-140,-277,-114,21,39,26,-291,-1051,-784,859,3239,3756,761,-121,-19,-616,-512,-253,-141,-11,-147,-283,-316,-234,-159,-248,-361,-277,-170,-211,-169,-174,-106,11,-29,-160,-279,47,294,-37,-494,-486,-441,-154,-73,-146,-85,-261,-204,-226
2018-05-17,15:45:43.370,110,-256,-269,75,7,52,-52,-590,-283,1746,4750,4840,1275,217,73,-413,-559,-560,-557,-559,-579,-560,-463,-374,-296,-248,-219,-182,-158,-84,-95,-115,-59,-98,-208,-331,-429,-511,-501,-454,-377,-361,-354,-304,-350,-416,-432,-365,-392,-389,-386,-353,-269,-161,-69,-190,-49,323,282,175,-51,365,720,355,-497,-397,1557,3828,3194,101,-286,-258,-618,-696,-437,-386,-334,-434,-544,-549,-444,-503,-604,-477,-410,-381,-163,74,99,199,173,169,132,130,22,-157,-144,-178,-254,-206,-513,-511,-482,-173,84,110,126,349,574,532,355,310,292,202,143,114,116,-330,-1190,-671,1478,3854,3031,-443,-600,-497,-776,-888
2018-05-17,15:45:44.407,-868,-800,-748,-681,-620,-574,-563,-502,-422,-393,-300,-203,-118,-68,-3,66,78,-42,-157,-47,-78,-145,-348,-476,71,40,-49,62,84,144,-109,-498,-132,291,132,-89,-56,58,352,314,158,-16,-113,-740,-852,577,2747,2784,-50,-565,-363,-529,-264,-390,-656,-299,-391,-559,-576,-350,-312,-203,-96,-113,-241,-232,-18,9,43,496,572,484,565,518,608,581,462,239,-50,-186,-204,-248,-361,-369,-311,-236,-90,-66,-25,-46,-148,-202,-224,-293,-327,-592,-1278,-723,1142,3273,2708,-415,-365,-239,-442,-444,-407,-324,-305,-317,-248,-164,-163,-88,-8,85,138,351,585,600,946,1360,1351,1242,1191,815,604,1037
2018-05-17,15:45:45.445,1069,1018,917,914,858,715,557,548,729,1038,1081,1043,1065,1005,1076,1123,1056,966,1191,1208,517,548,1884,3835,4312,1555,998,1030,985,1063,924,793,934,985,772,827,1112,1210,1224,1139,1012,1076,1514,1911,1774,1716,1724,1568,1276,1134,931,756,712,651,511,523,415,337,242,139,87,116,60,91,272,188,160,149,105,69,46,-58,-686,-1110,-86,2072,3272,769,-1097,-671,-784,-997,-901,-814,-824,-926,-702,-595,-516,-780,-996,-1333,-1085,-1105,-1190,-1085,-1220,-650,-696,-834,-832,-1050,-1183,-1349,-1315,-1378,-1402,-1458,-1586,-1521,-1620,-1774,-1629,-1261,-1237,-1328,-1321,-1275,-1304,-1187,-1281,-1369,-996,-1054,-1232,-1656,-2335,-1300
2018-05-17,15:45:46.482,1069,2342,-105,-1366,-730,-871,-1141,-1111,-945,-923,-1019,-1134,-1175,-1109,-1051,-1056,-1027,-932,-841,-734,-666,-618,-601,-579,-580,-745,-972,-1070,-1106,-1103,-1089,-1089,-1085,-1009,-999,-982,-951,-927,-856,-765,-663,-555,-473,-451,-402,-382,-346,-341,-256,-206,-683,-1222,-256,1963,3781,1814,-222,27,-124,-555,-764,-119,-58,-305,-439,-311,-111,-178,-301,-458,-353,-242,-239,-204,-37,2,-109,-62,83,90,41,-4,-208,-245,-88,-122,-113,-228,-176,-91,-260,-162,-142,-122,-27,24,48,-38,-170,57,164,93,17,-520,-607,848,3622,4378,462,-875,-502,-651,-755,-767,-747,-714,-620,-572,-511,-491,-502,-506,-487,-534,-428,-359,-254,-102
2018-05-17,15:45:47.519,20,119,141,127,21,-72,-105,-170,-234,-226,-238,-275,-315,-338,-321,-174,-158,-178,-96,125,248,445,426,389,353,188,-133,372,288,-759,-440,1666,4097,3210,3,-469,-238,-403,-492,-351,-332,-476,-376,-399,-437,-303,-195,-134,-170,-333,-69,42,60,144,83,196,400,348,202,-196,-344,-305,-195,-132,-151,-62,-129,-267,-184,217,138,21,7,120,97,97,84,39,-30,-18,-56,-182,-851,-1209,146,2586,3672,967,-735,-418,-504,-599,-599,-526,-438,-355,-313,-279,-301,-272,-220,-206,-177,-85,-36,25,91,243,340,425,399,293,211,327,97,486,587,492,348,249,365,235,236,516,692,701,610,530
2018-05-17,15:45:48.556,537,612,448,303,442,703,228,-331,250,1676,3466,2682,268,175,115,243,436,335,201,159,149,124,207,299,225,287,175,213,106,269,564,719,720,561,480,639,929,818,591,405,301,263,199,95,16,26,39,-10,74,156,201,170,68,70,32,-15,-2,34,-330,-992,-545,1096,3104,2539,-286,-441,-354,-544,-585,-658,-670,-529,-545,-667,-586,-482,-467,-632,-636,-291,-214,-187,114,-43,-173,-21,-21,-199,-47,-213,-424,-544,-272,-300,-546,-617,-443,-608,-521,-387,-290,-332,-485,-37,-101,-478,-440,-120,-174,-440,-826,-1049,-272,1352,2775,1224,-810,-486,-483,-690,-692,-703,-776,-947,-640,-218,-356,-379
2018-05-17,15:45:49.593,-511,-267,145,337,279,334,267,142,131,36,-110,-242,-387,-509,-606,-579,-568,-646,-722,-748,-745,-863,-917,-900,-757,-716,-578,-489,-459,-416,-285,-269,-229,-216,-405,-1048,-1221,155,2303,2995,438,-698,-420,-555,-654,-635,-637,-591,-166,184,102,-95,-320,-433,-306,-21,14,-171,-126,102,331,428,203,106,41,-51,-214,-79,5,-124,-114,-165,-314,-432,-84,117,85,164,-33,-11,312,421,293,191,162,323,342,-163,-774,-12,1846,3285,1755,-167,146,197,-10,141,296,258,86,375,312,156,123,114,134,190,280,330,319,415,513,471,337,188,39,-150,-294,-335,-317,-369,-412,-411,-376,-378,-368,-322
2018-05-17,15:45:50.631,-301,-195,-102,12,25,-21,-17,7,29,30,50,-102,-796,-747,753,3128,3731,757,-231,71,-112,-401,-433,-579,-654,-403,-258,-390,-642,-331,-324,-670,-195,-116,-276,-234,-157,-114,-27,-159,-159,-160,-223,-344,-356,-405,-326,-445,-713,-792,-594,-322,-346,-383,-313,-257,-289,-230,-356,-627,-429,55,110,1,-453,-1039,-321,1805,3938,2236,-865,-631,-620,-764,-871,-954,-955,-795,-773,-914,-815,-684,-749,-777,-716,-655,-589,-522,-370,-182,-101,-46,-41,-64,-135,-210,-229,-288,-353,-428,-449,-477,-354,-275,-256,-283,-233,-276,-376,122,535,490,343,289,149,-29,-397,-777,-836,546,3307,4523,1194,-845,-509,-506,-816,-850
2018-05-17,15:45:51.668,-569,-481,-546,-508,-405,-412,-352,-509,-533,-336,-354,-222,-163,-25,120,209,263,132,137,106,-11,-18,97,-261,-369,-426,-268,-229,-182,-249,94,193,242,205,428,672,655,479,223,85,67,-227,-1151,-861,1575,4745,4265,-218,-987,-608,-761,-843,-788,-747,-735,-713,-744,-691,-681,-606,-473,-426,-371,-241,-94,54,200,314,307,203,75,-84,-178,-216,-175,-103,-242,-228,-30,60,167,211,133,-10,54,200,479,536,255,254,403,318,265,92,-496,-928,12,2186,3941,1769,-580,-470,-270,-482,-462,-442,-413,-228,-151,-201,-384,-361,-313,-396,-331,90,141,128,-34,13,116,-61,396,255,113,-35,-355,21
2018-05-17,15:45:52.705,344,142,-43,-99,-111,-163,-206,-139,-34,-14,22,-51,-69,-27,-16,-65,-110,-309,-1009,-939,584,2995,3394,95,-671,-369,-507,-565,-521,-474,-415,-307,-279,-276,-254,-222,-186,-181,-195,-162,-15,130,230,299,433,469,375,213,360,384,770,750,511,295,14,-44,33,227,444,355,487,631,545,512,575,527,481,514,551,240,-427,-106,1518,3520,2729,-48,-77,51,164,40,-31,71,-6,-193,-161,1,-66,-230,-40,252,126,-169,-129,23,515,575,516,785,1106,866,497,267,111,57,50,-59,-113,-226,-251,-196,-174,-143,-84,-73,-133,-119,-176,-229,-211,-230,-296,-810,-1274,-188,1897,3360,1122,-805
2018-05-17,15:45:53.742,-478,-590,-737,-699,-650,-644,-576,-619,-590,-560,-571,-609,-540,-503,-462,-429,-289,31,191,256,373,358,182,82,-47,-240,-243,-48,-161,-262,-409,-351,-301,-235,-300,-213,-479,-284,140,39,-150,-192,-156,-147,-436,-1216,-884,629,2569,2847,-65,-483,-314,-702,-748,-674,-643,-802,-664,-586,-646,-443,-323,-566,-869,-476,-248,-317,-343,139,326,383,158,-59,-203,-319,-359,-391,-419,-470,-470,-453,-478,-486,-519,-468,-373,-278,-274,-357,-301,-280,-235,-274,-211,-261,-724,-1328,-530,1661,3402,1568,-900,-620,-573,-700,-713,-667,-587,-627,-608,-527,-561,-565,-544,-506,-322,-179,25,207,232,204,232,127,17,-131,-40,-9
2018-05-17,15:45:54.779,-106,-227,-127,-199,-301,-265,-287,-344,-272,-260,-158,36,87,88,156,164,48,79,-79,-5,-290,-880,-262,1747,3742,2408,-556,-384,-250,-454,-534,-307,-305,-314,-263,-200,-238,-335,-271,-123,54,133,233,329,480,509,449,335,166,2,-99,-151,-180,-199,-232,-272,-325,-386,-452,-472,-446,-413,-344,-238,-175,-146,-159,-136,-74,-54,-47,-34,-211,-928,-804,916,3435,3843,131,-614,-375,-478,-583,-619,-532,-458,-440,-442,-435,-390,-378,-372,-308,-271,-172,-24,58,136,255,362,346,158,-38,-79,189,282,159,14,-44,-75,-127,-184,-183,-198,-179,-86,28,-45,-29,71,76,75,125,41,-75,-624,-1082,18
2018-05-17,15:45:55.817,2302,4034,1602,-493,-301,-396,-512,-557,-490,-400,-366,-348,-246,-216,-218,-241,-260,-258,-217,-129,17,120,181,228,252,211,-7,-21,367,372,223,178,151,114,140,62,42,9,317,405,442,462,380,371,484,479,541,495,412,206,-522,-837,704,3623,4540,1057,-618,-279,-380,-483,-442,-420,-454,-433,-434,-414,-418,-417,-392,-385,-307,-189,-76,5,48,131,196,113,-62,-151,-201,-237,-244,-235,-324,-299,-271,-287,-324,-393,-307,-219,-166,-68,-11,13,64,75,51,32,21,-12,-180,-997,-937,922,3705,4070,316,-675,-410,-540,-618,-572,-519,-501,-493,-495,-490,-452,-445,-461,-446,-390,-317,-198,-127,-4
2018-05-17,15:45:56.854,44,19,32,-93,-198,-257,-249,-253,-277,-282,-322,-279,-305,-296,-266,-258,-193,-129,-69,53,70,61,43,50,82,62,34,-224,-958,-646,980,3367,3118,48,-465,-396,-569,-653,-604,-649,-619,-604,-584,-544,-557,-552,-523,-581,-531,-440,-394,-269,-111,-36,-3,-126,-196,-61,-76,-106,-65,-181,-201,-149,-185,-202,-113,-63,-127,-123,-65,-1,19,-3,0,9,-12,7,-7,-18,-397,-1115,-545,1614,3942,2834,-357,-654,-587,-723,-744,-697,-638,-591,-551,-542,-479,-468,-478,-436,-395,-346,-230,-139,-52,45,97,64,-23,-115,-114,-78,-110,-131,-146,-172,-185,-152,-134,-185,-332,-177,-84,72,108,111,155,175
2018-05-17,15:45:57.891,141,83,131,148,137,-12,-725,-920,619,3360,4316,1031,-719,-475,-551,-626,-584,-525,-471,-462,-429,-394,-395,-390,-385,-329,-277,-241,-154,-21,38,79,57,22,-86,-122,-120,-140,-137,-119,-161,-152,-111,-105,-78,-71,-54,-15,80,158,210,195,182,200,203,186,164,158,92,-485,-906,201,2531,3926,1505,-416,-264,-363,-486,-475,-424,-390,-419,-403,-353,-342,-326,-342,-349,-334,-277,-196,-89,-7,78,131,114,72,-11,-120,-205,-178,-177,-195,-118,-98,-106,-144,-142,-110,-27,7,64,73,128,211,190,90,118,109,111,-33,-441,-924,21,2319,4282,2124,-430,-426,-481,-655,-663,-590,-618,-591,-607,-515
2018-05-17,15:45:58.928,-562,-486,-514,-437,-413,-370,-223,-56,13,22,84,47,-12,-27,-74,-119,-122,-149,-61,-10,-69,-160,-196,-74,-51,-62,-54,13,105,130,159,170,135,156,199,210,113,-240,-866,-420,1693,4228,3594,-69,-644,-393,-546,-526,-461,-465,-446,-343,-323,-399,-305,-316,-261,-226,-166,-121,29,81,125,213,269,80,-56,12,-16,-101,-117,-163,-70,-41,-66,-60,-29,-11,-15,-5,73,168,227,208,146,113,121,118,107,24,-126,-813,-971,624,3292,3954,694,-712,-482,-607,-647,-610,-556,-517,-541,-520,-449,-422,-428,-465,-414,-316,-225,-149,-68,9,112,97,27,-81,-122,-112,-141,-131,-139,-113,-55,-85
2018-05-17,15:45:59.965,-119,-14,-34,-34,29,107,182,306,342,312,373,393,376,398,389,292,-276,-506,780,3006,4197,1353,-18,178,15,-74,-30,15,70,125,145,143,164,184,207,279,329,384,507,637,699,733,850,830,752,704,602,555,555,576,571,567,557,599,603,572,621,651,654,687,753,800,746,734,774,707,705,714,520,-139,-174,1309,3814,4410,843,-107,12,-182,-196,-218,-300,-268,-196,-171,-206,-152,-154,-183,-215,-198,-226,-218,-134,-51,-12,-25,-134,-171,-216,-304,-402,-432,-433,-516,-529,-549,-578,-621,-608,-606,-596,-587,-544,-500,-531,-624,-636,-682,-736,-671,-646,-928,-1673,-1586,187,2812,2903,-750
2018-05-17,15:46:01.002,-1452,-1297,-1401,-1420,-1433,-1413,-1392,-1340,-1295,-1274,-1245,-1253,-1222,-1133,-1151,-1084,-957,-858,-783,-740,-719,-790,-876,-957,-976,-938,-898,-901,-907,-898,-855,-784,-778,-750,-663,-588,-579,-520,-423,-396,-398,-324,-310,-325,-289,-230,-405,-1138,-1186,496,3243,3791,108,-770,-542,-710,-798,-745,-713,-671,-615,-615,-610,-535,-484,-509,-459,-380,-294,-207,-134,-42,37,89,12,-110,-229,-183,-151,-173,-245,-228,-184,-207,-191,-180,-130,-76,-69,-34,60,121,95,87,112,125,130,95,111,-101,-909,-727,804,3221,3235,52,-403,-339,-493,-517,-483,-435,-388,-373,-371,-349,-342,-387,-363,-357,-329,-235,-182,-48,66,99,79,76
2018-05-17,15:46:02.040,39,-12,-20,9,4,-60,-69,-16,-20,-23,-38,4,15,79,158,234,228,230,254,258,243,242,239,183,-316,-828,-10,2253,3825,1649,-359,-335,-517,-412,-327,-387,-356,-283,-275,-316,-308,-292,-299,-318,-297,-250,-284,-64,149,101,41,-25,16,-4,-12,-43,-20,-55,-31,-30,14,9,19,53,59,55,131,165,225,277,222,205,236,194,168,187,186,-276,-957,-386,1793,4054,2887,-252,-493,-414,-563,-573,-558,-518,-470,-458,-479,-436,-396,-357,-361,-329,-231,-151,-58,34,40,30,32,-48,-110,-161,-165,-151,-127,-136,-161,-157,-138,-124,-95,-73,-54,-30,51,146,146,168,134,162,151,154
2018-05-17,15:46:03.077,160,150,-114,-857,-499,1387,3646,3018,-116,-365,-286,-493,-534,-485,-416,-372,-385,-406,-378,-338,-347,-327,-309,-275,-203,-97,-1,63,116,104,12,-46,-100,-107,-127,-124,-139,-149,-143,-135,-105,-81,-85,-82,-29,44,115,159,169,137,145,161,198,102,36,-238,-908,-459,1317,3606,2748,-203,-486,-460,-615,-617,-565,-529,-520,-493,-480,-478,-488,-501,-519,-497,-432,-375,-272,-142,-32,39,18,-27,-69,-95,-107,-136,-125,-116,-147,-124,-105,-96,-80,-95,-82,-21,42,120,168,139,143,145,131,132,123,119,-220,-887,-438,1599,3918,2875,-239,-498,-413,-540,-537,-486,-469,-434,-403,-395,-401,-416,-415,-393
2018-05-17,15:46:04.114,-343,-269,-190,-96,28,104,86,29,-58,-101,-113,-109,-96,-105,-106,-93,-98,-63,-34,-94,-107,-101,-35,28,69,163,174,153,170,163,122,146,160,-29,-713,-853,699,3255,3675,466,-606,-306,-440,-481,-432,-371,-330,-331,-328,-298,-324,-338,-302,-242,-199,-155,-93,-1,79,117,65,2,-42,-87,-88,-82,-112,-149,-145,-116,-104,-73,-65,-75,-62,-27,60,50,95,185,166,120,153,206,115,83,29,-507,-944,114,2361,3949,1401,-581,-359,-431,-578,-517,-562,-555,-484,-411,-458,-464,-444,-447,-422,-388,-323,-246,-128,-28,37,72,42,-31,-80,-109,-159,-146,-120,-160,-166,-135,-126,-158,-141,-116
2018-05-17,15:46:05.151,-100,-22,19,68,135,130,94,88,118,117,104,43,-408,-924,-153,1852,3751,1856,-503,-466,-481,-582,-570,-524,-508,-485,-489,-478,-475,-484,-497,-518,-498,-426,-329,-227,-139,-71,-7,-4,-42,-87,-110,-133,-116,-111,-128,-127,-126,-117,-113,-106,-105,-64,-36,31,130,173,157,161,184,199,175,165,153,-131,-768,-422,1249,3535,2958,23,-389,-315,-412,-414,-391,-332,-300,-297,-305,-288,-270,-295,-313,-276,-234,-140,-54,35,82,125,134,122,121,125,108,89,132,129,122,115,114,138,133,145,160,163,199,274,349,354,340,326,330,314,339,303,184,-366,-603,455,2732,3831,1117,-366,-256,-357
2018-05-17,15:46:11.958,404,340,239,130,66,56,25,13,-62,-58,-61,-7,-129,-272,-403,-495,-442,-335,-304,-277,-159,-78,-150,-141,60,233,64,-59,115,0,-844,-1224,139,2410,3677,642,-1197,-914,-1067,-1248,-1116,-1104,-1094,-1021,-861,-720,-702,-415,-719,-965,-665,-534,-435,-163,32,-23,208,-95,-383,-183,-160,-205,-74,-7,-112,-9,101,-13,99,-41,47,172,105,213,352,355,382,458,356,435,540,621,391,355,286,-402,-561,873,3475,4191,975,-617,-365,-444,-546,-478,-387,-402,-435,-443,-518,-661,-773,-751,-767,-585,-519,-442,-333,-153,-94,-146,-214,-327,-305,-296,-291,-268,-313,-386,-506,-383,-237,-173,-231,-300,-43,-160
2018-05-17,15:46:13.845,-299,-221,-31,68,137,254,426,350,44,42,335,490,-391,-936,411,2722,4598,2114,-724,-433,-389,-601,-542,-411,-494,-400,-374,-359,-156,-9,-23,1,96,159,298,493,338,198,248,237,107,83,121,32,-39,46,6,-240,-122,4,-149,-84,-57,-188,-178,-185,-192,-274,-247,-269,-379,-317,-284,-277,-257,-204,-281,-366,-1050,-1636,-22,3227,4564,1023,-1446,-1036,-1221,-1239,-1193,-1118,-1069,-1115,-724,-615,-820,-804,-777,-653,-474,-327,-251,6,60,8,112,320,174,157,273,198,184,220,207,275,431,559,491,582,671,707,720,679,648,659,612,556,759,892,878,878,952,932,938,930,590,-117,331,2277
2018-05-17,15:46:14.882,4550,3668,445,446,593,509,533,451,591,737,730,768,714,661,678,785,833,851,905,973,994,1113,1126,1096,1014,984,958,829,806,881,831,827,745,496,371,549,690,563,515,492,517,626,731,680,593,669,695,627,584,786,529,307,645,168,-705,82,1916,3623,2182,-94,-212,-319,-626,-560,-513,-740,-761,-862,-845,-453,-372,-620,-728,-769,-810,-881,-903,-830,-615,-513,-651,-733,-722,-744,-751,-802,-825,-737,-791,-831,-834,-798,-843,-854,-881,-902,-854,-795,-959,-726,-514,-525,-574,-555,-600,-610,-627,-667,-679,-898,-1579,-1271,561,3082,2765,-665,-1338,-1123,-1162,-1230,-1279,-1405,-1420,-1036,-1190,-1434,-1259,-1254
2018-05-17,15:46:15.919,-1533,-1391,-1171,-1084,-1025,-807,-506,-359,-709,-719,-433,-564,-719,-422,-423,-431,-232,-552,-576,-440,-554,-492,-447,-423,-390,-426,-449,-355,-394,-372,-311,-525,-357,-360,-387,-352,-447,-427,-446,-912,-996,449,3137,3856,568,-793,-623,-802,-792,-801,-874,-773,-477,-526,-645,-555,-475,-518,-529,-436,-367,-301,-257,-219,-223,-291,-397,-278,-59,-161,-277,-256,-374,-332,-142,-37,-80,-107,-88,-116,21,43,-13,114,228,-4,235,470,152,-68,144,-17,-235,-191,156,251,-186,-850,-46,1434,3250,1920,-249,35,129,-315,-174,29,-41,-102,-310,-323,-141,-167,-197,-100,-34,-64,39,144,229,178,185,232,94,13,55,59
2018-05-17,15:46:16.956,-62,28,-44,-57,164,253,158,140,201,71,-205,122,441,325,181,259,463,276,171,58,361,479,280,137,172,30,-508,-432,1324,3299,2783,-2,-309,-258,-366,-613,95,-220,-310,-289,-437,-330,-590,-651,-379,-379,-155,-191,-225,-225,22,224,-186,-260,55,356,-196,-313,-196,-127,-240,-112,118,148,-166,-64,173,126,413,358,-45,80,455,386,255,373,452,460,231,271,372,290,-48,-730,-218,1424,2813,1525,-355,-345,-460,-582,-579,-544,-531,-541,-561,-553,-498,-443,-414,-416,-334,-251,-174,-93,-54,-105,-40,-73,-248,-321,-356,-423,-482,-520,-511,-423,-533,-497,-360,-305,-282,-214,-272,-83,-36,-90
2018-05-17,15:46:17.994,-50,-33,-57,-170,-253,-270,-218,-76,37,11,-110,-819,-756,902,3001,3230,347,-176,-67,-383,-344,18,-12,-314,-254,-225,-345,-225,-224,-88,-102,-333,-163,-74,24,150,141,90,-105,-159,-149,-144,-137,-106,-56,-11,-36,-93,-96,-97,-106,-105,-92,-93,-88,-37,-18,29,90,48,48,121,81,68,267,180,-100,-718,-851,562,2821,3867,315,-998,-850,-1058,-507,-120,-437,-534,-412,-407,-453,-605,-650,-562,-587,-622,-799,-744,-505,-332,-128,-158,-126,-141,-101,107,-77,-235,-119,-3,4,-5,-41,149,180,238,292,217,405,289,44,265,478,384,177,198,152,198,306,221,-63,-763,-571,981,3206,3173
2018-05-17,15:46:19.031,-156,-441,-225,-375,-361,-282,-217,-150,-110,-107,-196,-150,-121,-127,-131,-55,42,98,153,298,348,247,226,295,340,182,337,265,164,195,186,190,20,202,344,255,237,201,402,458,503,550,532,363,247,263,374,345,340,387,29,-612,-30,1798,3891,2743,101,71,23,-112,-41,-65,-21,125,62,-88,-151,-12,-90,-138,74,193,237,213,166,249,262,10,-203,-146,-247,-298,-297,-311,-229,-213,-172,-238,-250,-250,-252,-248,-268,-271,-253,-220,-142,-98,-63,-81,-121,-82,1,30,4,-71,-362,-1158,-491,1537,3785,2845,-815,-828,-556,-693,-723,-690,-633,-717,-683,-667,-724,-662,-709,-788,-768,-878
2018-05-17,15:46:20.068,-1054,-758,-580,-521,-590,-565,-439,-432,-175,-185,-387,-391,-264,-176,-181,-184,-230,-213,-67,-154,-245,-162,-47,102,27,-10,-17,-113,-91,-52,-27,-168,-212,-285,-888,-570,1027,3290,2863,-209,-630,-430,-564,-554,-460,-428,-456,-422,-394,-419,-369,-323,-314,-286,-352,-275,-113,-103,13,176,33,-116,19,-51,-130,-111,184,235,17,-47,-158,-14,-36,-53,61,137,48,-15,-15,99,142,289,380,288,301,348,227,78,133,-13,-619,-650,733,2802,3450,548,-582,-151,-249,-467,-467,-238,-441,-558,-313,-274,-524,-378,-257,-349,-178,39,-141,-243,-28,79,-109,-272,-278,-217,-165,-174,-162,-273,-271,-343,-309,-238
2018-05-17,15:46:21.105,-321,-614,-486,-337,-314,-208,-115,-135,-186,-107,-141,-160,-14,-85,-226,-150,-81,-228,-851,-1031,379,2430,3302,312,-933,-380,-529,-683,-612,-579,-563,-532,-500,-541,-503,-557,-431,-502,-356,-240,-312,-239,-85,-130,-98,-118,-296,-382,-350,-504,-453,-434,-507,-499,-550,-625,-565,-563,-479,-546,-250,-167,-333,-224,-68,123,286,263,158,151,425,539,362,651,391,-817,-825,1083,3004,2613,-173,-328,43,-272,-516,-261,-182,-349,-394,-282,-204,-219,-169,-113,-40,9,95,196,255,268,258,188,90,-24,-116,-176,-159,-192,-224,-197,-131,-75,-74,-72,-24,-39,-118,-139,-147,-139,-72,1,69,14,39,129,152,187
2018-05-17,15:46:22.142,144,45,44,-484,-855,206,2328,4148,1619,-659,-647,-778,-801,-511,-590,-703,-548,-448,-607,-443,-280,-419,-14,-9,-235,408,585,-104,13,285,1,-40,156,163,25,121,208,52,-221,-141,-163,-245,-86,79,58,48,77,75,147,293,428,391,445,485,498,448,325,440,531,291,-468,-342,1235,3664,4432,995,-289,-8,-52,-109,-194,-361,-220,-138,-38,-81,-101,34,-193,-72,79,84,21,31,25,-51,-95,-2,75,12,-41,-59,-194,32,251,254,97,126,88,-29,64,14,-29,227,502,132,77,387,182,146,150,186,228,133,-71,-458,-1001,-806,599,2944,3041,-19,-691,-464,-582,-643,-519,-438
2018-05-17,15:46:23.180,-604,-565,-560,-552,-531,-566,-607,-540,-463,-307,-198,-126,-65,-78,-263,-490,-389,-293,-235,-244,-243,-260,-224,-250,-343,-377,-349,-361,-350,-382,-367,-226,-155,44,205,63,80,49,46,43,12,-14,38,-24,-200,-1022,-1243,705,3874,5069,1024,-1064,-612,-802,-1028,-910,-681,-797,-626,-616,-863,-547,-452,-678,-488,-372,-406,-221,-87,-12,13,23,-114,-379,-378,-376,-371,-426,-439,-334,-312,-309,-328,-344,-360,-309,-243,-244,-228,-220,-147,-15,72,64,41,99,73,84,94,42,35,-83,-815,-697,1025,3930,4438,446,-838,-526,-521,-594,-632,-573,-575,-505,-509,-522,-424,-470,-377,-331,-445,-663,-326,-130,-163,-467
2018-05-17,15:46:24.217,-523,-378,-383,-262,-281,-369,-392,-211,-130,-65,-110,-377,-501,-264,24,-153,-159,-59,62,123,-128,-45,247,68,-210,80,103,-96,-162,-113,-753,-1078,269,3018,4348,1659,-573,-401,-389,-558,-638,-522,-431,-404,-371,-373,-369,-367,-380,-369,-306,-157,-50,10,86,153,80,-76,-163,-241,-168,-127,-98,-101,-94,-96,-167,-159,-139,-196,-262,-305,-311,-133,-114,-138,1,100,12,185,353,312,276,289,115,70,40,167,-347,-915,19,2382,4539,2709,-288,-178,-316,-619,-424,-161,-375,-516,-450,-274,-124,-322,-47,156,-599,-527,60,140,3,203,351,258,79,34,-50,-58,-101,-156,-44,-62,-6,-47,-80,-35
2018-05-17,15:46:25.254,-16,-49,-18,23,32,-23,-31,44,94,89,174,202,131,151,111,100,110,41,-435,-1001,53,2199,4033,2314,-553,-362,-379,-612,-791,-570,-585,-676,-532,-245,-313,-335,-470,-421,-425,-455,-196,-259,-120,-58,-9,-107,-123,17,100,171,42,173,182,157,184,9,408,458,334,427,325,377,445,482,833,878,387,558,871,465,245,470,567,606,664,494,-333,-438,1343,4044,4060,500,-437,-54,-278,-379,-292,-212,-173,-134,-97,-152,-236,-253,-195,-132,-131,-18,149,261,276,277,151,-27,-77,-53,-58,-16,9,-2,0,11,66,10,-49,-110,-186,-216,-1,67,-48,-105,-35,-2,48,-35,-133,210
2018-05-17,15:46:26.291,300,199,233,166,-30,247,207,-545,-1053,-149,1729,3719,1965,-335,-437,-572,-642,-682,-575,-466,-1047,-783,-210,-442,-648,-767,-596,-565,-374,-397,-745,-664,-490,-481,-297,-235,-328,-346,-308,-413,-241,-209,-243,-277,-216,-230,-222,-225,-343,-302,129,-65,-605,-578,-262,-134,302,188,-82,-110,-142,-70,-15,94,78,-302,-936,-939,369,2906,3576,759,-670,-544,-645,-703,-631,-665,-723,-786,-647,-566,-635,-587,-645,-655,-723,-463,-416,-439,-323,-126,-1,-85,-182,-48,-89,-5,-41,-256,-383,-57,-168,-294,-164,-148,-163,-232,-121,-73,15,-53,-83,-39,41,92,147,202,282,145,-137,154,321,62,91,53,-604,-1127
2018-05-17,15:46:27.328,-305,1482,3646,2861,-421,-683,-767,-852,-754,-647,-534,-666,-812,-623,-538,-814,-795,-556,-471,-394,-264,-100,30,62,46,24,-88,-330,-340,-278,-281,-337,-371,-320,-312,-315,-299,-321,-304,-251,-216,-188,-224,-290,-334,-297,-234,-240,-93,-44,-248,-259,-22,62,-87,-122,-79,-91,-903,-1218,82,2606,3473,587,-912,-703,-751,-744,-770,-676,-507,-699,-565,-402,-509,-237,-129,-325,-406,-246,-273,57,356,134,107,61,-100,-195,-42,105,66,116,192,182,128,97,144,302,87,131,72,129,132,229,337,121,101,129,159,260,101,-21,55,89,51,38,38,40,-267,-853,-382,1438,3575,3186,-21,-205,-53,-291
2018-05-17,15:46:28.365,-288,-229,-216,-124,-72,-89,-89,-78,-37,144,175,291,371,257,298,372,382,253,-51,188,127,185,177,288,274,146,347,309,368,620,539,454,576,683,219,395,704,612,338,560,645,787,731,199,226,572,560,329,268,202,-84,-516,155,2401,4639,2296,-677,-410,-296,-590,-701,-631,-635,-613,-547,-461,-426,-517,-443,-467,-414,-345,-331,-361,-165,-5,-82,-215,-360,-144,-155,-291,-163,-68,-155,-206,-199,-133,-152,-154,-163,-209,-132,-81,-164,-78,-15,-87,-116,-79,107,8,-245,-284,-31,-48,-214,-203,-226,-579,-1360,-1019,1002,3799,3487,-58,-960,-703,-847,-927,-773,-797,-738,-736,-685,-732,-700,-583
2018-05-17,15:46:29.403,-728,-620,-338,-656,-601,-161,-144,-463,-380,-260,-366,-399,-324,-315,-289,-234,-214,-318,-349,-238,-146,-327,-396,-448,-211,-202,-437,-45,-356,105,263,-370,-435,169,218,-453,-51,311,6,-239,-409,-837,-701,731,3133,4034,761,-835,-376,-474,-667,-701,-583,-522,-504,-379,-331,-377,-343,-284,-170,-10,130,273,382,530,501,378,183,102,157,242,48,179,64,48,1,-39,-153,-144,-28,29,-36,189,217,-250,-479,-325,-243,-81,421,188,-375,33,202,-2,-67,6,90,158,-289,-1275,-235,2297,3612,1419,-674,-330,-606,-1154,-990,-824,-928,-782,-734,-563,-434,-497,-548,-507,-542,-426,-324,-206,-196,-141,-110,-197
2018-05-17,15:46:30.440,-298,-282,-383,-431,-352,-244,-248,-189,-182,-255,-200,-89,46,16,-15,58,100,93,65,111,168,221,305,259,204,191,186,132,176,260,120,-510,-1309,-129,3638,6508,3734,-476,-391,-772,-1110,-630,-316,-864,-767,-239,-548,-652,-176,-67,-553,-808,-272,-74,-328,-177,-234,-253,-174,-198,-154,-139,-279,-149,-78,-25,-11,-14,-23,-43,-59,-94,-72,-112,-3,79,35,15,117,325,370,320,332,364,384,387,400,385,364,-94,-873,-153,2003,4715,3902,-228,-671,-562,-830,-883,-888,-892,-884,-830,-788,-754,-679,-635,-803,-1173,-930,-588,-206,-135,-626,-444,-468,-873,-658,-435,-404,-278,-554,-498,-415,-376,-836,-1064
2018-05-17,15:46:31.477,-661,-852,-547,-240,-363,-634,-560,-475,-343,-439,-489,-203,-126,-207,-306,-288,-260,-136,-281,-756,-1164,-566,1487,3450,2121,-714,-610,-444,-618,-557,-529,-502,-438,-423,-399,-444,-467,-600,-646,-306,-177,-68,110,57,125,143,57,12,-60,-95,33,-228,79,199,172,194,154,186,162,266,266,316,273,108,51,164,366,346,383,758,469,136,566,651,103,189,619,181,-818,-500,1512,3083,2526,41,-490,-284,-425,-306,-260,-220,-335,-670,-512,-394,-344,-241,-147,24,235,-129,-53,256,405,389,313,229,216,65,-2,109,157,70,120,204,186,214,220,219,245,226,265,369,356,397,499,607,599,608
2018-05-17,15:46:32.514,680,665,633,586,504,403,122,-694,-469,1353,3871,4257,572,-440,-309,-539,-631,-597,-517,-409,-457,-627,-493,-415,-499,-568,-459,-470,-488,-262,-150,92,277,337,69,-211,-126,-61,0,-86,-59,-173,-146,-88,116,43,-284,-116,-56,-191,-124,102,56,-235,-30,348,142,-397,-87,107,78,82,94,-226,-881,-624,1298,3697,3307,-53,-628,-475,-575,-453,-444,-529,-499,-301,-182,-123,-300,-375,-261,-133,0,39,73,217,174,58,208,81,-91,-226,-337,-156,-218,-150,-180,-21,-125,-288,-208,-322,-148,-85,-65,86,138,209,334,225,284,318,203,143,82,208,179,-37,-95,-485,-857,112,1986,3404,1242,-691
2018-05-17,15:46:33.551,-333,-258,-602,-603,-555,-621,-561,-420,-340,-518,-521,-317,-230,-203,-253,-178,14,64,100,57,-108,-255,-339,-397,-392,-394,-353,-342,-306,-354,-317,-284,-192,-172,-158,-156,-145,-145,52,78,125,159,16,-185,-61,30,153,236,263,62,-536,-1147,-53,2272,4178,2033,-508,-429,-591,-745,-746,-814,-713,-759,-669,-867,-593,-415,-651,-690,-526,-441,-352,-459,-298,-298,-169,-169,-93,244,75,-368,-380,-130,-64,-146,-272,-51,-17,-76,23,-42,-241,-256,116,71,55,-162,-287,-70,-37,28,115,140,124,99,-1,-543,-1046,-11,2491,4157,1818,-725,-424,-491,-659,-469,-506,-483,-362,-396,-283,-133,-284,-349,-235,-171
2018-05-17,15:46:34.589,-37,89,294,432,552,548,401,359,317,184,150,114,119,84,146,57,104,155,20,18,14,-189,-115,-130,-175,112,239,-210,-69,285,-66,-128,213,-65,-310,60,197,-806,-1450,-538,1581,4307,4071,-89,-959,-754,-1072,-1003,-943,-961,-780,-614,-559,-583,-479,-451,-428,-393,-306,-226,-140,-80,27,71,9,8,-92,-102,-27,-69,-7,58,56,33,11,18,91,89,95,160,213,177,262,342,364,430,517,527,472,455,455,476,484,455,326,-367,-1048,434,3666,6277,3357,-699,-677,-676,-927,-609,-548,-740,-460,-389,-537,-381,-356,-525,-403,-437,-538,-434,-208,113,221,-263,-362,-216,-350,-694,-463,-267
2018-05-17,15:46:35.626,-208,-105,-233,-220,-89,-71,-148,-83,-22,-47,-122,-10,142,152,142,147,236,238,178,213,208,139,74,203,276,-106,-930,-446,1741,4546,4001,-16,-675,-492,-637,-634,-572,-501,-447,-395,-393,-432,-500,-521,-502,-484,-459,-372,-248,-82,64,126,152,98,130,-104,-258,85,-37,-438,-250,58,183,355,212,-225,-177,159,-231,-360,175,289,115,282,290,147,224,-19,-329,-83,236,284,242,10,-688,-872,674,3286,4285,1071,-630,-301,-411,-539,-564,-478,-454,-423,-375,-393,-349,-326,-327,-340,-295,-142,12,106,200,193,140,101,33,5,31,35,66,105,76,26,-1,-46,-50,-98,-87,-109,-138,-144
2018-05-17,15:46:36.663,-171,-176,-172,-151,-73,24,3,-63,-185,-14,-168,-622,-584,-450,-872,-1232,-191,2116,4767,2376,-1414,-1193,-1232,-1391,-1189,-951,-1179,-1469,-1204,-1213,-1185,-1036,-1169,-1243,-1179,-1114,-1010,-823,-753,-672,-624,-584,-560,-535,-591,-566,-502,-437,-440,-479,-424,-422,-492,-495,-363,-300,-243,-218,-238,-253,-184,-65,21,57,99,92,59,56,76,39,38,83,-59,-848,-864,902,4011,4792,929,-671,-371,-498,-728,-662,-688,-640,-534,-574,-631,-559,-637,-699,-598,-462,-481,-536,-284,-80,-104,-64,-180,-192,-278,-330,-168,-159,-301,-168,-102,-21,3,-71,-317,-296,-123,5,102,106,-27,-119,-58,35,262,328,335,252,237,380
2018-05-17,15:46:37.700,241,165,213,129,-557,-658,942,3365,3716,562,-474,-177,-369,-444,-406,-343,-271,-243,-205,-189,-191,-174,-164,-152,-109,-113,166,211,240,277,289,228,169,111,62,135,126,137,120,83,74,40,22,-11,16,103,138,140,86,20,33,-23,105,273,271,128,3,93,117,33,46,91,-212,-1056,-730,1289,3904,3795,136,-730,-623,-903,-871,-772,-771,-723,-759,-717,-621,-684,-877,-703,-495,-559,-468,-283,-143,-251,-322,-41,-15,-232,-298,-222,-188,8,0,8,-144,-3,174,3,-136,200,203,178,288,286,154,132,137,197,327,401,346,301,294,279,222,194,237,94,-590,-824,625,3202,4454,1177
2018-05-17,15:46:38.737,-552,-212,-420,-556,-477,-439,-411,-404,-283,-258,-541,-574,-457,-359,-423,-390,-43,101,-116,-170,-113,-315,-209,200,207,-164,-247,-283,-193,-150,-192,-154,33,144,83,97,98,8,-98,-124,-205,-93,170,156,-71,74,239,241,237,195,160,114,239,-278,-699,256,2382,3654,1646,-297,-290,-444,-372,-374,-392,-361,-376,-346,-331,-349,-380,-422,-370,-267,-232,-200,-25,49,63,86,70,-17,-70,-102,4,82,76,78,91,65,99,97,75,103,118,157,189,127,7,213,199,44,122,225,104,181,310,118,151,103,11,-56,-524,-1246,-614,1487,3952,3312,-294,-817,-681,-841,-767,-652,-700,-903,-822,-656
2018-05-17,15:46:39.775,-487,-516,-533,-517,-614,-456,-397,-344,-192,-180,-172,-56,-204,-175,-149,-296,-297,-269,-192,-99,-134,-217,-174,-112,3,8,-65,-76,-60,-101,-75,-25,42,104,202,188,163,174,184,172,199,226,184,-195,-860,-161,1848,4328,3284,-143,-345,-316,-500,-452,-335,-341,-304,-314,-404,-397,-254,-177,-450,-483,-202,-206,-138,137,216,198,181,123,266,313,47,43,332,381,176,117,135,185,202,124,-11,83,234,197,-194,-46,212,227,219,310,268,276,313,89,232,267,296,269,-225,-817,41,2165,3905,2113,-348,-341,-396,-479,-433,-442,-445,-407,-404,-384,-395,-452,-435,-398,-370,-293,-199,-96,28,76
2018-05-17,15:46:40.812,114,95,23,7,-27,-66,-51,-17,-8,-62,-90,-113,-69,-64,-66,-13,193,314,-107,-278,-241,-94,-193,-173,119,193,62,-49,-190,-104,-94,-194,-305,-507,-1305,-868,1417,4115,3207,-594,-1228,-1039,-987,-886,-756,-932,-983,-875,-879,-788,-733,-690,-631,-791,-685,-468,-368,-332,-230,-130,-111,-182,-411,-379,-267,-273,-342,-256,-170,-194,-179,-197,-160,-140,-142,-84,33,160,-3,48,87,150,285,347,332,313,331,371,364,362,370,272,-331,-998,188,2406,4784,2591,-561,-521,-569,-743,-768,-717,-651,-740,-749,-703,-669,-700,-673,-617,-637,-614,-582,-625,-507,-262,-395,-463,-235,-377,-410,-389,-449,-325,-271,-320
2018-05-17,15:46:41.849,-329,-370,-345,-300,-400,-357,-111,-150,-368,-419,-179,-49,-164,-117,-21,38,74,100,107,132,174,185,59,-596,-676,651,3193,3982,820,-506,-373,-462,-513,-434,-373,-320,-309,-272,-255,-284,-323,-303,-287,-293,-228,-83,13,81,153,135,133,164,92,144,246,279,299,269,240,186,232,204,263,253,255,285,192,158,166,210,270,377,308,252,363,287,223,340,520,338,72,289,236,-957,-1118,630,3436,4629,1675,-804,-666,-605,-659,-631,-596,-462,-471,-537,-330,-432,-511,-398,-458,-364,25,111,-182,-246,-99,75,-30,-308,-260,-282,-247,-129,-138,-163,-193,-82,-58,-254,-199,-122,-65,-180,-85,-53
2018-05-17,15:46:42.886,-91,-107,-15,-29,-64,69,137,94,52,101,122,155,101,106,-10,-711,-850,744,3092,4287,928,-556,-254,-476,-633,-646,-549,-496,-482,-476,-425,-444,-444,-395,-442,-507,-377,-346,-312,-265,-367,-251,-113,-225,-403,-278,-293,-310,-144,-394,-849,-739,-462,-362,-446,-321,-328,-533,-513,-266,-230,-395,-233,-129,-298,-269,-230,-359,-205,-126,-78,63,28,-96,-3,-418,-1094,-436,1416,3587,2627,-228,-314,-253,-351,-414,-415,-345,-334,-305,-246,-231,-222,-170,-213,-189,-129,-71,45,136,192,275,259,211,243,194,231,305,368,375,398,399,373,386,392,365,345,302,365,397,450,436,360,409,390,329,486,475
2018-05-17,15:46:43.923,408,460,345,377,453,351,513,212,-615,-1243,-421,2319,5551,4563,-185,-1088,-653,-771,-887,-818,-602,-479,-706,-743,-588,-637,-543,-566,-620,-378,-317,-377,-313,-220,-122,-79,-249,-281,-205,-265,-392,-384,-251,-178,-200,-164,-190,-250,-245,-233,-173,-204,-199,0,-77,-133,-111,-103,-52,-7,33,110,145,113,63,59,95,104,156,143,4,-711,-921,718,3445,4961,1235,-625,-331,-498,-791,-743,-628,-614,-591,-577,-538,-562,-439,-530,-733,-636,-525,-464,-391,-181,-223,-340,-155,-252,-504,-521,-240,-363,-495,-315,-300,-490,-654,-654,-642,-576,-393,-250,-433,-508,-441,-389,-348,-189,-220,-396,-346,-231,1,-103,-318,-389
2018-05-17,15:46:44.960,-215,-180,-132,8,-112,-795,-1101,47,2211,3339,982,-542,-387,-558,-637,-524,-522,-596,-474,-450,-420,-417,-487,-429,-505,-364,-222,76,47,56,170,179,93,107,126,167,200,247,310,340,388,386,370,344,343,293,278,272,406,422,433,408,413,410,360,381,434,434,459,509,362,411,486,306,194,267,336,160,-474,-781,463,3456,5194,2236,-905,-765,-616,-559,-749,-882,-724,-589,-426,-431,-717,-867,-883,-695,-605,-510,-301,-58,-336,-372,-171,-172,-297,-311,-308,-259,-257,-292,-248,-239,-261,-244,-147,-198,-234,-192,-362,-325,-197,-117,-14,116,-212,-381,-250,-216,-188,-128,-28,43,-27,-151,-159,-134
2018-05-17,15:46:45.998,-168,-134,-170,-378,-1058,-921,714,3273,3562,135,-742,-591,-770,-910,-888,-836,-787,-712,-716,-721,-679,-659,-676,-662,-672,-568,-438,-419,-348,-263,-180,-166,-164,-181,-189,-157,-138,-147,-143,-121,-135,-142,-152,-150,-117,-69,-27,0,18,1,-13,0,-6,8,2,28,115,170,116,90,103,155,133,69,63,22,-446,-831,92,1995,3504,1674,-363,-233,-361,-458,-411,-364,-368,-323,-273,-263,-270,-297,-315,-300,-337,-333,-256,-202,-100,-30,30,60,21,-33,-35,-27,26,28,4,-4,32,-2,1,19,21,27,52,72,75,105,141,154,143,120,99,78,133,191,249,216,160,156,151,133,148,133
2018-05-17,15:46:47.035,139,-130,-817,-451,1507,3898,3364,-7,-522,-390,-544,-556,-513,-456,-407,-404,-380,-342,-323,-359,-333,-328,-288,-245,-133,-36,22,50,44,-18,-11,28,41,53,86,118,101,81,70,122,103,84,147,172,185,177,198,241,253,231,201,215,156,144,134,167,219,274,272,270,300,334,310,295,301,272,8,-656,-280,1239,3447,3403,236,-282,-217,-447,-553,-522,-474,-463,-434,-449,-453,-454,-472,-494,-501,-503,-493,-453,-368,-270,-171,-98,-89,-101,-128,-144,-128,-128,-113,-124,-136,-129,-164,-181,-176,-140,-78,-58,-27,-5,38,60,27,-9,-31,-27,0,42,103,74,23,44,50,50,32,30
2018-05-17,15:46:48.072,5,-226,-856,-575,1006,3204,2937,79,-566,-527,-649,-646,-594,-571,-544,-515,-498,-499,-524,-518,-484,-503,-490,-452,-376,-289,-209,-159,-114,-103,-93,-88,-56,-19,22,8,2,33,54,51,51,56,47,69,91,103,107,109,104,110,104,75,43,40,83,129,210,193,103,110,127,134,140,142,151,-12,-666,-696,796,3251,3749,586,-515,-290,-447,-550,-517,-479,-438,-378,-363,-387,-427,-421,-416,-419,-396,-364,-308,-223,-125,-35,-35,-86,-95,-90,-44,-25,-36,-10,25,73,-1,-42,-40,1,51,47,121,194,202,206,226,215,219,232,234,233,282,347,350,342,319,283,281,324,308,306
2018-05-17,15:46:49.109,173,-510,-443,837,2805,3573,773,-103,-3,-198,-292,-284,-223,-170,-167,-179,-172,-141,-141,-164,-182,-170,-144,-108,-24,83,169,271,325,324,325,321,319,328,332,331,325,312,311,321,328,352,387,404,429,441,447,453,449,392,377,405,421,462,503,460,418,390,386,382,348,343,298,-87,-632,-37,1629,3574,2590,58,-231,-301,-436,-423,-395,-361,-334,-346,-414,-391,-412,-476,-537,-586,-607,-599,-557,-471,-395,-302,-237,-218,-219,-232,-230,-200,-192,-219,-236,-210,-182,-235,-327,-286,-240,-261,-284,-246,-249,-269,-271,-271,-251,-228,-249,-293,-205,-255,-286,-267,-264,-334,-334,-338,-414,-635,-1280,-1131
2018-05-17,15:47:01.108,-20,-27,-128,-20,69,54,-40,-71,-41,32,100,186,261,354,402,413,469,479,424,556,644,642,558,662,574,604,552,597,585,568,611,672,609,551,549,504,435,432,462,479,570,517,429,395,348,360,312,309,262,57,-566,-657,642,3261,3976,852,-548,-518,-598,-676,-702,-694,-697,-656,-697,-763,-792,-778,-795,-883,-959,-950,-907,-849,-755,-693,-638,-581,-544,-493,-498,-436,-387,-373,-422,-470,-465,-457,-479,-512,-502,-461,-424,-423,-425,-376,-331,-360,-463,-532,-543,-464,-349,-245,-294,-321,-221,-187,-332,-487,-480,-442,-557,-924,-575,726,2789,2759,-112,-801,-722,-755,-833,-857,-760,-759,-737,-720
2018-05-17,15:47:02.145,-635,-635,-742,-760,-721,-599,-573,-691,-544,-389,-324,-312,-276,-254,-323,-358,-289,-219,-204,-204,-196,-171,-164,-218,-234,-219,-120,-73,-76,-68,-35,16,-40,-77,-105,-161,-151,-8,116,116,32,34,73,97,-135,-1,239,134,-351,-829,34,1936,3946,2100,-452,-473,-511,-582,-586,-570,-504,-473,-439,-386,-416,-416,-390,-386,-333,-279,-364,-283,-153,5,141,0,-25,28,76,-43,156,305,176,27,171,284,310,221,179,197,292,294,269,322,389,311,289,175,200,200,128,200,358,301,217,181,168,150,92,76,32,-479,-794,333,2221,3716,1437,-644,-596,-569,-782,-778,-772,-705,-629,-601,-595,-549
2018-05-17,15:47:03.182,-743,-743,-529,-487,-543,-511,-467,-348,-192,-59,-159,-234,-401,-313,-247,-321,-331,-275,-252,-275,-353,-292,-228,-178,-198,-250,-110,-159,-236,-5,-20,-164,-171,42,119,116,190,189,169,168,175,166,160,115,43,-364,-850,28,1742,3481,1901,-497,-351,-447,-589,-580,-557,-527,-515,-527,-525,-487,-488,-508,-459,-427,-398,-366,-299,-249,-137,-5,56,-5,-103,-113,-141,-63,-36,34,-6,-21,42,-63,-132,-35,66,130,161,167,228,130,21,114,209,229,154,182,236,189,166,163,142,102,139,152,177,-459,-786,366,2288,3072,751,-358,-136,-384,-481,-479,-356,-264,-281,-290,-248,-248,-268,-251,-252,-251
