2018-05-17,17:44:11.333,277,278,275,268,216,168,109,119,146,115,89,156,222,305,313,294,312,331,317,276,176,-58,-334,-830,-433,458,870,903,636,374,185,96,57,33,5,-12,-30,-64,-87,-92,-93,-115,-161,-183,-247,-304,-359,-366,-382,-410,-392,-386,-359,-290,-217,-100,3,101,197,291,359,397,375,367,326,294,270,228,240,229,207,185,191,183,161,177,176,158,163,142,133,122,69,2,-72,-62,-25,-72,-84,-8,64,139,143,140,136,129,129,115,15,-257,-502,-912,-129,885,1157,842,318,-33,-165,-160,-166,-215,-227,-248,-269,-270,-287,-289,-282,-294,-330,-381,-442,-472,-515,-553,-579,-587
2018-05-17,17:44:12.695,-582,-556,-514,-408,-285,-132,12,170,319,415,463,479,469,432,400,356,317,281,264,249,222,227,224,209,175,153,156,187,173,128,124,132,119,106,125,2,-119,-147,-118,-86,-133,-118,-43,31,93,99,126,134,92,74,63,-94,-414,-719,-1126,-94,770,1132,767,284,-37,-168,-206,-205,-215,-245,-262,-260,-275,-308,-321,-330,-345,-359,-386,-436,-495,-547,-595,-636,-633,-589,-553,-508,-448,-358,-224,-54,109,258,363,421,445,437,404,368,338,318,297,281,277,260,263,244,239,254,256,258,245,236,230,212,172,85,16,-27,-15,15,-35,-40,2,88,184,180,154,147,156,133
2018-05-17,17:44:13.732,119,-53,-388,-746,-1081,-3,802,1157,751,277,-19,-130,-157,-168,-192,-208,-224,-244,-267,-286,-318,-361,-372,-374,-430,-476,-516,-545,-572,-601,-605,-575,-553,-508,-417,-293,-152,7,176,324,399,435,443,425,397,382,347,299,269,251,233,242,224,222,223,217,198,226,193,175,183,100,5,-50,-51,-9,-69,-114,-24,73,159,176,174,153,131,118,88,-36,-343,-659,-1182,-372,596,1117,846,361,13,-139,-166,-192,-203,-226,-253,-287,-316,-333,-343,-383,-397,-439,-464,-508,-533,-583,-618,-646,-654,-643,-582,-528,-471,-360,-229,-64,97,225,310,355,375,356,338,316,298,273,240,224,224,217
2018-05-17,17:44:14.769,220,224,228,246,249,246,246,187,92,41,39,78,59,45,128,208,316,361,353,334,351,352,313,210,-78,-395,-947,-226,837,1408,1168,625,279,141,98,87,73,48,23,4,-25,-53,-58,-78,-121,-159,-210,-236,-280,-340,-394,-423,-424,-407,-380,-329,-269,-183,-44,87,236,365,428,460,473,467,438,395,351,326,282,261,256,252,221,205,196,195,183,154,106,27,-6,37,51,-23,-52,17,53,129,148,134,109,85,69,35,-78,-353,-670,-1193,-518,348,828,651,304,24,-113,-184,-220,-249,-253,-272,-296,-309,-333,-349,-366,-381,-406,-431,-461,-504,-550,-576,-579,-574,-556,-514
2018-05-17,17:44:15.807,-479,-424,-313,-197,-78,48,172,217,239,242,219,190,163,138,123,96,90,84,77,75,68,77,65,40,-27,-84,-79,-37,-20,-91,-50,-24,59,120,126,119,105,91,68,6,-226,-516,-912,-827,230,754,820,442,147,-51,-129,-151,-162,-188,-228,-245,-246,-271,-289,-290,-311,-356,-374,-387,-433,-491,-529,-574,-581,-572,-536,-480,-403,-323,-224,-100,46,159,230,296,306,305,313,298,254,232,206,180,157,145,141,156,157,142,141,134,56,-8,-41,-9,-12,-79,-17,40,116,190,190,182,170,161,161,122,-118,-444,-840,-817,361,1003,1074,550,135,-85,-156,-174,-169,-196,-204,-226
2018-05-17,17:44:16.844,-255,-284,-308,-319,-348,-373,-392,-415,-474,-539,-589,-623,-625,-608,-583,-536,-487,-382,-249,-95,52,190,270,311,346,335,320,301,256,229,206,192,166,156,168,183,168,166,159,163,146,136,86,-3,-65,-68,-29,-42,-95,-18,35,138,180,176,176,166,134,103,6,-305,-628,-1098,-412,616,1060,821,291,-37,-184,-209,-217,-238,-246,-265,-270,-287,-285,-309,-346,-364,-371,-377,-410,-441,-473,-513,-526,-518,-479,-420,-348,-278,-189,-57,104,261,394,484,524,539,532,504,483,470,445,425,414,412,406,400,408,426,412,412,412,417,425,406,343,274,233,235,268,233,195,288,326,417
2018-05-17,17:44:17.881,429,409,401,398,381,343,207,-89,-435,-938,-270,594,1025,871,513,236,76,11,-14,-35,-67,-89,-123,-145,-169,-213,-238,-269,-290,-352,-392,-430,-485,-501,-513,-490,-480,-459,-421,-371,-298,-200,-99,1,96,146,171,181,167,122,101,84,58,33,18,28,15,-6,-31,-22,-14,-6,-22,-30,-36,-109,-169,-189,-157,-157,-226,-169,-136,-79,-7,-19,-28,-30,-25,-30,-94,-309,-591,-947,-1062,-74,496,667,386,111,-105,-193,-233,-243,-247,-247,-271,-299,-321,-343,-354,-368,-407,-430,-441,-464,-493,-530,-566,-576,-552,-529,-473,-395,-299,-179,-61,27,129,238,285,306,303,299,280,243,206,181
2018-05-17,17:44:18.918,150,139,118,99,94,83,99,114,92,90,96,96,40,-42,-97,-105,-63,-67,-86,-25,12,113,135,122,113,100,80,92,-28,-366,-640,-999,-131,781,1063,736,263,-25,-147,-169,-173,-197,-219,-237,-256,-266,-293,-331,-343,-359,-397,-422,-464,-512,-554,-584,-599,-592,-575,-551,-490,-405,-291,-160,-22,117,234,305,343,331,316,289,259,221,190,181,169,137,125,115,115,124,117,118,129,141,139,145,126,100,97,90,33,-55,-108,-83,-54,-90,-109,-28,29,131,146,135,136,124,122,86,-99,-414,-739,-1009,71,888,1112,701,239,-38,-134,-150,-179,-195,-203,-207,-223,-233,-239,-249
2018-05-17,17:44:19.955,-274,-289,-320,-344,-382,-442,-489,-513,-511,-502,-470,-417,-350,-252,-119,21,175,316,425,507,539,523,526,507,465,423,394,364,327,309,308,290,294,300,297,281,276,276,272,275,261,253,231,205,183,116,42,40,86,98,15,59,104,181,223,228,232,232,220,197,114,-157,-439,-900,-697,326,868,916,568,261,45,-34,-69,-82,-89,-107,-144,-157,-174,-214,-221,-235,-269,-300,-323,-364,-407,-436,-479,-488,-456,-406,-359,-287,-211,-108,-5,110,211,302,343,343,326,311,283,238,219,215,188,151,139,147,136,118,119,127,134,139,136,102,95,87,76,86,57,-6,-85,-99
2018-05-17,17:44:20.992,-61,-59,-112,-101,-52,16,78,76,87,84,67,49,1,-194,-453,-807,-976,-11,561,748,498,243,15,-76,-147,-151,-151,-186,-194,-197,-212,-235,-241,-256,-280,-305,-331,-367,-435,-482,-485,-486,-470,-441,-403,-340,-254,-152,-36,80,178,261,324,328,321,316,299,258,207,175,150,120,98,80,84,92,83,79,91,90,72,64,59,71,56,42,26,-40,-138,-185,-156,-113,-170,-139,-91,-41,38,60,52,43,35,17,-16,-216,-529,-871,-936,225,814,924,468,74,-133,-202,-234,-247,-248,-265,-306,-328,-333,-340,-351,-382,-418,-445,-480,-515,-562,-594,-637,-664,-650,-603,-557,-487,-382,-245
2018-05-17,17:44:22.030,-86,64,211,320,415,462,456,440,399,363,332,320,313,297,276,273,269,288,297,290,313,326,313,320,324,329,332,333,317,313,323,299,199,131,143,196,211,149,189,245,340,395,383,388,378,369,364,310,40,-276,-724,-424,786,1255,1194,690,304,105,30,22,8,-15,-42,-80,-102,-115,-149,-175,-219,-259,-300,-355,-413,-474,-526,-567,-590,-601,-568,-538,-476,-388,-239,-73,68,207,310,361,365,341,294,244,215,193,150,108,93,62,41,9,-13,-19,-32,-25,-15,-24,-56,-66,-70,-85,-106,-119,-124,-149,-163,-170,-194,-262,-350,-404,-392,-358,-399,-426,-352,-280,-187,-191
2018-05-17,17:44:23.067,-187,-178,-190,-210,-226,-394,-701,-1038,-1422,-478,277,598,369,55,-191,-328,-376,-369,-378,-389,-410,-407,-409,-435,-443,-454,-464,-480,-523,-560,-574,-622,-650,-652,-635,-598,-555,-498,-419,-305,-170,-54,56,169,237,291,297,275,254,235,219,184,143,132,118,130,129,112,110,128,128,131,126,126,128,121,138,139,120,97,89,84,32,-54,-86,-51,-32,-63,-64,-5,48,115,130,125,115,109,95,76,-98,-372,-697,-975,-77,576,832,629,371,130,13,-24,-38,-52,-83,-102,-122,-135,-135,-147,-164,-202,-212,-249,-299,-343,-383,-421,-445,-430,-400,-340,-281,-214,-76,63,172,275,375,438
2018-05-17,17:44:24.104,454,458,444,414,396,374,326,288,257,236,232,226,223,225,224,208,194,205,212,205,197,202,190,184,164,179,91,8,-14,28,57,-8,16,66,134,213,246,231,218,205,181,136,-70,-392,-730,-776,424,1022,1103,608,207,-7,-86,-114,-114,-144,-173,-183,-198,-212,-228,-242,-270,-292,-325,-372,-416,-480,-540,-599,-628,-608,-571,-517,-446,-331,-188,-14,152,282,386,452,467,437,415,389,342,294,263,256,226,184,170,155,134,125,126,114,106,117,101,88,89,82,58,20,12,5,-9,-27,-27,-29,-36,-51,-71,-128,-212,-270,-257,-210,-239,-251,-169,-119,-7,32,26,45
2018-05-17,17:44:25.141,51,50,35,-135,-453,-770,-1026,60,861,1142,770,322,53,-49,-78,-72,-81,-87,-88,-93,-109,-127,-140,-136,-141,-158,-173,-218,-262,-311,-341,-368,-355,-321,-285,-214,-125,0,164,336,481,589,683,729,745,747,732,691,658,625,602,562,529,501,489,476,467,475,458,446,436,436,427,418,391,389,402,387,357,341,327,266,183,127,151,153,67,68,99,137,196,207,188,176,163,137,74,-110,-402,-750,-1106,-235,483,747,532,257,8,-135,-201,-235,-250,-273,-309,-340,-369,-389,-388,-419,-464,-522,-558,-585,-633,-684,-711,-746,-743,-710,-655,-599,-520,-415,-287,-171,-77,-2,61,107
2018-05-17,17:44:26.178,108,80,59,28,-24,-64,-80,-96,-122,-123,-121,-122,-141,-139,-154,-148,-146,-150,-148,-137,-151,-138,-158,-171,-190,-188,-186,-243,-338,-366,-330,-293,-318,-314,-261,-223,-127,-107,-109,-101,-97,-107,-128,-272,-575,-867,-1164,-229,479,737,459,139,-138,-251,-271,-278,-293,-315,-334,-350,-344,-349,-357,-376,-406,-425,-463,-520,-554,-583,-629,-647,-638,-620,-591,-530,-437,-282,-127,-13,125,237,298,319,324,325,298,271,247,213,173,149,136,123,107,113,104,94,106,108,108,117,117,117,111,94,105,110,102,33,-35,-88,-92,-47,-68,-101,-44,32,123,146,148,150,154,143,122,-5,-325,-618
2018-05-17,17:44:27.215,-1047,-18,883,1162,794,304,3,-97,-129,-124,-136,-138,-164,-197,-211,-227,-240,-255,-281,-300,-331,-374,-429,-509,-579,-590,-583,-561,-516,-448,-355,-215,-22,147,289,411,500,533,527,512,480,444,409,372,334,305,281,257,257,256,249,243,233,219,231,221,224,218,203,210,188,171,155,161,158,81,-7,-72,-39,26,-33,-38,17,78,176,185,169,171,163,143,127,-32,-345,-691,-1018,1,790,1094,742,316,42,-73,-101,-116,-144,-173,-180,-200,-227,-239,-252,-282,-282,-301,-359,-400,-437,-494,-539,-547,-551,-529,-473,-423,-332,-198,-54,90,224,340,437,472,446,405,384,372,342,269
2018-05-17,17:44:28.253,236,221,210,179,169,174,167,165,166,168,156,138,142,144,141,132,116,95,82,49,-3,-45,-18,-15,-90,-94,-20,28,95,114,117,114,109,99,79,-77,-354,-663,-1052,-287,445,742,588,344,106,-59,-108,-102,-115,-126,-139,-153,-179,-197,-219,-227,-253,-287,-314,-337,-382,-427,-443,-440,-442,-428,-375,-302,-228,-136,-33,95,211,290,344,358,359,362,330,308,270,237,227,202,170,157,143,134,127,120,121,128,117,109,106,97,114,119,118,107,85,64,-5,-76,-95,-51,-26,-70,-20,0,65,107,113,115,120,113,101,25,-232,-519,-903,-696,331,752,775,429,158,-40
2018-05-17,17:44:29.290,-115,-120,-126,-144,-164,-175,-196,-211,-231,-241,-252,-294,-336,-359,-395,-449,-507,-536,-530,-510,-477,-438,-375,-267,-135,15,144,258,333,366,402,388,346,330,307,268,229,198,168,143,127,122,117,112,120,121,122,109,111,106,112,110,95,83,69,9,-73,-126,-98,-59,-72,-94,-38,14,101,125,142,134,107,87,65,-68,-414,-691,-1046,-70,828,1067,693,238,-66,-167,-170,-178,-179,-204,-232,-229,-245,-280,-292,-315,-326,-357,-400,-444,-502,-559,-611,-638,-637,-611,-579,-514,-406,-263,-95,76,243,359,414,449,457,420,381,352,309,268,230,187,165,144,116,122,121,108,104,85
2018-05-17,17:44:30.327,89,80,67,55,54,42,33,25,8,-11,-39,-48,-52,-53,-56,-68,-79,-78,-79,-98,-114,-127,-108,-114,-195,-297,-295,-287,-321,-304,-196,-65,9,48,100,122,117,110,97,-15,-316,-612,-937,-36,866,1225,949,502,189,67,47,61,69,50,49,36,31,48,59,35,2,-11,-31,-89,-129,-164,-200,-230,-244,-214,-174,-118,-42,74,228,383,533,666,755,812,813,807,774,741,688,644,593,537,503,479,439,408,385,367,372,353,328,279,250,242,240,205,180,172,154,113,69,53,45,24,-16,-28,-38,-61,-81,-101,-135,-149,-158,-159,-181,-215,-214,-229,-244,-241,-250,-278
2018-05-17,17:44:31.364,-360,-445,-434,-388,-414,-453,-398,-359,-299,-274,-271,-266,-282,-298,-327,-532,-820,-1200,-1374,-373,166,359,173,-47,-289,-420,-461,-463,-469,-488,-502,-512,-516,-505,-523,-549,-573,-608,-638,-686,-714,-744,-791,-811,-794,-747,-706,-657,-581,-481,-371,-247,-133,-26,55,89,107,105,95,62,24,-9,-25,-46,-70,-93,-78,-76,-76,-77,-67,-82,-97,-86,-62,-40,-42,-62,-53,-45,-60,-142,-210,-207,-150,-140,-189,-131,-104,-24,33,57,54,63,60,39,-36,-296,-578,-980,-681,382,810,792,410,119,-70,-132,-141,-135,-167,-190,-190,-191,-207,-222,-253,-263,-269,-300,-339,-390,-461,-525,-553,-556,-546,-498
2018-05-17,17:44:32.401,-432,-324,-174,-7,155,305,425,506,564,584,557,535,489,437,414,375,349,314,290,275,258,241,241,236,233,247,263,273,263,250,240,248,244,235,220,215,210,192,169,159,141,147,148,112,30,-35,-46,1,10,-47,-3,30,122,173,178,172,175,147,136,19,-279,-552,-958,-298,697,1077,896,446,120,-26,-64,-68,-77,-101,-123,-133,-157,-178,-197,-198,-217,-273,-310,-349,-385,-433,-486,-545,-558,-550,-516,-458,-369,-243,-80,103,270,389,476,548,595,580,562,495,449,417,355,316,303,283,245,231,229,234,232,231,232,224,210,205,200,186,180,187,175,148,149,159
2018-05-17,17:44:33.439,135,127,73,-18,-82,-46,-20,-66,-90,-23,40,121,133,124,123,101,99,87,-58,-349,-649,-1069,-189,576,904,673,363,94,-35,-91,-114,-130,-151,-160,-174,-194,-201,-224,-250,-281,-317,-355,-395,-435,-476,-526,-569,-577,-540,-504,-439,-343,-200,-48,101,219,328,410,451,464,442,391,346,319,287,271,243,213,194,179,171,150,135,138,135,138,127,129,119,106,122,117,108,86,32,-50,-69,-29,-18,-84,-79,-27,27,109,129,117,125,125,116,70,-132,-427,-730,-1037,-41,555,772,536,305,72,-52,-91,-104,-115,-143,-162,-171,-170,-192,-205,-223,-252,-282,-326,-358,-403,-462,-500
2018-05-17,17:44:34.476,-528,-535,-516,-455,-390,-290,-147,-4,131,255,364,396,451,429,424,398,351,326,288,245,220,202,183,163,153,138,129,129,132,132,124,124,130,112,105,114,106,40,-41,-94,-81,-37,-75,-89,-40,2,101,139,129,110,106,99,58,-118,-453,-740,-997,91,829,1013,614,166,-95,-173,-177,-183,-203,-213,-229,-247,-262,-262,-279,-317,-341,-344,-386,-449,-510,-555,-608,-644,-646,-628,-583,-502,-381,-205,-16,164,310,419,510,546,534,487,456,419,397,353,295,277,267,216,212,188,188,189,171,167,155,146,131,132,147,131,109,96,71,-7,-97,-124,-73,-69,-133,-88,-41,43
2018-05-17,17:44:35.513,97,97,78,79,78,53,-1,-252,-565,-993,-860,259,815,907,477,97,-122,-205,-200,-226,-250,-276,-288,-300,-318,-355,-370,-404,-426,-449,-516,-570,-619,-686,-738,-755,-741,-703,-629,-548,-423,-274,-102,54,179,262,313,338,328,286,246,221,188,175,147,128,103,105,120,95,94,111,117,114,120,126,134,156,157,170,187,183,176,121,78,66,114,155,106,158,219,298,367,391,390,394,399,374,338,127,-135,-532,-533,485,985,1122,861,624,415,331,290,288,264,246,236,207,172,150,130,104,72,44,20,-38,-105,-165,-198,-217,-213,-198,-158,-108,-14,114,241,350,433,501
2018-05-17,17:44:36.550,527,522,494,461,429,395,346,306,281,254,226,182,158,134,108,96,71,79,80,52,26,31,46,29,8,-6,-58,-158,-244,-254,-218,-234,-299,-261,-217,-130,-84,-75,-85,-93,-92,-103,-196,-495,-800,-1193,-731,334,703,572,112,-188,-349,-399,-410,-419,-443,-478,-507,-520,-529,-542,-570,-610,-624,-663,-717,-780,-841,-873,-917,-926,-910,-877,-815,-727,-596,-416,-240,-108,8,93,136,140,125,87,62,36,-6,-55,-89,-109,-128,-154,-168,-191,-182,-185,-169,-166,-191,-171,-164,-168,-170,-156,-152,-177,-163,-167,-196,-284,-345,-318,-256,-263,-294,-223,-175,-94,-45,-38,-47,-49,-62,-75,-161,-476
2018-05-17,17:44:37.587,-767,-1221,-467,568,933,692,229,-80,-227,-249,-237,-256,-270,-271,-275,-275,-286,-312,-327,-352,-379,-410,-450,-494,-543,-585,-632,-630,-590,-554,-490,-375,-221,-42,115,276,421,515,559,558,542,514,465,415,373,343,327,289,256,249,224,215,206,195,207,224,226,211,203,207,198,198,199,173,152,137,137,90,-6,-53,-33,18,-13,-21,39,92,159,162,186,182,160,152,113,-52,-350,-676,-1002,-103,597,864,670,374,139,13,-37,-44,-59,-84,-102,-106,-117,-140,-157,-177,-208,-231,-268,-317,-366,-410,-436,-453,-440,-427,-384,-314,-243,-111,38,173,285,368,425,455,451,440,412,380
2018-05-17,17:44:38.625,353,317,279,243,215,193,182,172,165,165,171,167,172,178,166,172,185,170,178,185,168,169,157,145,122,39,-36,-58,-20,24,-25,5,45,91,170,189,178,171,160,147,90,-162,-447,-795,-688,390,827,884,497,183,-12,-63,-63,-82,-90,-99,-120,-139,-158,-185,-202,-227,-253,-270,-313,-365,-422,-470,-509,-532,-528,-501,-450,-381,-263,-113,36,186,316,406,451,471,457,438,408,365,328,294,265,224,200,185,172,165,153,137,125,120,124,135,136,115,112,118,112,101,88,85,90,52,-35,-110,-140,-106,-90,-139,-101,-53,40,106,118,107,104,87,79,28,-257,-575
2018-05-17,17:44:39.662,-970,-629,572,999,925,425,73,-98,-152,-157,-160,-170,-190,-214,-227,-238,-261,-280,-300,-325,-343,-395,-456,-523,-580,-614,-617,-599,-570,-531,-434,-288,-101,83,248,377,477,518,526,515,504,470,425,382,335,292,260,242,238,208,192,181,159,143,146,126,129,138,142,123,116,104,91,60,57,59,63,59,46,46,31,19,2,-17,-35,-109,-193,-174,-160,-227,-212,-96,-15,40,54,62,60,47,35,4,-120,-418,-709,-1094,-327,519,850,675,340,68,-75,-129,-131,-125,-155,-178,-194,-196,-215,-230,-263,-285,-294,-328,-366,-412,-458,-504,-527,-534,-520,-485,-438,-351,-241,-77,72,186
2018-05-17,17:44:40.699,311,387,426,431,416,384,372,330,276,229,206,192,166,133,119,117,113,104,104,109,118,113,108,102,78,77,78,67,58,62,65,56,44,25,15,12,-24,-106,-152,-113,-86,-126,-137,-89,-47,17,40,49,51,48,46,26,-147,-452,-753,-1035,-58,574,782,558,290,62,-64,-107,-121,-126,-140,-153,-161,-179,-202,-217,-240,-267,-293,-339,-387,-427,-477,-537,-560,-567,-538,-499,-428,-322,-200,-47,97,223,327,387,421,431,406,376,348,329,295,240,194,176,146,132,107,93,90,77,73,84,77,79,82,77,85,82,69,63,66,64,57,28,-53,-131,-167,-131,-108,-151
2018-05-17,17:44:41.736,-126,-70,5,59,59,65,57,34,25,-19,-244,-555,-906,-869,281,848,914,454,61,-149,-209,-226,-228,-244,-268,-294,-313,-331,-331,-355,-380,-413,-451,-498,-549,-601,-666,-717,-746,-736,-700,-654,-571,-438,-262,-67,111,248,366,446,475,476,464,435,405,386,356,327,312,282,251,242,244,224,225,245,235,233,230,226,237,227,228,231,221,220,209,216,207,204,201,199,193,172,174,198,181,163,120,41,-8,6,47,41,14,66,110,194,219,217,217,209,212,168,2,-326,-637,-1002,-47,736,1066,803,405,126,-14,-57,-76,-91,-121,-131,-150,-187,-209,-218,-225,-261,-301,-341
2018-05-17,17:44:42.773,-376,-421,-483,-533,-560,-569,-560,-511,-456,-365,-235,-93,76,230,350,441,510,532,516,493,457,437,390,353,317,294,274,247,242,213,203,202,207,214,207,200,197,200,210,222,218,206,191,187,186,177,147,66,30,53,90,74,41,100,117,191,214,199,189,180,165,145,22,-227,-489,-941,-471,408,712,640,405,206,32,-53,-88,-118,-142,-159,-185,-225,-279,-306,-319,-352,-386,-429,-484,-549,-592,-649,-697,-723,-722,-684,-638,-558,-449,-337,-184,-49,37,86,116,119,107,59,7,-22,-58,-95,-135,-177,-217,-232,-244,-263,-280,-274,-269,-284,-292,-297,-298,-281,-287,-311,-329,-336
2018-05-17,17:45:01.008,130,101,-73,-336,-894,-1114,-124,586,979,765,491,252,125,60,35,15,-8,-39,-58,-66,-79,-102,-137,-169,-190,-231,-296,-355,-398,-449,-464,-448,-448,-386,-286,-154,15,176,331,452,524,551,554,567,510,427,392,388,333,269,242,204,164,150,142,120,104,108,98,92,88,61,-31,-94,-90,-108,-146,-153,-90,-22,28,40,39,23,-3,-21,-64,-132,-397,-738,-1194,-1318,-216,336,604,393,179,6,-58,-79,-67,-83,-102,-114,-135,-156,-186,-211,-254,-293,-347,-381,-423,-494,-553,-586,-601,-579,-550,-483,-370,-228,-57,95,227,356,424,455,454,448,415,371,327,283,246,206,185,158
2018-05-17,17:45:02.282,112,81,78,64,63,61,50,47,27,-11,-49,-74,-87,-131,-160,-140,-74,-6,15,40,45,32,26,41,29,-92,-324,-627,-1247,-623,153,752,814,621,381,146,22,-6,-15,-46,-78,-88,-108,-121,-142,-177,-198,-230,-288,-343,-387,-445,-478,-504,-495,-473,-439,-369,-261,-131,-6,132,231,299,358,374,362,337,300,243,230,207,154,111,114,96,68,55,29,24,16,10,12,7,-27,-61,-99,-65,-72,-134,-98,-33,22,33,21,-5,-33,-55,-67,-97,-186,-450,-684,-1179,-572,230,749,839,607,380,183,62,11,-16,-39,-67,-106,-126,-172,-211,-236,-273,-331,-379,-424,-496,-536,-574
2018-05-17,17:45:03.320,-616,-594,-555,-493,-441,-305,-143,8,160,284,360,397,408,400,395,369,338,300,274,233,193,161,128,136,121,108,78,100,95,81,79,21,-52,-84,-96,-115,-115,-53,21,98,139,167,175,184,186,187,165,-3,-318,-777,-1366,-353,423,1078,938,628,322,130,5,-27,-55,-88,-119,-150,-178,-204,-240,-276,-327,-377,-429,-483,-551,-617,-653,-670,-661,-620,-557,-459,-320,-138,75,250,351,419,485,506,486,455,427,379,346,296,250,217,191,157,115,106,83,81,81,78,66,69,59,-6,-73,-98,-139,-196,-241,-197,-113,-47,-3,38,68,81,96,102,100,-8,-245,-609,-1352,-662
2018-05-17,17:45:04.357,189,848,854,605,351,125,-1,-49,-90,-121,-135,-142,-153,-185,-215,-252,-284,-329,-368,-424,-479,-511,-552,-564,-557,-520,-474,-409,-284,-129,16,144,258,339,394,397,388,366,335,309,258,212,183,151,116,97,90,81,56,49,52,48,51,5,-51,-87,-76,-86,-105,-89,-30,32,88,116,138,140,142,143,130,92,-61,-317,-955,-1149,-159,538,905,743,546,276,128,59,32,9,-6,-18,-44,-67,-95,-133,-169,-209,-252,-303,-372,-428,-462,-492,-510,-525,-502,-419,-326,-194,-34,102,229,332,383,410,401,389,353,321,296,270,216,169,138,116,94,80,55,33,28,27,39,40
2018-05-17,17:45:05.394,13,-60,-140,-117,-146,-169,-147,-59,9,68,90,110,123,135,137,140,61,-219,-539,-1136,-862,214,918,1129,720,326,77,-41,-93,-117,-113,-133,-176,-199,-208,-231,-270,-301,-325,-369,-424,-485,-535,-594,-630,-646,-628,-594,-514,-377,-202,-16,166,337,435,484,509,516,492,450,409,361,311,270,241,224,212,189,164,149,138,129,144,143,128,129,105,25,-32,-22,-25,-32,12,115,201,247,286,298,288,265,256,240,182,-73,-445,-1162,-1035,14,726,1005,704,437,181,29,-41,-74,-99,-104,-140,-182,-223,-237,-259,-315,-355,-388,-439,-498,-549,-599,-647,-644,-635,-589,-510,-402,-261,-112
2018-05-17,17:45:06.431,40,166,250,319,338,330,325,295,253,225,184,132,119,82,38,6,0,-41,-70,-62,-62,-81,-118,-134,-100,-55,-37,-37,44,116,193,233,242,228,201,173,154,104,-78,-340,-759,-1219,-434,264,738,680,453,188,8,-76,-93,-111,-124,-143,-152,-157,-182,-220,-229,-246,-287,-341,-389,-435,-476,-522,-518,-510,-485,-433,-346,-234,-82,52,157,260,323,339,335,331,315,269,237,209,178,137,117,109,106,89,85,86,93,101,114,128,99,52,25,46,44,11,41,127,187,232,255,254,246,234,217,192,113,-145,-452,-1028,-765,176,737,892,565,283,74,-33,-73,-114,-141,-173
2018-05-17,17:45:07.468,-204,-221,-251,-288,-320,-352,-411,-455,-508,-571,-630,-684,-728,-738,-735,-696,-617,-499,-353,-203,-59,48,130,191,211,196,176,146,91,67,13,-40,-71,-86,-116,-133,-128,-112,-82,-46,-15,6,24,-9,-63,-71,-41,-25,-16,60,168,259,287,294,305,324,323,331,335,198,-52,-471,-1056,-237,669,1350,1265,897,580,416,355,348,346,345,344,341,325,292,282,270,231,207,184,124,79,38,6,1,2,51,116,212,338,520,697,858,966,1040,1089,1089,1048,1020,993,941,886,842,802,771,746,712,677,647,632,620,593,576,551,521,441,337,269,243,214,126,98,131,175,177
2018-05-17,17:45:08.506,152,116,76,21,-24,-81,-190,-435,-762,-1478,-1333,-425,152,316,89,-116,-356,-497,-578,-618,-647,-674,-693,-733,-786,-800,-831,-872,-908,-949,-985,-1032,-1086,-1116,-1111,-1115,-1092,-1047,-967,-863,-735,-595,-486,-403,-324,-296,-291,-292,-303,-319,-351,-386,-393,-397,-413,-413,-414,-403,-374,-355,-335,-332,-334,-340,-369,-387,-364,-364,-396,-409,-357,-298,-215,-194,-183,-164,-165,-168,-173,-238,-455,-692,-1257,-1169,-297,311,559,386,168,-59,-171,-225,-235,-233,-249,-258,-261,-260,-279,-313,-318,-335,-343,-385,-427,-472,-491,-501,-479,-448,-402,-306,-181,-50,91,212,312,380,446,470,469,471,451,428,399,378,346,316
2018-05-17,17:45:09.543,317,316,306,300,310,316,334,334,334,337,300,226,176,192,188,138,169,240,298,343,357,355,353,307,292,301,142,-155,-485,-1233,-628,271,887,867,517,242,62,-33,-65,-93,-106,-134,-147,-201,-225,-259,-285,-339,-396,-435,-477,-513,-587,-653,-673,-663,-642,-594,-515,-397,-238,-58,69,167,269,320,346,353,347,328,291,266,220,177,158,132,106,93,83,77,65,51,41,19,-9,-69,-129,-152,-146,-181,-213,-172,-90,-12,34,83,92,85,52,28,6,-68,-291,-648,-1534,-1064,-110,712,867,559,231,19,-82,-114,-123,-156,-182,-185,-203,-225,-249,-275,-297,-314,-350,-401,-453,-512
2018-05-17,17:45:10.580,-528,-549,-547,-502,-433,-346,-213,-43,118,258,372,450,496,529,534,519,485,425,392,358,303,243,227,182,129,81,70,78,81,51,9,-29,-29,-4,-20,-52,-5,23,86,140,123,117,111,97,82,30,-157,-401,-807,-1242,-323,312,697,582,433,209,48,-49,-78,-95,-116,-126,-142,-146,-176,-204,-240,-265,-278,-315,-364,-402,-437,-446,-459,-451,-410,-388,-301,-189,-66,65,195,284,342,385,416,436,434,392,365,346,337,300,263,243,239,216,206,190,183,179,173,158,102,27,14,52,42,-5,39,119,185,228,243,219,205,191,175,138,-11,-260,-657,-1239,-395,396,1025,889
2018-05-17,17:45:11.617,528,195,46,-33,-38,-66,-77,-101,-134,-164,-171,-178,-204,-248,-275,-312,-363,-425,-473,-491,-510,-490,-442,-371,-294,-182,-14,145,279,403,499,538,527,522,510,474,445,418,378,334,302,269,240,216,228,222,208,193,170,125,74,37,42,12,-41,15,100,169,208,206,220,204,190,189,174,64,-214,-573,-1277,-783,235,907,952,591,278,77,-35,-62,-71,-95,-117,-133,-172,-199,-220,-227,-262,-291,-337,-381,-440,-507,-562,-584,-583,-547,-490,-395,-246,-89,79,249,391,496,546,574,551,516,494,450,396,344,301,269,227,194,173,159,132,120,132,100,60,16,9,-14,-50,-43
2018-05-17,17:45:12.654,7,59,122,135,134,122,110,75,67,33,-134,-398,-1006,-1298,-401,365,798,635,399,116,-41,-105,-117,-143,-177,-194,-192,-210,-243,-250,-266,-292,-329,-382,-405,-426,-471,-516,-506,-474,-440,-371,-263,-140,-25,115,236,322,369,386,387,354,335,310,271,239,202,171,146,128,104,100,103,95,76,28,-15,-50,-54,-59,-95,-91,-12,40,102,126,111,110,115,99,83,17,-234,-518,-1040,-900,36,592,749,479,230,34,-72,-126,-140,-143,-169,-190,-214,-224,-249,-276,-303,-329,-388,-432,-472,-548,-580,-580,-576,-555,-504,-438,-319,-161,-27,108,253,342,383,422,410,387,376,350,309,258
2018-05-17,17:45:13.691,226,172,147,134,102,95,89,73,74,40,-9,-55,-51,-68,-90,-49,36,113,172,196,194,179,160,151,140,26,-226,-563,-1290,-678,207,915,946,546,184,-11,-100,-140,-151,-167,-178,-184,-216,-231,-249,-280,-309,-338,-369,-439,-480,-512,-546,-557,-549,-515,-466,-388,-238,-84,52,183,297,374,402,426,419,394,362,297,263,229,209,188,164,174,172,150,138,137,126,61,-10,-28,-6,-23,-49,-4,92,161,199,205,193,177,169,148,112,-61,-381,-792,-1209,-149,532,960,698,401,166,53,-2,-8,-20,-34,-49,-82,-106,-112,-138,-173,-194,-219,-248,-288,-351,-404,-424,-420,-417,-359
2018-05-17,17:45:14.729,-293,-202,-78,73,220,349,453,528,577,607,596,564,531,492,471,437,393,349,314,285,246,228,208,180,101,43,60,54,8,26,96,163,213,241,239,228,208,177,153,52,-198,-563,-1286,-907,53,802,938,586,231,-4,-87,-128,-176,-208,-233,-275,-322,-348,-353,-377,-425,-428,-470,-528,-571,-611,-644,-667,-654,-611,-553,-464,-331,-191,-43,97,203,274,331,341,325,309,280,262,227,180,154,133,106,90,65,59,55,9,-62,-100,-77,-82,-137,-102,-17,51,90,101,96,64,45,26,-1,-174,-529,-934,-1502,-697,202,754,616,273,9,-137,-207,-236,-270,-289,-313,-321,-348,-375
2018-05-17,17:45:15.766,-399,-417,-449,-486,-525,-567,-592,-610,-634,-647,-628,-590,-533,-426,-281,-96,72,214,346,437,494,526,533,506,474,441,401,367,329,317,284,277,279,262,199,138,104,130,130,95,122,185,244,317,359,360,345,334,315,293,191,-59,-489,-1308,-662,285,1055,1025,703,368,159,60,30,0,-25,-46,-66,-93,-104,-125,-167,-211,-247,-307,-353,-397,-438,-468,-484,-461,-430,-392,-299,-188,-74,48,172,271,335,366,362,343,295,256,238,206,158,120,108,82,64,40,0,-56,-66,-38,-28,-81,-84,-53,-17,50,41,32,34,14,-9,-42,-199,-488,-904,-1375,-582,135,545,449,255,19
2018-05-17,17:45:16.803,-135,-229,-267,-282,-297,-321,-337,-350,-360,-380,-410,-418,-430,-459,-503,-547,-569,-581,-585,-552,-516,-453,-348,-234,-107,-6,80,163,204,223,219,219,209,186,177,159,154,148,145,137,138,143,117,72,44,30,40,62,31,69,119,175,211,208,210,200,182,173,103,-140,-452,-1125,-1039,2,759,1030,712,379,147,35,-18,-49,-71,-100,-124,-158,-173,-192,-204,-224,-274,-335,-363,-386,-431,-469,-474,-461,-437,-366,-276,-157,0,151,268,371,455,491,513,491,456,422,358,326,297,251,230,227,215,219,236,236,197,136,102,124,123,86,110,177,199,246,275,289,276,250,230,212
2018-05-17,17:45:17.840,90,-204,-554,-1313,-759,197,863,873,569,290,78,-20,-64,-83,-105,-129,-138,-165,-199,-232,-256,-291,-317,-352,-398,-464,-507,-525,-505,-491,-467,-420,-315,-182,-56,58,203,290,339,357,346,338,320,269,208,187,177,162,137,125,131,147,140,115,64,35,74,64,32,52,77,109,177,188,191,197,193,164,128,9,-223,-591,-1271,-668,189,806,807,590,330,117,-9,-63,-75,-98,-130,-155,-173,-180,-200,-230,-276,-297,-318,-358,-399,-404,-420,-448,-421,-370,-331,-239,-115,-11,79,164,226,284,305,288,277,260,241,218,175,145,113,95,67,57,46,47,33,-9,-40,-5,2,-31
2018-05-17,17:45:18.877,-43,20,66,123,125,116,98,103,98,66,-23,-268,-555,-1134,-959,-27,560,740,478,230,13,-99,-153,-165,-198,-221,-224,-227,-230,-249,-276,-310,-331,-375,-397,-435,-482,-504,-523,-493,-447,-398,-300,-164,-37,81,212,307,379,437,448,447,447,415,370,360,336,301,301,283,278,292,321,329,323,322,290,242,258,282,259,282,362,418,466,485,487,481,468,440,404,314,79,-224,-941,-743,249,987,1202,843,498,260,147,92,71,30,-5,-13,-55,-110,-139,-171,-193,-252,-295,-350,-404,-458,-519,-523,-533,-504,-454,-393,-278,-125,41,197,305,380,410,420,399,366,322,263,220,197
2018-05-17,17:45:19.914,159,123,91,85,79,62,71,79,76,67,20,-67,-70,-84,-145,-147,-60,8,41,59,76,48,26,16,-27,-93,-301,-575,-1205,-1366,-346,360,694,457,216,-52,-185,-242,-272,-289,-296,-317,-347,-368,-382,-394,-426,-470,-490,-546,-588,-624,-651,-659,-663,-620,-585,-532,-425,-299,-196,-78,10,93,167,192,196,153,113,80,53,14,-13,-34,-32,-27,-43,-39,-2,11,29,48,32,-6,-33,-37,-65,-112,-86,-7,54,85,108,97,77,64,47,11,-121,-353,-710,-1344,-600,153,710,691,470,184,-23,-118,-144,-153,-186,-211,-228,-243,-268,-288,-307,-330,-342,-398,-444,-447,-482,-509,-491,-494
2018-05-17,17:45:20.952,-447,-363,-294,-203,-68,54,148,227,290,295,291,298,287,276,266,252,238,198,172,170,154,152,166,154,165,183,183,155,82,16,11,-9,-42,-14,80,166,208,238,253,242,233,206,180,30,-284,-679,-1188,-336,467,975,757,402,133,8,-75,-87,-94,-119,-145,-168,-203,-238,-248,-273,-316,-352,-399,-450,-499,-544,-571,-575,-579,-565,-500,-412,-259,-96,48,189,262,326,360,365,342,320,278,226,192,188,166,150,152,153,161,171,172,183,187,175,199,192,159,97,-3,-26,-50,-98,-135,-67,42,124,151,166,163,162,145,134,73,-136,-433,-1143,-1213,-143,683,1083,763,420
2018-05-17,17:45:21.989,122,-29,-82,-100,-130,-150,-161,-186,-196,-220,-232,-249,-278,-321,-359,-383,-418,-443,-442,-429,-404,-364,-297,-193,-81,72,187,293,364,434,451,457,452,432,401,360,312,277,257,231,231,211,190,193,194,199,193,192,179,146,64,18,8,-21,-59,-28,26,108,128,149,145,132,114,100,76,-53,-297,-706,-1184,-411,273,650,593,422,200,-1,-107,-137,-142,-137,-161,-202,-226,-245,-265,-297,-331,-349,-375,-404,-445,-487,-514,-546,-537,-506,-464,-385,-294,-170,-49,58,138,196,229,249,251,223,198,161,131,130,90,46,12,-18,-44,-42,-36,-37,-46,-46,-49,-89,-171,-204,-191,-207
2018-05-17,17:45:23.026,-245,-187,-105,-37,-24,26,53,33,23,19,-15,-149,-370,-864,-1315,-482,284,817,671,355,66,-54,-115,-120,-106,-99,-124,-146,-154,-159,-156,-165,-193,-209,-230,-257,-287,-299,-300,-282,-251,-208,-119,-18,124,303,449,592,702,773,799,814,783,745,707,644,597,569,536,517,491,458,435,421,419,409,408,398,384,379,343,257,187,180,153,108,148,236,305,335,356,359,346,318,291,258,112,-178,-609,-1185,-371,465,1004,828,467,171,9,-79,-113,-139,-169,-203,-227,-241,-285,-343,-374,-440,-499,-525,-554,-613,-668,-688,-700,-686,-651,-574,-467,-317,-155,-10,135,244,328,351,327,291
2018-05-17,17:45:24.063,232,182,141,82,28,-1,-26,-48,-61,-84,-80,-76,-95,-96,-69,-89,-160,-226,-233,-254,-289,-313,-251,-175,-124,-107,-103,-103,-105,-118,-128,-181,-330,-576,-1303,-1470,-530,250,639,469,230,-41,-192,-255,-228,-226,-257,-291,-277,-292,-314,-318,-328,-325,-350,-383,-424,-470,-489,-498,-473,-427,-380,-287,-172,-27,113,252,365,429,470,485,467,428,401,355,314,278,259,232,210,178,162,155,159,158,160,150,104,48,3,0,-26,-65,-16,40,94,122,138,147,130,95,66,49,-54,-289,-606,-1186,-567,137,560,560,385,175,-11,-112,-163,-166,-189,-214,-242,-266,-289,-317,-314,-323,-341,-381
2018-05-17,17:45:25.100,-433,-468,-494,-509,-500,-482,-468,-430,-354,-236,-104,24,134,209,251,288,283,245,226,196,160,130,89,52,29,9,-21,-38,-33,-29,-38,-45,-40,-86,-172,-201,-192,-219,-241,-180,-92,-11,36,70,61,47,39,33,-2,-150,-413,-950,-1395,-368,372,864,657,317,50,-46,-78,-111,-130,-130,-122,-147,-155,-169,-203,-231,-252,-279,-323,-366,-422,-463,-480,-497,-480,-428,-356,-236,-68,105,267,372,464,535,556,538,502,463,394,353,312,256,233,191,163,137,141,123,109,89,89,82,79,29,-65,-95,-99,-110,-91,-33,22,72,112,131,109,110,103,76,20,-180,-470,-949,-1320,-297
2018-05-17,17:45:26.138,357,734,509,258,2,-124,-197,-218,-243,-244,-236,-234,-231,-241,-240,-241,-263,-291,-322,-364,-400,-447,-465,-455,-433,-409,-343,-243,-123,14,140,255,339,384,414,425,392,346,322,284,257,237,217,203,188,170,178,179,197,199,186,147,63,37,47,36,26,38,117,218,252,264,257,249,243,244,229,89,-132,-526,-1020,-311,343,861,822,619,363,202,154,149,134,111,98,91,84,51,26,-4,-27,-41,-83,-142,-181,-229,-248,-245,-244,-199,-141,-114,32,152,246,320,354,388,397,387,358,328,278,243,200,167,128,99,91,82,59,46,30,21,24,0,-69,-134,-110,-118
2018-05-17,17:45:27.175,-164,-156,-93,-37,9,26,24,11,-1,-22,-36,-130,-388,-717,-1253,-843,40,464,495,213,-14,-138,-182,-207,-210,-201,-181,-177,-194,-194,-192,-226,-259,-306,-351,-398,-447,-496,-530,-538,-542,-520,-474,-393,-259,-126,21,144,248,306,332,349,346,318,294,263,234,175,139,98,67,76,68,71,64,68,72,70,34,-44,-116,-132,-153,-178,-145,-53,21,48,64,87,99,86,79,57,-64,-330,-714,-1290,-550,331,851,776,440,198,76,0,-16,-51,-81,-81,-81,-102,-176,-208,-204,-217,-256,-314,-389,-461,-518,-555,-562,-555,-522,-461,-374,-212,-50,101,246,344,405,440,442,422,387,342
2018-05-17,17:45:28.212,288,249,207,175,155,142,128,112,114,106,100,94,73,50,-24,-82,-80,-102,-149,-123,-49,40,62,87,102,115,85,77,62,-33,-297,-591,-1183,-931,-27,506,649,483,308,108,3,-33,-32,-55,-72,-87,-104,-110,-119,-154,-196,-239,-280,-312,-348,-411,-447,-454,-422,-380,-338,-282,-178,-59,62,162,240,319,351,347,321,294,269,235,198,165,145,112,111,92,92,86,91,87,82,74,49,-11,-22,-20,-48,-70,-25,40,111,137,136,143,162,161,153,140,-2,-244,-729,-956,-79,527,903,779,571,299,143,79,53,18,0,-7,-26,-60,-98,-112,-126,-164,-193,-247,-302,-343
2018-05-17,17:45:29.249,-384,-392,-399,-380,-361,-310,-210,-73,50,164,242,300,333,362,363,332,307,275,249,206,163,109,85,67,64,49,20,15,10,8,-23,-87,-127,-143,-167,-186,-155,-59,-2,14,45,39,17,-9,-27,-39,-158,-447,-777,-1321,-533,306,883,818,518,215,41,-49,-93,-122,-150,-170,-213,-237,-252,-266,-288,-307,-356,-414,-476,-524,-572,-604,-615,-586,-536,-467,-373,-203,-16,131,270,388,463,475,490,487,442,398,362,329,303,274,259,269,235,201,219,229,212,228,245,242,204,110,101,106,60,34,115,189,270,323,354,378,373,358,340,314,154,-146,-649,-1101,-127,615,1164,912
2018-05-17,17:45:30.286,601,337,195,109,67,46,15,-23,-57,-83,-114,-158,-198,-230,-280,-334,-394,-441,-491,-518,-524,-506,-453,-386,-307,-183,-26,99,201,270,334,371,355,331,294,255,192,155,114,84,54,36,38,10,-16,-13,-17,-27,-93,-155,-172,-179,-192,-204,-160,-95,-25,24,32,34,54,67,77,37,-150,-394,-879,-1070,-150,447,727,533,338,81,-78,-161,-195,-216,-226,-239,-263,-290,-290,-307,-337,-377,-405,-416,-449,-494,-527,-538,-533,-516,-478,-410,-321,-186,-69,43,111,187,218,233,211,191,160,137,143,119,62,38,33,22,15,15,3,-1,0,-7,-42,-110,-133,-113,-112,-114,-67,19
2018-05-17,17:45:31.323,100,121,164,176,188,199,193,164,17,-216,-675,-1136,-335,409,919,803,527,245,79,22,-2,-28,-53,-68,-96,-128,-152,-198,-240,-256,-292,-333,-365,-411,-437,-470,-469,-444,-407,-348,-254,-146,-16,113,215,285,331,356,347,311,271,214,177,157,126,101,70,48,23,28,25,15,15,-12,-58,-139,-185,-184,-197,-200,-135,-20,70,105,148,166,173,190,199,177,32,-229,-564,-1079,-356,377,831,708,407,143,4,-50,-82,-100,-116,-159,-182,-188,-189,-216,-245,-284,-304,-349,-390,-432,-463,-479,-490,-466,-426,-373,-285,-158,-10,130,216,291,346,375,353,324,302,262,219,187,162,142
2018-05-17,17:45:32.361,126,113,94,79,101,124,123,133,129,78,36,36,21,9,54,165,258,288,326,340,346,347,324,306,199,-71,-390,-1029,-387,400,895,838,541,242,78,3,-23,-49,-85,-123,-140,-172,-211,-240,-270,-315,-358,-392,-426,-479,-536,-573,-570,-565,-547,-495,-426,-302,-169,-46,82,165,213,223,204,182,151,119,62,33,7,-26,-57,-71,-78,-104,-104,-103,-108,-97,-144,-198,-178,-136,-130,-101,16,128,222,268,277,263,258,262,269,195,-2,-279,-928,-1031,50,803,1126,804,468,233,129,91,85,81,63,35,34,31,22,4,-27,-57,-83,-113,-176,-234,-268,-255,-269,-235,-184,-108
2018-05-17,17:45:33.398,11,175,340,469,557,635,678,673,624,574,549,505,438,392,355,344,322,301,273,261,257,244,191,135,103,94,74,52,110,202,262,309,323,286,278,243,196,139,-20,-317,-866,-1449,-577,269,791,616,330,48,-124,-225,-256,-291,-314,-347,-371,-414,-463,-493,-523,-576,-624,-665,-717,-763,-799,-817,-802,-783,-741,-677,-537,-386,-267,-142,-43,23,49,44,24,4,-33,-66,-119,-160,-173,-180,-204,-200,-177,-210,-264,-301,-335,-329,-318,-327,-303,-236,-137,-80,-47,-13,0,-5,-16,-21,-84,-295,-569,-1178,-1005,-90,457,553,360,167,-64,-189,-221,-237,-260,-282,-310,-317,-338,-356,-365,-376
2018-05-17,17:45:42.120,-540,-556,-594,-643,-692,-708,-737,-752,-775,-761,-740,-716,-666,-579,-487,-388,-293,-199,-138,-86,-52,-50,-66,-80,-75,-86,-104,-116,-126,-130,-140,-124,-132,-155,-185,-214,-217,-209,-199,-152,-102,-40,7,37,56,38,26,26,14,-124,-366,-763,-1399,-534,222,733,668,462,192,-53,-184,-282,-340,-366,-407,-432,-472,-492,-497,-514,-541,-533,-545,-571,-600,-594,-587,-571,-518,-466,-404,-321,-187,-96,13,127,212,266,305,311,274,246,230,221,208,195,173,167,170,208,221,119,38,117,270,37,-16,-13,55,135,213,255,273,275,246,220,182,76,-157,-610,-1407,-771,136,975,1058,763,392,124
2018-05-17,17:45:42.770,-22,-55,-90,-106,-123,-124,-157,-171,-164,-180,-191,-239,-264,-287,-313,-334,-340,-327,-305,-282,-207,-130,-4,126,251,347,419,481,507,503,487,461,427,388,342,321,294,270,264,263,264,266,248,218,186,172,160,157,215,285,336,353,368,349,325,289,266,195,-55,-374,-888,-1111,-207,313,533,359,195,-17,-174,-224,-218,-202,-211,-207,-220,-231,-217,-226,-251,-228,-253,-274,-280,-285,-300,-304,-290,-270,-222,-165,-79,18,110,203,268,325,366,385,365,348,318,294,277,250,227,207,187,183,162,139,116,92,69,60,48,11,23,79,156,177,169,181,204,200,165,122,-5,-214
2018-05-17,17:45:43.807,-711,-1233,-366,336,836,729,483,208,37,-45,-64,-74,-115,-117,-116,-121,-130,-154,-175,-198,-225,-266,-310,-347,-367,-371,-353,-319,-261,-201,-109,23,127,226,311,374,406,415,405,399,385,353,321,289,253,219,191,173,135,129,83,4,-67,-105,-122,-113,-95,-49,0,3,26,22,-35,-68,-100,-137,-271,-613,-966,-1441,-688,109,532,436,170,-3,-137,-190,-218,-238,-236,-231,-223,-232,-245,-263,-284,-312,-333,-353,-386,-400,-395,-381,-357,-283,-213,-148,7,193,117,25,224,423,464,339,341,378,346,286,245,229,208,178,126,130,135,132,143,99,51,10,-14,-42,-68,-25,31,104
2018-05-17,17:45:44.844,165,187,189,194,156,131,135,-10,-277,-797,-1329,-483,364,922,822,579,304,88,-10,-22,-28,-40,-66,-79,-101,-119,-138,-165,-209,-234,-273,-319,-323,-337,-350,-336,-289,-232,-181,-106,-3,106,208,317,384,414,399,367,320,259,215,165,84,4,-53,-118,-175,-213,-259,-265,-328,-328,-294,-296,-305,-268,-235,-172,-109,-66,-56,-52,-56,-64,-95,-270,-568,-842,-1235,-379,188,453,445,316,157,-78,-215,-170,-126,-146,-224,-205,-168,-137,-122,-144,-166,-182,-240,-279,-282,-289,-290,-272,-239,-189,-129,-59,26,137,257,338,424,469,506,519,520,524,505,490,474,459,430,400,413,472,471,444
2018-05-17,17:45:45.881,382,335,335,347,352,400,471,530,599,627,627,632,617,597,571,439,165,-228,-803,-125,711,1380,1356,1075,727,458,312,267,235,180,112,83,53,-3,-69,-115,-164,-234,-293,-369,-460,-504,-568,-620,-647,-647,-631,-607,-509,-390,-255,-141,-114,-78,-28,-29,-44,-45,-62,-102,-131,-164,-194,-217,-228,-250,-290,-343,-414,-506,-531,-516,-453,-415,-301,-187,-121,-106,-120,-126,-21,-164,-193,-319,-662,-954,-1598,-1583,-612,267,747,464,104,-282,-482,-577,-600,-613,-624,-622,-626,-641,-683,-692,-720,-738,-759,-793,-824,-871,-869,-841,-813,-747,-662,-560,-430,-320,-204,-39,55,139,214,243,249,224,196,168
2018-05-17,17:45:46.919,108,103,95,98,99,111,115,93,51,35,35,29,24,46,108,192,247,264,297,308,295,292,285,223,27,-253,-942,-783,196,763,896,691,509,226,-3,-109,-133,-194,-236,-226,-249,-316,-350,-352,-350,-308,-324,-329,-355,-339,-304,-285,-265,-202,-140,-72,4,83,160,231,299,333,356,353,337,335,339,290,237,277,246,181,208,190,159,172,123,115,132,129,104,136,194,245,276,285,329,293,243,250,229,99,-105,-494,-1214,-690,162,882,962,697,402,183,77,22,3,-9,-22,-38,-27,-24,-53,-73,-73,-83,-129,-155,-177,-223,-229,-217,-187,-136,-76,-11,84,181,268,356
2018-05-17,17:45:47.956,407,428,437,415,398,387,367,346,323,295,270,252,242,229,214,176,122,79,57,23,31,78,145,159,195,227,189,164,139,69,3,-116,-453,-791,-1248,-541,202,590,513,296,161,48,-31,-45,0,2,-24,-31,-30,-52,-83,-90,-94,-113,-124,-147,-197,-233,-253,-223,-190,-127,-76,-105,-20,230,296,221,322,366,351,369,373,349,322,282,262,241,208,175,180,199,190,191,144,65,32,1,-5,11,63,121,170,200,223,245,226,204,157,92,-83,-307,-994,-1075,-44,675,1024,811,591,313,148,90,82,73,56,27,6,-2,-29,-65,-89,-109,-164,-205,-227,-245,-259,-258
2018-05-17,17:45:48.993,-223,-181,-125,-66,29,103,170,233,302,341,343,301,248,217,155,86,30,-53,-105,-136,-193,-219,-221,-252,-290,-323,-353,-337,-303,-320,-285,-216,-153,-140,-106,-74,-70,-81,-79,-99,-279,-571,-875,-1223,-451,128,462,388,214,10,-172,-163,-61,-181,-349,-310,-273,-276,-292,-304,-316,-353,-379,-403,-440,-441,-429,-430,-420,-391,-371,-322,-244,-181,-85,11,98,169,202,226,195,174,178,154,116,91,59,30,29,26,15,15,17,-12,-21,-21,-36,-30,-4,69,123,176,240,253,270,297,271,228,97,-195,-522,-1093,-538,332,950,1023,781,535,297,170,122,110,107,90,42,13,4,-24
2018-05-17,17:45:50.030,-55,-107,-151,-214,-284,-323,-377,-416,-432,-444,-451,-462,-481,-458,-382,-250,-125,-36,44,75,86,67,46,19,-1,-65,-96,-102,-83,-72,-40,-8,-2,-41,-85,-79,-76,-74,-35,46,119,171,186,202,189,178,172,155,66,-179,-483,-1270,-883,0,884,1094,818,468,118,-54,-109,-117,-149,-177,-175,-206,-251,-264,-285,-343,-340,-357,-401,-407,-418,-435,-412,-354,-311,-279,-232,-138,-39,51,171,275,320,350,363,335,279,247,212,208,207,190,178,161,162,163,143,109,63,52,60,61,84,132,195,251,291,326,328,321,318,301,235,83,-147,-702,-806,162,731,919,721,492,210,4
2018-05-17,17:45:51.067,-132,-200,-246,-318,-365,-394,-439,-458,-441,-442,-466,-461,-484,-506,-522,-539,-498,-461,-435,-388,-300,-211,-122,-51,-11,52,83,100,119,128,84,42,67,85,42,57,66,45,-42,1,97,244,48,-283,-332,-220,-116,7,105,174,214,251,254,275,278,268,213,66,-165,-863,-887,130,842,1171,969,670,424,303,251,270,302,274,235,232,262,271,216,230,227,182,146,97,46,46,73,127,177,250,332,430,538,637,725,791,813,808,809,797,745,691,639,579,494,404,362,319,291,300,291,237,139,72,15,-29,-50,-9,17,28,28,4,-58,-118,-182,-297,-424,-738,-1070,-1534
2018-05-17,17:45:52.104,-1409,-361,136,299,30,-108,-307,-415,-437,-419,-438,-432,-446,-455,-465,-474,-491,-512,-540,-576,-608,-636,-638,-673,-740,-692,-587,-553,-457,-449,-400,-270,-155,-84,-35,-32,-50,-68,-93,-121,-166,-244,-267,-279,-301,-305,-286,-289,-316,-343,-356,-371,-376,-410,-358,-285,-219,-209,-133,-119,-132,-144,-153,-159,-236,-405,-737,-1368,-836,-48,563,638,437,235,33,-66,-91,-91,-90,-93,-90,-89,-121,-156,-163,-176,-199,-230,-261,-276,-265,-239,-202,-177,-134,-71,-9,69,152,218,255,292,312,273,184,131,81,15,-26,-93,-138,-165,-220,-247,-251,-267,-297,-274,-269,-286,-282,-230,-159,-82,-24,6,41,69
2018-05-17,17:45:53.142,95,84,70,-41,-315,-589,-1069,-468,204,601,625,449,272,119,49,39,20,10,-6,-24,-25,-44,-64,-79,-112,-160,-216,-269,-305,-347,-359,-334,-282,-258,-221,-157,-80,4,129,214,276,329,349,342,331,297,267,212,195,151,128,120,119,112,99,50,33,32,32,38,66,142,210,260,317,334,319,298,278,267,178,-92,-432,-1101,-691,275,1037,1194,914,642,358,207,152,136,99,71,47,14,-11,-63,-120,-163,-204,-248,-314,-384,-474,-535,-569,-563,-541,-507,-399,-277,-140,-24,74,158,250,250,226,231,205,177,178,172,160,155,155,168,192,168,106,76,91,112,113,108
2018-05-17,17:45:54.179,170,248,362,369,356,406,425,372,346,254,70,-175,-846,-678,177,870,1084,851,582,301,132,67,50,8,-10,-32,-37,-51,-84,-130,-141,-146,-176,-250,-261,-264,-275,-234,-206,-196,-158,-87,-11,72,177,256,286,327,352,332,307,300,283,267,237,209,209,195,185,188,164,128,96,88,77,65,113,175,225,262,281,319,321,299,285,269,177,-28,-290,-979,-521,302,806,836,546,278,-40,-205,-271,-328,-388,-458,-503,-495,-462,-466,-491,-513,-532,-557,-551,-578,-607,-581,-549,-514,-489,-438,-345,-237,-146,-59,29,78,123,153,156,136,128,119,84,65,71,5,16,62,84,28
2018-05-17,17:45:55.216,-144,-131,-143,-167,-171,-101,-19,33,55,85,89,97,89,80,62,-78,-370,-1006,-1450,-478,386,981,773,461,127,-38,-115,-151,-158,-190,-198,-176,-197,-250,-279,-296,-342,-363,-399,-448,-485,-474,-453,-399,-351,-285,-193,-59,71,185,292,380,427,460,471,479,448,419,383,357,306,249,212,210,192,165,122,75,27,-8,-17,-32,0,12,12,3,-23,-97,-139,-151,-152,-208,-360,-614,-982,-1366,-523,90,436,353,150,-34,-143,-174,-177,-156,-144,-145,-156,-167,-168,-174,-197,-235,-259,-292,-290,-298,-300,-301,-285,-216,-140,-59,12,93,166,227,305,353,357,348,330,310,251,192,148,151
2018-05-17,17:45:56.253,127,83,68,55,62,60,26,-20,-7,-13,-32,1,85,143,175,194,174,169,147,124,119,22,-166,-482,-1130,-499,166,695,736,563,350,148,86,106,88,63,39,14,0,-31,-46,-52,-77,-103,-136,-181,-207,-233,-228,-199,-154,-104,-61,19,140,224,313,369,417,438,409,361,299,228,143,69,7,-43,-85,-136,-163,-178,-196,-242,-287,-290,-280,-245,-204,-142,-83,-44,3,61,84,117,127,111,8,-282,-574,-1079,-627,266,798,853,574,358,196,107,81,90,108,92,37,42,23,-48,-86,-100,-136,-180,-229,-264,-321,-344,-312,-270,-262,-193,-99,-2,120,223,341,401,462,453
2018-05-17,17:45:57.290,425,401,363,313,258,229,184,186,153,153,144,108,60,8,-5,-15,-30,-33,27,101,177,218,241,252,235,210,181,115,-118,-430,-1109,-1045,-39,757,1089,858,586,223,25,-53,-67,-93,-128,-151,-183,-207,-229,-282,-365,-383,-429,-515,-574,-629,-680,-707,-721,-702,-655,-579,-441,-303,-189,-92,-10,25,49,45,32,18,-11,-3,-2,-27,-34,-24,-48,-72,-118,-172,-173,-170,-136,-105,-105,-30,67,124,184,164,106,103,128,87,-76,-310,-839,-1194,-314,365,771,630,425,139,-41,-133,-149,-181,-210,-222,-238,-243,-257,-285,-279,-285,-326,-362,-397,-421,-426,-390,-341,-319,-290,-219,-139,-41
2018-05-17,17:45:58.327,43,113,161,201,204,192,185,179,169,154,146,128,93,82,69,63,43,-9,-53,-57,-68,-69,-22,52,127,195,241,265,278,266,247,225,127,-114,-437,-1092,-564,307,848,874,622,333,40,-151,-250,-293,-348,-386,-440,-448,-410,-396,-403,-411,-415,-448,-478,-476,-473,-430,-393,-330,-259,-174,-87,28,119,214,303,400,467,465,461,478,458,396,392,409,411,399,357,261,272,296,218,167,156,128,114,185,260,307,339,353,351,343,333,345,250,164,-122,-740,-1329,-346,489,1157,971,646,314,111,29,-1,-24,-70,-90,-116,-124,-126,-172,-197,-220,-260,-325,-383,-413,-415,-402,-361
2018-05-17,17:45:59.365,-321,-267,-164,-49,60,162,234,297,336,354,333,305,272,232,176,173,146,112,82,59,39,19,-26,-84,-121,-175,-200,-197,-178,-153,-138,-169,-218,-261,-320,-336,-355,-432,-634,-884,-1290,-1275,-427,18,250,131,6,-192,-289,-335,-314,-280,-265,-263,-263,-258,-266,-277,-294,-309,-336,-362,-365,-353,-332,-291,-245,-141,-116,-48,138,242,211,257,331,446,453,430,426,408,387,358,318,270,239,233,250,250,203,146,126,168,176,161,212,283,344,368,381,367,386,369,337,299,160,-13,-344,-790,-75,502,910,887,712,492,307,235,219,223,202,171,134,86,45,21,-20,-89,-146,-211
2018-05-17,17:46:00.402,-273,-343,-392,-391,-399,-391,-363,-291,-202,-122,-46,-9,15,31,8,-12,-65,-120,-187,-247,-305,-407,-471,-564,-621,-635,-664,-770,-846,-864,-864,-788,-770,-732,-658,-586,-530,-534,-529,-514,-526,-529,-553,-812,-1157,-1602,-1709,-682,-3,341,49,-186,-444,-553,-617,-511,-507,-596,-609,-564,-569,-669,-706,-676,-647,-720,-788,-825,-841,-805,-743,-713,-662,-557,-457,-330,-175,-18,105,197,255,296,337,330,311,297,273,253,219,216,249,245,266,279,233,179,173,177,177,169,220,278,325,378,432,421,398,378,373,335,155,-136,-743,-882,38,771,1138,961,719,416,234,165,155,156,155,140,141,105
2018-05-17,17:46:01.439,44,10,-23,-60,-83,-160,-218,-248,-265,-254,-247,-200,-167,-127,-46,47,122,203,236,287,299,277,262,247,229,213,205,199,201,216,219,172,87,66,84,88,134,156,241,257,380,336,214,325,347,334,283,87,-69,-563,-1028,-252,383,880,867,665,379,165,91,87,98,68,30,-2,-16,-51,-69,-93,-116,-116,-156,-199,-221,-226,-191,-151,-111,-73,-5,89,216,307,349,402,436,439,471,446,414,384,353,334,309,295,266,258,274,270,240,197,181,174,203,239,281,353,424,471,484,468,447,419,383,306,99,-201,-882,-860,178,879,1160,881,627,273,64,-34,-53,-87
2018-05-17,17:46:02.476,-100,-134,-223,-274,-294,-286,-313,-343,-353,-363,-399,-422,-420,-398,-379,-315,-220,-139,-38,96,208,271,336,397,411,410,419,454,348,226,217,220,248,282,254,158,18,8,13,-40,-55,-48,33,118,193,236,257,264,244,232,195,121,-21,-266,-980,-1337,-413,403,951,782,510,189,32,-48,-103,-111,-138,-189,-177,-185,-211,-215,-241,-286,-338,-382,-422,-444,-435,-399,-341,-298,-219,-122,-11,81,162,225,271,311,317,280,241,227,192,173,151,123,118,121,112,73,43,16,5,-19,-46,-8,54,98,96,64,43,11,-30,-64,-117,-333,-615,-943,-1101,-286,105,352,232,108,-41,-158
2018-05-17,17:46:03.513,-233,-228,-218,-232,-247,-236,-258,-276,-284,-302,-327,-351,-359,-355,-365,-370,-334,-307,-289,-241,-164,-100,-40,18,183,168,81,109,155,138,110,112,109,127,217,102,-175,-223,-65,-52,-175,-183,-124,-101,-55,29,90,126,175,195,183,177,136,94,-45,-332,-671,-1165,-463,249,640,578,391,216,81,6,-26,-44,-51,-74,-82,-95,-93,-113,-149,-183,-232,-272,-312,-335,-346,-334,-323,-295,-233,-129,0,132,232,312,346,358,372,400,401,358,316,225,151,88,13,-40,-45,-43,-41,-85,-125,-179,-204,-245,-216,-136,-44,44,106,157,163,134,107,89,-95,-434,-726,-1029,-78,671,1046,821
2018-05-17,17:46:04.551,616,377,198,142,184,175,94,87,62,111,190,181,-124,-199,-80,-86,-219,-263,-244,-238,-193,-152,-80,35,150,299,404,508,587,659,668,663,613,559,520,486,437,430,410,368,361,330,283,207,146,118,141,115,89,131,188,263,312,332,327,304,263,215,75,-177,-562,-1128,-459,272,763,733,498,265,72,-36,-82,-117,-152,-161,-183,-216,-223,-232,-255,-268,-283,-315,-344,-370,-374,-379,-376,-345,-323,-291,-272,-234,-184,-165,-120,-113,-119,-122,-170,-205,-246,-252,-268,-288,-277,-282,-263,-290,-370,-386,-372,-346,-315,-265,-202,-129,-63,-25,-12,-13,-19,-20,-26,-186,-491,-805,-1192,-371
2018-05-17,17:46:05.588,179,616,581,406,112,-84,-164,-200,-211,-207,-228,-284,-305,-319,-346,-353,-405,-463,-505,-536,-589,-610,-567,-486,-405,-334,-260,-186,-48,36,109,191,225,221,207,229,184,149,137,114,97,89,62,64,44,-7,-32,-35,-25,0,15,84,142,186,213,234,226,233,221,205,96,-160,-526,-1168,-640,248,981,1055,750,462,154,-7,-55,-65,-95,-132,-165,-212,-263,-304,-327,-374,-480,-523,-538,-552,-630,-662,-614,-541,-475,-411,-307,-208,-84,0,45,104,184,222,217,186,157,133,95,96,93,90,102,69,-3,-58,-93,33,33,-185,-126,-2,103,161,206,221,215,211,205,165,5,-238
2018-05-17,17:46:06.625,-902,-1397,-373,488,1098,862,589,256,0,-95,-119,-128,-132,-143,-158,-151,-167,-198,-223,-255,-292,-310,-350,-340,-344,-321,-262,-198,-146,-29,79,155,230,312,354,391,444,432,384,334,292,264,243,231,186,165,135,101,36,22,23,42,92,144,236,294,319,350,358,348,330,302,197,-76,-405,-916,-615,169,590,606,397,217,-20,-161,-175,-197,-230,-217,-218,-262,-269,-268,-292,-307,-319,-332,-343,-346,-344,-354,-329,-300,-282,-213,-110,-66,46,127,136,223,263,142,170,132,118,116,118,91,57,35,17,-18,-62,-105,-118,-99,-101,-61,-3,52,142,156,114,139,185,106,81,-33
2018-05-17,17:46:07.662,-287,-709,-1293,-472,242,778,731,490,218,27,-61,-96,-124,-120,-113,-127,-137,-147,-156,-180,-213,-248,-286,-305,-269,-262,-325,-325,-270,-220,-158,-44,63,132,239,310,343,339,357,365,328,290,272,241,219,198,209,157,131,60,-4,-5,-24,-76,-29,101,184,256,267,232,191,174,157,126,-80,-436,-853,-1037,-48,565,856,630,441,231,134,81,114,151,184,171,173,166,129,114,95,49,-9,-74,-135,-169,-169,-157,-137,-83,8,118,219,344,493,563,571,598,630,616,567,464,409,402,362,284,258,250,198,162,97,63,28,8,70,141,156,213,221,216,206,149,84,65
2018-05-17,17:46:08.699,5,-239,-554,-1297,-942,-36,503,591,368,134,-97,-208,-273,-311,-348,-361,-378,-397,-427,-467,-512,-512,-560,-596,-606,-621,-635,-624,-575,-527,-461,-401,-323,-248,-177,-129,-114,-69,-63,-99,-160,-231,-288,-332,-415,-496,-521,-544,-586,-616,-621,-608,-615,-601,-594,-497,-443,-375,-305,-255,-223,-194,-177,-161,-177,-356,-632,-1032,-1217,-369,182,500,314,144,-28,-160,-179,-215,-247,-259,-236,-255,-245,-280,-339,-329,-347,-431,-467,-449,-481,-480,-474,-419,-371,-325,-261,-173,-64,18,85,153,213,245,240,206,179,145,118,91,92,65,66,3,-41,-28,-15,-5,-14,14,107,171,204,245,265,274,313,307
2018-05-17,17:46:09.736,303,124,-173,-646,-1120,-274,508,1082,946,651,358,175,85,60,33,19,11,-6,-30,-41,-84,-135,-174,-217,-290,-325,-361,-374,-398,-380,-348,-294,-241,-150,-84,-35,19,106,151,192,226,245,201,188,161,141,130,102,95,106,57,14,11,18,36,50,102,157,281,390,415,371,335,287,306,258,6,-336,-989,-496,359,977,1191,956,628,300,150,99,75,47,30,19,-31,-58,-89,-131,-152,-161,-226,-266,-261,-251,-243,-248,-219,-193,-163,-91,-13,75,166,242,286,293,310,318,318,315,288,261,232,195,157,107,64,60,58,59,64,72,111,165,212,236,242,259,261,240
2018-05-17,17:46:10.774,214,123,-62,-428,-1055,-296,484,1051,1005,789,496,259,120,65,22,-31,-44,-78,-174,-232,-304,-381,-428,-504,-564,-610,-605,-598,-547,-489,-434,-379,-308,-234,-164,-87,-47,17,66,79,81,94,104,113,169,252,299,208,-81,-106,-87,-150,-117,-38,100,96,286,189,162,167,198,251,291,274,255,152,-78,-608,-1291,-465,369,1200,1202,869,467,215,90,-5,-36,-67,-117,-167,-217,-234,-259,-281,-310,-380,-421,-423,-443,-426,-414,-380,-331,-284,-197,-95,10,87,162,247,302,324,337,307,280,235,184,154,132,103,88,81,102,80,35,21,1,-14,4,70,131,195,235,243,245,223
2018-05-17,17:46:11.811,186,141,12,-322,-772,-1378,-488,255,763,633,356,80,-175,-299,-339,-347,-355,-357,-331,-316,-321,-351,-371,-359,-358,-367,-347,-338,-343,-298,-232,-192,-124,37,119,181,211,250,370,560,483,433,672,735,438,409,361,241,252,300,293,233,172,166,188,198,209,278,311,380,416,428,434,390,370,338,176,-92,-465,-976,-322,347,795,766,591,367,177,105,108,89,79,87,62,32,-4,-49,-82,-118,-171,-190,-201,-215,-236,-246,-236,-211,-171,-105,-40,36,113,196,245,283,303,299,263,217,186,153,105,45,-15,-37,-72,-173,-291,-355,-356,-340,-378,-376,-310,-286,-283,-279,-350,-390
2018-05-17,17:46:12.848,-393,-362,-445,-773,-1076,-1463,-796,-60,214,111,-106,-219,-298,-332,-329,-327,-344,-363,-376,-368,-331,-305,-368,-418,-423,-376,-348,-369,-532,-563,-501,-407,-314,-245,-355,-260,-87,20,75,112,158,171,155,100,68,72,28,-18,-37,-80,-27,-83,-194,-221,-235,-210,-173,-63,-34,34,113,105,53,79,165,127,0,-247,-576,-1125,-518,405,994,968,679,450,252,157,153,157,144,134,113,111,121,100,74,47,19,-28,-62,-67,-68,-66,-45,-15,31,121,213,294,381,449,448,460,524,513,424,384,359,309,244,185,120,66,17,-51,-123,-155,-125,-89,-54,18,73,126,158,193,179,183
2018-05-17,17:46:13.885,184,170,22,-246,-578,-1017,-204,432,771,681,492,305,147,16,-19,-24,-60,-81,-95,-75,28,-94,-229,-262,-285,-321,-337,-322,-324,-325,-309,-309,-252,-187,-156,-117,-62,9,45,74,92,80,78,50,40,23,-8,-57,-81,-151,-175,-207,-220,-219,-218,-176,-105,-23,40,79,98,79,50,23,-15,-149,-385,-777,-1136,-352,230,633,562,340,99,-43,-121,-153,-159,-155,-151,-155,-165,-181,-199,-223,-259,-286,-331,-364,-376,-380,-332,-305,-274,-226,-200,-166,-119,-77,-62,-32,-38,-45,-79,-100,-96,-121,-144,-170,-176,-168,-211,-279,-302,-296,-260,-196,-151,-71,11,74,129,175,211,208,142,107
2018-05-17,17:46:14.922,-42,-374,-725,-1225,-410,410,933,764,498,225,31,-83,-89,-91,-112,-135,-130,-158,-216,-243,-290,-334,-360,-394,-467,-485,-471,-460,-447,-421,-353,-285,-136,-29,40,121,214,257,262,233,201,173,171,152,122,111,117,111,60,21,23,13,6,30,96,176,256,281,300,284,256,248,223,71,-194,-606,-1100,-327,457,992,940,709,396,162,38,-4,1,-5,-26,-46,-100,-121,-139,-190,-229,-280,-314,-347,-369,-391,-383,-361,-373,-306,-254,-178,-97,-37,3,21,53,104,98,82,58,76,64,44,67,90,62,-4,-25,6,32,22,55,112,171,190,214,238,289,265,240,176,-31,-246
2018-05-17,17:46:15.959,-877,-644,272,858,983,740,494,230,120,53,17,-16,-40,-74,-84,-97,-102,-112,-114,-139,-153,-152,-181,-180,-165,-159,-130,-91,-40,33,113,190,250,310,322,298,277,243,227,206,187,165,124,118,107,61,0,-32,-23,-15,-13,-4,96,212,269,317,333,336,322,308,257,53,-228,-850,-1081,-75,688,1112,827,562,237,6,-83,-135,-197,-273,-304,-333,-335,-366,-395,-407,-417,-461,-477,-500,-523,-521,-492,-420,-345,-270,-206,-103,30,133,246,333,356,412,409,276,168,133,262,329,129,-42,50,38,-61,-72,-27,-13,11,83,155,201,239,257,247,258,248,226,84,-199,-641,-1413
2018-05-17,17:46:16.997,-585,196,937,866,581,253,37,-58,-74,-94,-132,-158,-181,-191,-223,-239,-258,-280,-310,-315,-312,-316,-335,-345,-339,-301,-233,-151,-61,40,110,171,233,267,277,263,231,218,217,195,182,173,157,133,111,91,92,106,100,111,177,261,312,314,323,296,274,231,167,-9,-278,-617,-1023,-341,254,586,509,326,136,6,-55,-69,-106,-107,-130,-154,-161,-198,-195,-209,-234,-270,-290,-292,-295,-264,-233,-202,-160,-92,-65,-10,57,87,120,238,262,267,214,189,169,165,124,106,75,48,3,-54,-98,-105,-96,-131,-108,-26,40,74,108,98,93,99,62,-37,-244,-524,-1112,-946,-72,458
2018-05-17,17:46:18.034,653,417,240,19,-67,-95,-94,-87,-109,-132,-134,-170,-187,-195,-218,-241,-258,-309,-365,-380,-385,-368,-336,-283,-214,-108,-1,85,151,200,246,264,255,220,168,127,77,13,-18,-26,-66,-158,-233,-245,-246,-284,-269,-194,-159,-154,-129,-128,-148,-186,-187,-194,-454,-800,-1245,-1245,-250,297,503,262,50,-114,-173,-194,-187,-178,-204,-206,-205,-225,-216,-245,-255,-293,-334,-379,-423,-416,-409,-414,-344,-236,-218,-110,16,90,179,257,285,278,267,220,197,180,99,45,31,-1,-67,-104,-189,-178,-155,-195,-149,-54,17,75,126,135,126,109,101,56,-122,-379,-852,-1131,-274,405,858,727,517,229
2018-05-17,17:46:29.020,122,136,146,153,177,202,215,192,125,70,50,50,1,10,9,56,96,215,298,416,561,592,555,493,401,306,213,137,20,-58,-107,-240,-403,-495,-596,-661,-699,-692,-724,-706,-645,-570,-544,-591,-630,-602,-526,-455,-545,-765,-989,-1649,-1207,-241,494,794,587,-68,-507,-435,-442,-441,-365,-255,-294,-323,-385,-335,-429,-568,-602,-632,-527,-524,-634,-704,-526,-410,-499,-550,-510,-409,-397,-343,-313,-280,-276,-290,-264,-316,-573,-678,-643,-592,-602,-708,-656,-584,-562,-522,-472,-361,-261,-193,-97,-16,-21,-29,4,27,-42,-253,-509,-1094,-653,314,864,966,762,534,229,71,1,-90,-92,-126,-156,-246
2018-05-17,17:46:30.032,-302,-354,-419,-527,-567,-617,-658,-670,-660,-665,-591,-475,-429,-424,-374,-278,-128,0,96,159,234,197,319,174,184,333,485,136,-226,-246,-65,-24,-31,46,62,206,335,458,453,232,212,342,388,332,-42,-26,-66,-1088,-387,317,1207,1156,757,253,212,68,-26,-24,56,29,-65,-79,-138,-270,-318,-326,-327,-316,-394,-364,-315,-273,-190,-95,-37,50,89,137,207,261,328,364,357,376,346,301,299,357,422,411,427,413,329,230,174,135,58,158,203,264,267,243,254,142,134,104,-47,-242,-542,-1145,-1371,-402,288,597,366,156,34,-50,-92,-101,-225,-302,-182,-57,39,20,232,251
2018-05-17,17:46:31.070,-321,-496,-368,-256,-234,-69,69,24,80,235,38,-28,180,282,362,577,544,575,392,147,206,523,689,257,-305,-248,-85,-18,7,95,13,-67,62,279,327,125,40,73,88,17,-68,-264,-537,-855,-674,191,470,679,619,528,358,263,249,265,307,295,328,369,316,239,300,381,312,247,220,163,145,176,192,165,177,121,83,69,62,58,35,40,18,41,-7,-39,-50,-148,-65,-95,-180,-222,-241,-208,-162,-72,-53,-56,-3,62,271,446,769,631,125,-2,30,127,-1,-309,-876,-625,386,1059,1255,976,547,253,-2,-222,-168,-58,-17,125,241,-52,-190,64,-351,-757,-386,-221
2018-05-17,17:46:32.107,-581,-529,-358,-337,-332,-306,-226,-314,-375,-286,-198,-209,-187,-180,-180,-142,-154,-135,-122,-100,-107,-86,-127,-163,-105,-64,-32,65,201,278,358,428,394,484,522,482,367,93,-203,-758,-637,237,691,780,502,282,-28,-266,-371,-374,-389,-453,-459,-468,-518,-550,-600,-619,-565,-642,-750,-763,-696,-605,-338,-266,-282,-86,-158,-182,60,312,280,180,-11,79,133,49,66,97,156,163,197,224,-106,-79,-67,-172,-91,73,63,109,212,308,204,167,196,144,-60,-191,-292,-913,-618,32,539,669,446,186,-141,-310,-366,-321,-240,-285,-322,-290,-300,-316,-324,-349,-322,-302,-314,-305,-341,-297,-178,-100
2018-05-17,17:46:33.144,-13,97,205,284,405,563,581,587,558,588,584,444,383,300,223,155,154,72,-68,-165,-240,-289,-293,-258,-211,-176,-148,-182,-200,-207,-281,-286,-316,-540,-677,-1081,-333,33,375,708,567,638,330,-143,-147,-94,38,151,94,102,81,-55,36,25,-133,-286,-352,-179,-199,-215,8,-51,-39,106,221,343,151,89,292,509,513,428,18,83,-76,-48,3,-32,-209,-276,-303,-272,-310,-320,-298,-254,-162,-119,-29,65,142,221,241,213,202,-13,-234,-628,-670,416,986,1316,1106,910,651,484,404,394,343,267,195,123,64,4,-98,-174,-287,-409,-480,-498,-489,-478,-482,-478,-410,-404,-391,-340
2018-05-17,17:46:34.181,-307,-314,-272,-270,-157,-80,-104,-69,30,78,-60,-122,119,307,32,-69,-139,-250,-59,159,253,262,463,507,243,239,230,-54,-203,-347,-853,-295,332,890,766,469,267,46,66,84,-185,-232,-105,-37,-40,-34,-143,-307,-426,-438,-562,-667,-623,-565,-566,-508,-408,-301,-242,-155,-91,1,102,224,252,276,301,325,292,243,200,219,254,256,262,320,465,460,362,442,518,581,614,603,600,522,420,320,79,-264,-819,-1191,-270,447,1117,971,652,264,-106,-315,-367,-306,-227,-142,90,-47,-183,-187,32,-50,20,139,-223,-400,-338,-249,-151,55,178,416,524,630,660,377,373,459,673,573
2018-05-17,17:46:35.218,444,369,182,83,24,43,8,-40,24,65,7,-12,72,262,304,252,177,96,-142,-361,-403,-721,-1119,-1620,-791,0,363,330,138,17,-106,-163,-172,-186,-203,-187,-195,-172,-153,-187,-209,-216,-239,-186,-182,-142,-104,-107,-134,-161,-175,-199,-157,-150,-182,-195,-190,-215,-266,-285,-340,-434,-481,-501,-506,-574,-621,-607,-650,-705,-722,-694,-532,-443,-294,-146,-193,-280,-206,146,273,-103,-370,-350,-1057,-1270,-224,428,773,656,459,231,-111,-293,-100,-219,-297,-272,-120,-244,-386,-367,-343,-462,-492,-461,-430,-366,-289,-356,-357,-243,-124,-83,-100,-64,-73,-199,-172,-156,-148,-147,-204,-210,-167,-197,-240,-220
2018-05-17,17:46:36.256,-202,-173,-80,4,113,177,259,324,354,390,419,483,555,426,249,-247,-682,231,942,1412,1239,929,553,312,143,108,52,-75,-105,-186,-231,-334,-388,-421,-539,-704,-774,-738,-641,-706,-639,-546,-372,-105,168,166,26,62,248,210,397,644,723,629,360,240,238,304,337,410,519,508,380,46,129,210,354,428,501,491,410,354,321,82,-185,-992,-720,260,1071,1247,959,789,459,205,108,13,-231,-371,-424,-363,-349,-415,-460,-437,-434,-445,-427,-373,-300,-225,-198,-196,-121,-38,42,117,245,347,371,417,485,502,461,415,390,366,246,120,45,-66,-120,-109,-126,-79,-17,-43,-80,-129
2018-05-17,17:46:37.293,-130,-155,-218,-288,-550,-818,-1379,-1208,-443,52,310,212,117,72,133,-57,-330,-431,-277,-65,60,162,-43,-436,-411,-293,-245,-91,-67,-86,0,-133,-213,-156,86,346,497,279,155,42,224,378,105,90,226,611,357,-97,-346,-383,-199,-205,-357,-268,-120,-80,-48,-83,-36,4,-55,-42,-21,-102,-364,-516,-890,-608,358,665,838,727,568,361,265,159,215,186,224,251,266,289,283,231,174,63,-21,-97,-199,-237,-202,-193,-178,-232,-258,-250,-177,-122,-73,-79,-36,-14,-4,-96,-181,-283,-397,-374,-342,-294,-280,-251,-171,-122,38,103,261,299,285,226,127,-32,60,151,-4,-257,-953,-376
2018-05-17,17:46:38.330,468,990,953,746,519,293,144,136,131,-20,-12,-62,-187,-203,-187,-204,-200,-218,-236,-233,-234,-239,-141,-85,-46,-79,-88,-146,-33,87,56,7,26,42,23,22,15,-8,-37,-36,-36,-24,13,42,152,211,319,371,418,457,506,519,529,334,100,-303,-619,226,767,950,779,623,335,149,-4,-71,-123,-202,-290,-345,-409,-507,-507,-464,-545,-619,-648,-648,-574,-482,-446,-376,-270,-106,-60,63,69,22,248,185,24,12,98,131,115,145,163,60,94,48,86,-129,-16,74,145,177,76,206,255,173,126,98,-97,-614,-1082,-194,511,1040,896,753,504,181,68,-148,-303,-403,-446,-427
2018-05-17,17:46:39.367,-399,-473,-532,-519,-444,-410,-458,-478,-429,-352,-312,-253,-164,-30,139,248,311,417,483,541,663,708,721,685,599,462,307,155,68,3,4,2,79,147,196,206,207,202,144,76,25,-102,-493,-923,-1734,-1255,-273,336,295,117,-39,-222,-322,-252,-117,-160,-266,-305,-305,-186,-39,-28,-202,-439,-542,-468,-369,-234,-40,72,181,112,112,84,87,394,281,71,77,206,387,245,152,109,-11,5,-199,-199,-65,-57,10,168,245,215,102,-32,-252,-267,-324,-341,-575,-870,-1239,-1193,-200,252,520,440,361,250,122,129,211,194,227,301,342,379,408,473,541,595,623,631,617,576,478,476
2018-05-17,17:46:40.404,436,449,455,429,401,419,376,295,300,286,276,305,305,318,280,234,221,196,101,110,172,253,305,460,733,659,686,585,473,657,622,278,-12,-647,-253,372,911,1178,1027,913,713,300,241,304,83,16,50,102,171,-33,-201,-25,-36,-430,-500,-482,-481,-400,-363,-364,-342,-274,-370,-309,-247,-232,-347,-408,-412,-431,-425,-471,-534,-564,-597,-633,-615,-545,-521,-452,-391,-354,-313,-322,-307,-314,-353,-424,-646,-922,-1573,-1423,-378,387,772,478,69,-347,-562,-654,-705,-814,-925,-999,-1036,-1137,-1253,-1323,-1374,-1446,-1532,-1557,-1540,-1458,-1438,-1408,-1285,-1106,-1035,-922,-706,-581,-461,-403,-355,-232,-304,-204
2018-05-17,17:46:41.441,-131,-177,-127,-392,-353,-369,-407,-289,-251,-69,179,100,212,314,219,101,-38,-290,-824,-1335,-551,238,987,945,670,199,-67,-74,-24,-1,-26,-74,-105,-85,-118,-136,-206,-390,-568,-500,-419,-397,-319,-214,-105,-26,15,23,58,140,235,256,312,335,328,269,284,288,233,192,179,188,267,311,378,420,484,502,490,467,432,359,354,241,-120,-434,-917,-244,450,800,723,498,226,5,-28,-63,0,-61,-168,-173,-157,-129,-73,17,9,21,-75,-164,-160,-8,8,61,-105,0,155,356,523,459,481,543,440,383,469,710,644,248,311,234,8,62,196,227,321,289,310,399,445,450
2018-05-17,17:46:42.479,440,466,381,151,-184,-891,-382,490,810,785,511,282,127,98,128,127,125,122,130,133,113,80,55,24,13,-19,-49,-80,-13,57,146,197,312,467,610,703,739,746,704,668,601,574,540,501,384,234,100,-4,-43,-47,-18,18,14,107,123,93,139,175,100,-11,-271,-584,-1025,-965,121,743,1082,911,614,327,178,102,104,-1,-184,-158,11,63,355,350,107,-275,-276,-266,-278,-223,-306,-236,-142,-88,-106,22,229,181,46,131,276,180,52,35,73,80,113,-17,-226,-345,-482,-502,-434,-355,-286,-187,-100,-77,-90,-97,-74,-129,-398,-665,-1090,-739,175,726,837,636,421,187
2018-05-17,17:46:43.516,12,13,84,89,81,79,59,42,-3,-91,-143,-153,-196,-280,-313,-302,-293,-278,-235,-233,-171,-126,-58,-71,-33,27,1,1,-102,-90,-112,-139,-121,-105,144,309,248,257,493,525,500,490,167,206,313,362,201,110,-383,-188,335,744,1013,830,677,494,244,295,291,202,69,118,113,137,56,-145,-201,-217,-259,-232,-306,-241,-153,-204,-268,-325,-454,-395,-291,-256,-282,-273,-235,-216,-240,-288,-323,-387,-431,-409,-350,-315,-238,-197,-172,-123,-115,-86,-82,-39,-136,-411,-666,-1236,-846,50,606,631,341,54,-290,-492,-584,-627,-675,-787,-820,-831,-875,-903,-926,-950,-985,-969,-1008,-1060,-927,-945
2018-05-17,17:46:44.553,-867,-757,-635,-465,-317,-175,-126,-124,128,158,-87,-88,-171,-304,-389,-392,-366,-317,-287,-223,-139,12,57,112,163,154,91,114,29,-224,-651,-1312,-581,167,1009,1040,729,375,185,-64,-111,-8,9,-27,-37,-80,-124,-202,-257,-236,-290,-292,-238,-171,-120,-104,-113,-74,-12,22,79,136,201,213,248,292,315,294,308,241,147,97,137,124,127,159,276,334,417,455,461,435,376,326,207,-111,-448,-1021,-630,284,863,919,663,403,159,114,1,24,76,104,117,111,51,119,7,-27,-45,-165,-213,-236,-212,-197,-160,-80,4,96,293,316,239,251,268,263,347,409,242,27,14,4
2018-05-17,17:46:45.590,-129,-106,-48,11,106,147,193,278,292,359,388,357,241,-19,-478,-888,-172,425,652,570,454,313,167,79,44,48,32,13,2,-8,-52,-77,-113,-162,-168,-151,-110,-120,-95,-56,17,114,260,345,408,446,456,462,405,332,297,279,247,136,49,-39,-129,-145,-148,-153,-99,-9,18,54,40,29,55,44,-40,-296,-581,-907,-718,195,638,1086,858,513,237,125,-1,-13,69,137,56,-13,50,2,70,-69,-104,-45,-127,-188,-140,-189,-193,-67,16,83,-8,-6,127,181,214,195,269,261,237,168,185,114,-54,-164,-202,-285,-263,-176,-114,-24,102,159,128,133,123,58,-242,-575
2018-05-17,17:46:46.627,-1041,-972,96,852,1303,1084,739,335,149,90,96,132,136,90,17,-1,-10,-74,-162,-204,-198,-279,-377,-389,-341,-346,-370,-343,-249,-198,-145,-82,-13,-58,-81,-97,-211,-166,-143,-122,-66,-147,-228,-131,25,258,151,51,288,261,112,-9,10,-20,-98,-541,-1145,-471,284,932,880,704,381,13,-33,-19,55,-103,-230,-176,-116,-125,-223,-227,-210,-230,-305,-348,-257,-186,-200,-156,-319,-466,-327,-284,-273,-214,-134,-94,-79,-118,-190,-243,-275,-293,-216,-208,-206,-105,-23,81,128,153,251,261,288,190,-22,-256,-653,-41,642,963,893,660,411,207,69,20,-34,-71,-73,-157,-244,-259,-390,-420
2018-05-17,17:46:47.665,-454,-444,-542,-548,-648,-662,-554,-514,-441,-334,-264,-173,-76,33,126,144,141,81,94,174,-49,-36,-16,-140,-195,4,255,110,130,315,229,156,295,334,121,-167,-899,-1024,-50,694,1061,842,574,298,192,181,139,110,140,162,69,-49,-159,-198,-293,-406,-445,-493,-450,-387,-329,-269,-226,-165,-102,-34,28,68,119,208,236,204,181,173,174,128,71,78,180,233,353,485,525,556,560,495,441,420,322,90,-258,-888,-1194,-360,414,1082,888,487,62,-165,-269,-349,-407,-505,-512,-500,-467,-413,-376,-375,-336,-358,-313,-70,6,-361,-619,-389,-340,-304,-70,50,211,478,476,481,593,451
2018-05-17,17:46:48.702,319,254,163,108,166,210,264,487,599,320,315,466,511,614,692,566,277,-120,-993,-651,505,1533,1627,958,497,275,111,60,115,154,152,153,113,103,81,88,74,47,-4,-21,-20,11,53,105,161,241,346,439,522,631,708,687,669,621,573,411,282,165,66,-6,-32,-39,-58,-35,-42,-60,-35,-89,-159,-188,-256,-670,-1161,-1650,-1206,-336,196,261,131,153,-41,-326,-630,-670,-576,-425,-428,-561,-683,-697,-582,-602,-749,-757,-672,-675,-511,-313,-396,-610,-648,-639,-601,-476,-301,-429,-499,-450,-455,-518,-538,-529,-526,-574,-556,-560,-556,-453,-433,-478,-633,-555,-542,-526,-436,-521,-827,-1054
2018-05-17,17:46:49.739,-1451,-778,-92,259,331,184,37,-119,-139,-190,-208,-185,-169,-163,-198,-160,-142,-174,-204,-218,-249,-315,-337,-315,-315,-311,-313,-278,-262,-242,-187,-156,-134,-133,-149,-222,-250,-263,-339,-432,-457,-480,-431,-409,-276,-162,-62,84,118,188,260,386,187,-37,-163,-787,-332,220,839,1083,879,577,509,535,405,355,152,146,106,-6,7,31,27,106,51,74,-52,-87,-125,19,76,85,81,-79,78,296,378,378,341,190,176,116,42,-98,-86,-31,48,99,144,205,229,296,366,401,401,395,413,220,-135,-583,-980,9,872,1629,1581,1161,695,456,338,284,242,147,42,-15,-72,-106,-192,-288
2018-05-17,17:46:50.776,-370,-439,-543,-568,-622,-618,-571,-496,-436,-428,-332,-303,-225,-106,-21,64,141,191,287,23,-168,59,80,-26,-103,-67,54,214,320,395,413,449,510,258,-304,-1048,-810,125,846,1153,881,583,383,133,180,31,-240,-215,-143,-83,-131,-185,-147,-96,-122,-212,-191,-267,-430,-456,-332,-305,-304,-232,-155,-70,-19,-29,-28,-11,-24,-54,-102,-138,-165,-158,-137,-58,27,103,185,247,294,326,389,367,191,-87,-439,-551,290,813,986,690,527,302,99,24,-45,-90,-167,-199,-215,-267,-310,-325,-354,-384,-370,-431,-478,-444,-381,-290,-119,-46,-5,-92,135,212,208,192,38,-14,-36,-94,-64,-54
2018-05-17,17:46:51.813,-11,48,-19,6,17,175,316,332,281,426,228,-47,-145,-307,-766,-568,297,785,840,623,464,271,198,174,181,151,81,112,38,-188,-304,-239,-313,-373,-344,-306,-272,-242,-206,-222,-210,-161,-119,-58,6,48,91,127,126,97,85,87,44,30,73,86,67,111,213,281,342,334,341,336,289,234,33,-290,-878,-1338,-469,374,1053,890,514,94,-89,-243,-270,-356,-446,-417,-426,-354,-228,0,-53,-352,-413,-462,-392,-384,-432,-334,-363,-286,-151,27,228,326,514,460,215,231,361,25,98,320,-30,-54,101,185,467,429,446,409,164,309,418,453,175,-103,-742,-1254,-72,844,1269,868
2018-05-17,17:46:52.850,471,186,47,16,51,49,28,7,-32,-47,-42,-99,-141,-152,-195,-202,-206,-194,-103,-6,37,83,226,331,411,436,492,496,463,429,379,274,148,76,0,1,-16,-12,56,68,99,150,132,78,36,-41,-184,-537,-841,-1418,-764,49,547,583,504,263,-43,-136,-187,-137,55,1,-358,-328,-242,-261,-216,-209,-270,-307,-160,-118,-151,-87,-122,-102,1,-57,-49,53,46,-148,-207,-51,-80,-183,-166,-114,-136,-160,-189,-221,-95,2,75,89,97,-106,-228,-176,-234,-400,-685,-947,-978,-141,208,402,270,129,20,-52,-109,-83,-90,-72,-68,-96,-82,-76,-67,-36,-42,-118,-149,-163,-124,-132
2018-05-17,17:46:53.888,-135,-165,-173,-135,-135,-92,-67,-46,-37,-48,-66,-76,-110,-221,-302,-305,-303,-354,-327,-150,-116,-100,122,124,208,261,294,363,78,-217,-546,-786,204,866,1185,1212,986,556,306,400,492,438,401,234,193,269,473,140,-229,-216,-75,-116,-87,-117,-31,-21,109,162,56,72,235,328,350,314,202,89,49,-140,-234,-256,-227,-137,-103,-33,55,49,97,156,184,192,205,179,21,-299,-716,-1303,-464,437,1198,1200,829,423,120,-53,-117,-157,-204,-285,-391,-436,-475,-556,-656,-728,-843,-914,-987,-1021,-988,-918,-913,-907,-884,-762,-695,-625,-491,-210,-3,-77,-505,-570,-229,-429,-807,-621,-450,-339
2018-05-17,17:46:54.925,-279,-232,-105,-2,56,79,64,33,-151,-372,-987,-1300,-289,656,1294,839,344,61,-128,-119,-56,-227,-393,-332,-34,-80,-674,-626,-444,-369,-381,-412,-485,-464,-522,-440,-368,-329,-244,-108,-30,33,55,27,0,-13,-66,-116,-128,-162,-115,-134,-73,44,140,238,367,353,424,473,459,323,53,-338,-732,7,738,1142,1007,739,460,199,64,-25,-81,-99,-144,-185,-183,-260,-295,-347,-419,-441,-432,-410,-323,-198,-90,-37,59,87,53,57,127,341,405,346,233,206,221,-18,-65,-55,70,186,236,214,292,372,350,383,581,550,257,-31,-53,-528,-831,-16,748,1117,884,698,367,53,125,180
2018-05-17,17:46:55.962,139,38,26,-98,-292,-334,-328,-351,-369,-317,-283,-257,-212,-173,-135,-89,-25,2,108,189,219,249,278,288,275,212,205,194,182,185,227,250,339,459,525,544,541,548,531,456,394,148,-229,-779,-1207,-320,434,1119,951,629,206,-33,-116,-231,-205,-222,-243,-283,-254,-205,-168,-165,4,2,-69,-402,-248,-35,-177,-171,-171,-43,155,322,521,731,836,572,260,91,105,314,406,125,51,-47,-3,158,280,376,424,469,533,496,333,336,187,-299,-1440,-1125,131,1165,1162,683,215,45,-49,-96,-73,-85,-99,-123,-152,-188,-235,-294,-326,-367,-426,-445,-399,-379,-257,-118,-35,57,190,338
2018-05-17,17:46:56.999,443,501,470,413,362,322,233,101,-26,-61,-107,-139,-181,-163,-109,-57,-3,15,-35,-86,-123,-139,-493,-832,-1410,-1502,-359,363,746,569,267,8,-84,-46,-29,-305,-162,-202,-458,-428,-426,-383,-297,-300,-271,-197,-264,-275,-342,-207,-224,-105,-136,-130,-56,16,75,71,-3,-4,-11,17,25,-32,-108,-87,-74,-57,4,56,36,-95,1,-2,17,46,-29,-329,-622,-913,-756,64,456,679,532,366,151,57,42,35,70,53,9,24,53,16,58,80,23,-49,-67,-73,-127,-162,-112,-132,-169,-137,-139,-109,-57,-79,-38,-53,-135,-116,-85,-208,-328,-374,-309,-251,-270,-144,21,184,295,316
2018-05-17,17:46:58.036,66,80,195,290,-93,-641,-1252,-731,211,1032,1170,842,750,452,126,91,266,263,-16,-172,-108,35,-96,-109,-133,-137,-112,-90,-82,-32,79,193,259,290,378,367,443,465,271,178,145,146,125,55,56,87,94,115,148,255,281,367,454,458,438,408,414,363,149,-111,-829,-600,391,1276,1612,1317,886,482,265,168,68,-17,-63,-166,-236,-277,-372,-428,-494,-585,-640,-673,-655,-570,-540,-462,-528,-554,-486,-470,-334,-209,-169,-143,-120,-25,-38,-205,-346,-180,-54,-53,-118,-248,-111,-122,-128,61,209,246,246,30,-356,-766,-1252,-446,287,864,845,612,136,-155,-132,-139,-263,-227,-208,-396
2018-05-17,17:46:59.074,-379,-374,-404,-448,-536,-707,-818,-776,-758,-764,-669,-554,-436,-284,-136,-81,-35,-12,-36,-66,-34,-41,-106,-189,-168,-123,-171,-157,-41,121,248,402,525,585,583,567,470,199,-135,-881,-1086,75,926,1618,1332,824,255,4,-138,-240,-335,-334,-427,-489,-464,-562,-693,-711,-750,-695,-598,-434,-368,-350,-172,-67,26,-21,45,275,400,172,255,293,266,368,202,57,206,168,17,-6,172,352,189,101,275,350,346,241,271,201,-39,-512,-1125,-376,497,1162,1110,850,540,273,83,17,-67,-308,-299,-289,-294,-312,-322,-307,-296,-317,-350,-331,-299,-215,-136,-81,-53,-8,71,132,206,223,263,286
2018-05-17,17:47:00.111,244,269,279,206,159,85,73,28,33,106,190,232,265,220,182,168,131,15,-237,-525,-1056,-569,178,639,574,288,54,-132,-182,-168,-129,-111,-64,5,-44,-82,-229,-266,-368,-419,-486,-541,-504,-356,-87,-10,-134,-39,-5,-39,14,130,224,199,143,165,48,-164,-200,-170,-192,-223,-133,11,82,127,172,234,233,215,132,18,-328,-834,-1243,-330,162,446,348,220,87,-6,-47,-84,-86,-70,-59,-61,-90,-86,-112,-205,-226,-230,-222,-208,-159,-95,47,155,274,389,454,489,528,526,482,468,411,360,252,170,113,-15,-64,-21,1,-6,26,108,172,243,199,100,63,79,-136,-451
2018-05-17,17:47:01.148,-779,-807,194,881,1208,1000,495,107,197,96,-42,-39,38,102,29,149,259,-126,-335,-306,-287,-262,-258,-284,-256,-239,-173,-184,-181,-85,126,301,343,172,30,-106,41,38,-121,-155,-70,-72,-156,-198,-110,-80,-96,14,13,-20,14,16,8,-249,-662,-995,-1078,-63,486,729,537,367,129,-60,-160,-182,-116,-88,-95,-35,-73,-131,-185,-229,-282,-342,-408,-413,-376,-380,-341,-312,-278,-274,-250,-196,-175,-174,-162,-250,-337,-344,-336,-413,-478,-496,-441,-305,-133,-60,-40,133,505,451,90,-39,168,80,-172,-437,-946,-778,215,800,918,739,438,214,121,151,147,23,-181,-171,-127,-231,-115,105
2018-05-17,17:47:02.185,93,-392,-636,-628,-312,-297,-181,41,-44,-71,64,137,86,43,98,-19,-103,-75,-90,-227,-273,-238,-189,-194,-114,4,52,107,143,132,144,157,113,-58,-232,-698,-779,218,958,1274,1060,764,459,275,173,125,63,-32,-89,-158,-206,-340,-443,-475,-523,-562,-499,-448,-466,-424,-378,-363,-239,-183,-103,6,-23,36,131,151,127,165,222,520,417,-189,-415,-20,171,101,5,-8,111,218,260,307,165,-97,-684,-942,-111,605,1173,941,445,111,66,210,134,34,1,-111,36,-117,-154,-224,-427,-375,-602,-821,-630,-416,-370,-461,-368,-185,-30,82,187,220,213,152,147,114,7,-45,-38,-90
2018-05-17,17:47:03.222,-75,-51,0,98,155,261,354,423,470,475,479,261,-40,-535,-546,419,1003,1237,978,694,347,95,9,-49,-138,-138,-242,-329,-382,-437,-462,-458,-595,-656,-657,-518,-342,-87,-157,-196,-127,111,292,260,422,290,197,318,286,28,-7,-31,-126,-90,-138,-195,123,250,229,86,173,239,231,277,316,32,-238,-849,-708,234,893,1011,714,462,276,235,202,192,102,-118,-236,-255,-305,-348,-323,-259,-290,-300,-284,-242,-162,-76,-5,62,118,189,248,273,357,388,409,396,382,367,267,282,282,281,254,293,344,392,442,470,474,482,439,413,215,-70,-500,-891,-69,616,1025,844,615,208
2018-05-17,17:47:04.259,25,-53,-127,-185,-252,-265,-223,-204,-186,-288,-343,-252,-330,-312,-292,-106,-87,-332,-383,-221,-221,-126,71,217,286,362,352,397,120,-62,-246,-524,-496,-349,-243,-271,-241,-172,-32,-6,0,45,111,-43,-433,-717,-1328,-1198,-31,623,448,61,-93,-338,-421,-413,-382,-393,-430,-469,-520,-526,-591,-658,-705,-773,-842,-871,-848,-782,-668,-535,-363,-181,-59,38,138,239,251,156,120,91,53,-76,-147,-179,-231,-230,-257,-217,-122,-83,-14,2,11,-34,-75,-96,-278,-627,-1039,-1425,-434,244,674,576,337,282,203,56,-118,-128,0,-132,-277,-393,-410,-407,-492,-452,-422,-318,-254,-292,-173,-169,-167,11
2018-05-17,17:47:05.297,143,252,156,50,215,360,251,41,72,98,67,27,-54,31,32,-4,148,251,291,342,305,209,227,180,34,-298,-561,-907,-417,292,593,669,456,317,172,93,88,87,32,50,-1,-34,-7,-26,-72,-77,-113,-74,-63,-42,-12,75,63,86,131,128,188,221,189,177,147,114,64,49,31,-65,-139,-123,-140,-122,-86,-61,26,157,230,278,309,489,422,265,167,-223,-460,135,328,767,872,565,269,211,281,370,341,404,236,88,1,-39,-124,-41,24,-159,-279,-508,-332,-157,-147,-129,183,217,205,290,371,369,360,317,252,194,93,-2,-29,-89,-100,26,115,214,247,298
2018-05-17,17:47:06.334,322,299,285,317,320,228,-146,-496,-1053,-493,475,1321,1382,1053,675,355,212,147,121,121,82,18,-67,-161,-229,-267,-371,-469,-559,-575,-553,-514,-473,-404,-348,-258,-192,-101,-50,-50,-36,-106,-154,-171,-207,-210,-178,-67,0,-99,-152,-108,126,320,219,181,53,92,63,-135,-311,-592,-903,-325,337,921,873,557,305,-137,-164,0,-139,-183,-267,-250,-356,-460,-522,-505,-343,-465,-627,-512,-366,-350,-273,-243,-215,-101,-126,-143,-82,-39,-25,-12,-29,-73,-145,-189,-273,-219,-173,-80,18,57,109,156,182,184,217,204,63,-121,-428,-688,136,736,1022,846,594,295,105,23,-75,-131,-199,-257
2018-05-17,17:47:07.371,-314,-379,-431,-450,-517,-554,-518,-503,-458,-470,-488,-475,-387,-271,-157,-42,26,53,97,160,321,459,315,-88,-106,110,138,-180,-294,-211,-55,36,116,233,377,567,398,80,-301,-721,-899,2,637,840,704,442,257,156,45,13,-38,-50,-36,-57,-84,-52,-143,-290,-364,-487,-588,-525,-516,-454,-300,-135,-12,93,167,210,250,280,307,272,246,225,190,116,16,-19,-16,30,81,183,322,421,479,473,526,530,495,332,28,-373,-844,-38,743,1346,1227,904,519,236,75,-58,2,-73,-177,-220,-258,-270,-335,-438,-603,-714,-718,-606,-485,-377,-243,-12,340,458,117,38,202,296,444,512
2018-05-17,17:47:08.408,590,663,357,126,13,25,105,468,730,181,215,268,358,568,436,405,506,385,160,-95,-728,-758,284,1098,1377,1033,679,312,193,217,160,90,58,-86,-326,-442,-480,-574,-659,-659,-642,-599,-527,-459,-394,-303,-230,-143,-59,-11,27,96,97,102,72,43,-24,-97,-145,-203,-248,-240,-239,-233,-95,-15,25,79,95,53,11,-4,-102,-386,-682,-1185,-717,67,521,468,249,50,-175,-258,-291,-369,-489,-537,-579,-597,-595,-594,-600,-551,-485,-449,-575,-751,-548,-200,-147,-180,-144,-279,-231,-104,22,15,249,287,-33,-320,-282,-84,36,-227,-503,-296,-58,-122,-155,-12,122,238,396,314,0,-281
2018-05-17,17:47:09.445,-623,-971,-580,119,785,855,642,284,-71,-152,-146,-210,-247,-234,-263,-269,-281,-345,-393,-418,-480,-509,-470,-464,-441,-357,-272,-172,-73,64,137,169,245,270,265,273,209,156,140,79,16,7,3,-1,67,165,230,261,242,216,176,159,91,-200,-489,-1148,-1266,-203,737,1007,563,245,18,-100,-124,-101,-103,-106,-137,-144,-103,82,141,-284,-745,-639,-325,-328,-150,16,-228,-378,-148,282,549,293,336,426,288,245,310,273,247,213,161,124,112,89,150,222,286,360,383,425,492,485,477,397,108,-265,-877,-857,109,738,933,706,482,263,137,105,86,63,56,39,14,-33,-40,-94
2018-05-17,17:47:10.482,-165,-209,-219,-243,-192,-131,-58,10,132,223,300,352,390,425,418,399,360,345,282,186,114,49,-21,-30,-15,-19,46,120,180,209,208,221,187,151,83,-124,-379,-731,-558,214,526,613,405,204,2,-56,-54,-49,-78,-118,-135,-174,-234,-276,-336,-411,-453,-472,-476,-463,-389,-319,-250,-187,-104,-32,26,58,70,78,51,25,10,-29,-88,-163,-232,-250,-242,-245,-217,-138,-84,-13,18,21,28,48,27,-67,-283,-635,-1229,-729,90,686,683,383,74,-90,-135,-142,-187,-203,-225,-254,-277,-359,-403,-440,-487,-519,-538,-571,-537,-487,-414,-337,-278,-184,-79,-10,55,113,139,104,80,42
2018-05-17,17:47:11.520,19,-18,-94,-158,-161,-124,-116,-63,39,93,154,217,230,215,205,155,-23,-331,-892,-1296,-295,701,1195,776,396,128,7,-41,-61,-87,-114,-168,-210,-265,-316,-352,-455,-526,-589,-616,-580,-511,-416,-336,-238,-113,0,90,173,216,232,221,199,195,180,171,169,139,84,53,19,50,92,154,211,249,281,286,269,263,251,147,-134,-446,-976,-508,389,1004,949,665,357,128,64,21,-22,-69,-94,-115,-174,-193,-227,-302,-341,-368,-401,-377,-324,-249,-184,-128,-42,57,137,200,223,241,248,239,239,220,190,165,120,107,112,133,130,173,269,343,425,448,459,445,428,399,307,127
2018-05-17,17:47:12.557,-250,-574,271,780,1063,924,695,473,359,316,288,264,268,255,231,201,166,123,94,33,7,2,6,32,67,111,161,218,289,337,371,380,340,311,294,250,206,175,102,23,-13,-26,-38,-44,-23,46,102,125,157,128,87,69,11,-213,-544,-1114,-1080,-108,560,653,282,-1,-182,-288,-362,-410,-454,-495,-526,-588,-647,-672,-741,-862,-957,-1003,-991,-989,-961,-899,-819,-732,-630,-521,-420,-360,-339,-333,-359,-391,-420,-419,-430,-469,-534,-584,-592,-572,-562,-500,-370,-299,-243,-207,-209,-228,-234,-253,-402,-716,-1433,-1676,-570,457,878,465,94,-188,-315,-338,-351,-375,-402,-431,-454,-486,-530,-570
2018-05-17,17:47:13.594,-627,-693,-731,-716,-665,-604,-530,-455,-374,-256,-117,-1,62,123,133,111,102,117,111,102,83,21,11,30,52,62,148,226,279,331,365,357,332,324,281,126,-189,-776,-777,192,894,1042,776,531,309,182,153,131,105,93,57,33,-11,-53,-94,-146,-198,-234,-230,-175,-108,-46,18,92,173,233,280,340,362,349,315,299,274,260,223,166,134,119,137,132,204,282,345,395,436,439,416,399,370,242,5,-310,-658,39,658,923,769,575,370,255,212,198,164,119,91,58,18,-16,-49,-112,-176,-200,-215,-207,-156,-118,-62,1,78,140,200,263,288,290,277,272,265,236
2018-05-17,17:47:14.631,192,150,91,56,71,105,132,195,274,322,390,426,426,425,403,356,186,-89,-533,-592,397,999,1097,734,451,275,208,184,138,80,53,39,-7,-59,-94,-135,-198,-274,-314,-312,-260,-219,-165,-109,-39,44,134,208,260,276,257,266,267,241,218,204,139,82,67,70,81,99,160,239,320,342,342,366,334,311,244,11,-391,-1102,-615,540,1252,985,525,209,116,52,16,-8,-53,-88,-135,-168,-221,-279,-357,-434,-498,-523,-508,-474,-418,-341,-266,-177,-60,35,109,154,171,178,206,209,214,205,181,138,77,51,70,49,70,162,219,278,307,311,299,261,246,178,-19,-396
2018-05-17,17:47:15.668,-1080,-438,401,862,663,395,154,21,-52,-70,-100,-131,-189,-229,-260,-306,-362,-420,-477,-535,-535,-502,-426,-374,-336,-293,-246,-159,-89,-61,-54,-37,-42,-42,-53,-55,-53,-97,-152,-171,-176,-176,-182,-119,-39,23,75,96,117,109,96,47,-84,-281,-678,-906,-70,389,549,386,212,16,-93,-111,-126,-182,-211,-233,-233,-265,-311,-341,-385,-412,-403,-390,-364,-314,-239,-181,-122,-48,13,85,139,176,194,173,175,182,173,168,167,114,77,99,123,136,184,265,339,451,481,478,469,436,378,257,19,-437,-584,306,901,1048,766,510,323,235,190,134,80,83,60,13,-48,-109,-192,-284
2018-05-17,17:47:16.706,-368,-395,-411,-387,-347,-293,-244,-213,-127,-34,34,84,90,78,63,20,-23,-54,-75,-82,-157,-254,-281,-260,-267,-249,-187,-125,-59,-16,-16,-31,-57,-98,-173,-412,-816,-1477,-1005,-69,684,586,194,-170,-378,-456,-469,-477,-479,-591,-699,-719,-736,-776,-856,-912,-966,-997,-943,-870,-797,-700,-594,-511,-417,-330,-272,-227,-222,-199,-162,-146,-139,-144,-176,-181,-205,-193,-187,-166,-144,-77,12,86,125,155,167,138,116,104,-34,-300,-797,-1121,-246,567,929,764,522,186,-7,-59,-106,-114,-136,-160,-168,-194,-242,-326,-365,-402,-419,-401,-372,-322,-234,-128,-35,54,163,230,261,291,296,277,245,238
2018-05-17,17:47:17.743,218,171,131,92,73,43,37,45,83,204,267,288,337,357,357,333,307,163,-99,-402,-739,0,561,824,685,535,344,216,165,159,142,114,75,18,-20,-75,-117,-181,-243,-302,-334,-292,-236,-164,-115,-61,32,136,215,281,302,295,284,256,229,215,204,164,108,42,23,19,32,57,109,193,282,324,351,348,332,312,280,102,-203,-801,-942,163,986,1181,787,456,233,114,78,61,33,-14,-62,-103,-159,-217,-276,-385,-480,-532,-548,-519,-451,-356,-249,-96,49,153,251,328,368,372,318,294,270,244,233,194,97,31,36,49,70,92,171,289,382,401,413,411,397,376
2018-05-17,17:47:18.780,275,-5,-417,-1071,-486,576,1241,1006,557,261,118,55,39,10,-23,-52,-82,-125,-174,-233,-306,-392,-445,-460,-436,-375,-313,-244,-155,-66,43,129,172,203,192,168,163,165,156,166,150,129,118,65,11,-2,-4,-35,-12,81,144,186,249,259,241,234,219,103,-133,-423,-741,-76,471,695,601,394,164,35,3,-39,-78,-111,-122,-138,-186,-224,-271,-317,-362,-394,-415,-377,-329,-268,-217,-145,-81,-16,46,120,123,107,113,98,71,58,49,38,38,-26,-74,-65,-35,-49,-53,20,57,121,154,171,187,165,122,71,-113,-309,-634,-416,328,575,545,339,169,27,0,-42,-81,-90
2018-05-17,17:47:19.817,-115,-158,-164,-223,-269,-270,-316,-349,-345,-318,-304,-249,-187,-129,-44,-17,59,134,159,148,160,131,122,77,81,73,64,5,-37,-70,-67,-84,-100,-68,27,97,140,182,202,174,157,155,68,-156,-372,-637,-91,516,588,400,197,49,-46,-95,-110,-131,-148,-174,-205,-221,-269,-325,-363,-384,-398,-410,-379,-319,-257,-204,-160,-62,47,102,153,205,215,202,193,182,189,200,224,246,226,179,141,160,169,172,207,329,414,484,530,555,554,550,536,414,158,-104,-327,650,1310,1359,919,588,447,412,400,379,338,306,265,230,196,141,74,16,-49,-103,-122,-97,-56,-17,41,86
2018-05-17,17:47:27.758,-65,32,130,214,256,284,285,280,278,253,240,222,204,186,143,78,17,6,7,-3,14,95,180,233,266,280,279,264,248,173,-23,-280,-678,-37,704,956,659,336,119,17,-33,-58,-80,-112,-137,-161,-208,-262,-298,-375,-452,-503,-517,-481,-406,-322,-252,-158,-22,116,209,291,328,325,331,308,286,282,288,277,279,258,156,107,111,104,48,75,198,302,352,387,382,375,359,317,235,27,-405,-898,-126,801,1199,809,381,122,0,-41,-51,-95,-136,-166,-188,-248,-310,-396,-496,-578,-627,-644,-601,-515,-426,-337,-229,-75,90,221,300,329,333,333,329,310,291,277,253,260
2018-05-17,17:47:28.695,227,138,79,57,53,37,60,141,238,281,316,311,292,276,267,194,38,-326,-852,-228,503,863,649,370,130,18,-31,-60,-66,-106,-144,-161,-185,-230,-281,-352,-400,-412,-394,-350,-285,-213,-124,-31,78,194,283,347,385,387,430,414,379,369,394,417,416,375,309,269,257,253,238,280,370,466,511,519,512,493,488,444,348,175,-76,-448,192,664,856,677,461,257,136,67,28,-13,-51,-98,-159,-231,-295,-351,-416,-516,-575,-582,-582,-563,-514,-455,-373,-275,-181,-125,-80,-88,-98,-125,-151,-192,-234,-257,-276,-289,-353,-451,-503,-493,-505,-515,-459,-367,-287,-271,-263,-245,-245,-283
2018-05-17,17:47:29.732,-326,-462,-673,-1146,-1275,-257,393,391,-46,-395,-561,-601,-613,-642,-685,-727,-766,-789,-830,-886,-959,-1020,-1091,-1118,-1103,-1062,-969,-867,-748,-608,-441,-280,-171,-104,-83,-54,-55,-58,-53,-54,-51,-40,-24,-51,-136,-198,-186,-200,-235,-196,-60,63,147,166,165,173,172,150,117,-23,-444,-1122,-522,418,998,750,370,118,0,-51,-104,-132,-140,-183,-204,-228,-284,-342,-403,-470,-500,-490,-454,-398,-312,-207,-108,29,166,256,327,358,364,342,327,312,305,318,304,293,280,202,157,168,160,106,123,204,283,340,368,379,373,348,319,253,97,-144,-527,2,567,740,602,377,169,52,11,-7
2018-05-17,17:47:30.769,-17,-50,-83,-95,-125,-171,-223,-273,-338,-371,-364,-333,-300,-240,-151,-63,44,138,213,271,304,313,334,326,301,286,273,258,260,264,186,124,133,140,116,169,261,349,411,449,455,462,452,427,333,167,-145,-502,349,1044,1218,831,525,293,203,178,148,110,75,53,18,-24,-84,-153,-232,-313,-357,-336,-311,-259,-175,-114,0,136,281,393,451,461,453,432,407,390,350,344,339,321,277,185,98,77,60,37,49,135,222,279,298,296,309,282,236,157,22,-317,-960,-296,591,1020,677,243,-47,-183,-257,-280,-309,-346,-390,-444,-498,-570,-670,-761,-832,-863,-866,-797,-710,-633
2018-05-17,17:47:31.807,-547,-430,-245,-76,38,101,137,133,115,95,73,56,65,52,47,33,-42,-113,-117,-133,-194,-157,-62,49,106,113,138,127,107,81,33,-97,-355,-858,-430,269,570,461,216,-19,-159,-238,-285,-294,-301,-333,-360,-381,-429,-506,-585,-611,-622,-608,-573,-496,-403,-333,-244,-147,-37,40,93,101,92,101,119,102,82,87,69,60,60,11,-41,-28,-56,-109,-58,18,73,150,179,178,170,149,137,105,-38,-268,-651,-194,424,635,495,255,44,-71,-129,-157,-191,-232,-239,-255,-298,-349,-406,-468,-534,-572,-589,-551,-486,-403,-312,-216,-79,37,122,175,192,187,201,214,178,155,135,129
2018-05-17,17:47:32.844,122,81,3,-54,-32,-37,-65,-28,68,155,215,255,271,271,265,236,160,-23,-378,-794,11,716,928,572,254,34,-58,-89,-108,-124,-144,-184,-219,-259,-314,-381,-434,-506,-554,-554,-486,-400,-316,-197,-44,105,241,371,419,458,458,462,457,456,437,421,416,421,408,355,273,268,276,246,279,397,484,560,593,583,567,550,531,486,365,6,-702,-60,796,1257,983,607,327,208,136,99,75,52,8,-46,-100,-148,-234,-337,-418,-476,-464,-441,-376,-293,-217,-98,27,143,217,276,299,293,271,238,215,189,136,104,120,84,1,-53,-95,-113,-152,-120,-40,50,111,132,107,95
2018-05-17,17:47:33.881,86,26,-58,-188,-506,-872,-150,297,426,247,47,-137,-271,-319,-335,-369,-393,-416,-439,-463,-513,-597,-648,-692,-743,-746,-703,-626,-533,-440,-331,-261,-150,-51,4,37,37,25,9,-18,-31,-35,-11,-13,-57,-142,-176,-142,-166,-176,-128,-4,99,154,183,180,151,144,141,47,-126,-546,-669,186,688,734,399,150,-43,-120,-145,-175,-220,-259,-288,-302,-341,-387,-462,-551,-627,-663,-636,-591,-543,-465,-330,-189,-43,68,163,218,246,227,208,192,156,131,113,114,109,83,0,-72,-84,-95,-120,-78,26,90,136,175,189,184,143,112,62,-73,-436,-1007,-364,479,872,559,191,-75,-173,-222
2018-05-17,17:47:34.918,-254,-262,-285,-325,-378,-412,-479,-559,-638,-706,-748,-763,-719,-626,-535,-418,-268,-100,36,143,236,284,286,269,240,239,235,200,179,196,184,97,30,11,-7,-21,-4,95,186,240,252,276,298,282,231,190,94,-165,-759,-403,349,693,596,342,123,16,-107,-181,-199,-164,-168,-242,-273,-297,-372,-431,-482,-551,-573,-525,-435,-348,-238,-149,-41,77,187,251,296,272,271,251,227,203,181,175,178,168,102,48,62,55,-5,0,97,183,255,299,339,347,284,245,273,123,-68,-480,-293,430,748,746,484,261,112,23,10,20,-55,-99,-113,-133,-185,-266,-343,-399,-486,-543,-514,-478
2018-05-17,17:47:35.955,-391,-301,-166,-2,192,585,675,419,277,343,259,391,608,189,-156,-118,34,196,434,480,-153,-346,176,263,613,435,-312,-14,-57,-44,146,-180,-196,-665,-1153,-901,391,1214,770,202,117,10,-213,-189,-209,-256,-319,-274,-278,-427,-585,-582,-632,-836,-980,-976,-877,-893,-998,-902,-736,-637,-569,-509,-536,-511,-430,-363,-171,5,-111,-178,-67,-41,-62,-46,-129,-173,-14,23,-24,-29,-95,-103,-58,-80,-77,-94,-248,-285,-408,-560,-590,-471,239,533,567,421,465,614,841,1535,2316,2387,2257,1645,1993,2340,2965,-1125,-2523,1086,2975,2296,-793,-1560,1457,-572,-2335,-293,1091,1101,1065,1217,1117,822,661,814
2018-05-17,17:47:36.992,792,734,692,668,583,487,374,305,208,38,38,127,225,214,166,14,-76,-137,-167,-280,-437,-551,-785,-445,195,400,459,294,36,-187,-353,-430,-433,-483,-586,-675,-755,-745,-823,-883,-952,-988,-929,-765,-685,-680,-559,-360,-104,-95,256,783,983,489,491,774,419,274,519,524,385,607,217,-493,1092,881,-1661,-1407,43,120,-190,329,532,-527,-593,-79,5,37,-157,-595,-1005,-128,500,829,568,198,-36,-217,-272,-304,-314,-307,-362,-387,-405,-461,-621,-816,-952,-969,-927,-883,-830,-635,-515,-401,-272,-192,11,133,174,140,6,-33,-16,-1,-48,-154,-283,-352,-362,-456,-573,-634,-592,-564,-405,-205
2018-05-17,17:47:38.030,17,136,185,130,164,263,624,424,8,-105,150,1220,1166,407,-57,53,-41,-46,-317,-453,-463,-454,-410,-852,-930,-605,-690,-978,-1183,-1216,-982,-715,-464,-344,-478,-359,-62,8,145,385,458,497,430,423,433,360,321,288,228,196,96,-42,-148,-259,-335,-388,-265,-83,55,118,157,191,250,335,390,220,-69,-306,-548,61,400,332,74,-61,-174,-284,-395,-530,-518,-555,-628,-419,-248,-125,-96,-17,-25,-123,-110,-73,-28,38,76,355,883,887,893,1129,1024,1124,1472,994,544,219,29,66,-80,-205,-154,-110,-184,-231,-511,-626,-515,-292,-13,79,87,2,-33,22,114,134,-59,-294,-663,-120
2018-05-17,17:47:39.067,448,792,587,225,-6,-134,-228,-294,-293,-316,-451,-507,-526,-483,-423,-408,-473,-498,-494,-438,-334,-141,0,123,294,417,392,264,252,125,0,-62,-118,-205,-274,-330,-340,-279,-162,-36,26,135,192,245,313,442,657,1027,1483,1248,1166,696,921,1298,1059,965,255,-571,-106,730,743,314,87,-54,-115,-421,-443,-542,-527,-424,-225,-198,-192,-269,-401,-475,-563,-603,-586,-512,-389,-219,-45,108,238,280,369,537,544,441,332,258,279,222,213,271,330,373,427,484,477,525,573,632,725,778,780,757,728,666,528,446,176,-213,-479,-726,-292,-10,-33,-380,-450,-461,-391,-263,-157,-93,-34,9
2018-05-17,17:47:40.104,10,-16,-66,-44,93,386,71,-108,-161,-267,-466,-216,85,309,15,-809,-810,-477,-349,-325,-235,-570,-389,-38,-669,-924,-578,-480,-426,-447,-602,-621,-501,-448,-288,-173,-152,-196,-169,-168,-222,-303,-444,-633,-924,-1325,-643,-52,219,-80,-324,-432,-537,-552,-567,-530,-511,-537,-516,-368,-341,-358,-407,-494,-620,-696,-610,-528,-526,-469,-386,-256,-167,-78,-45,-16,-31,-11,103,137,171,258,400,359,450,742,849,493,276,664,722,485,930,971,929,1233,1119,-54,-582,-457,-76,-167,-1009,-1654,-902,282,883,335,-56,-123,-167,-278,-256,-268,-288,-187,-254,-332,-311,-323,-386,-546,-583,-616,-668,-621,-514,-447
2018-05-17,17:47:41.141,-315,-206,-69,90,185,219,272,255,177,94,70,98,112,141,258,294,356,331,282,337,342,173,118,215,261,292,330,305,246,155,68,-70,-271,-409,-560,-57,370,525,449,253,176,211,371,773,993,399,517,1034,773,907,629,69,55,235,162,-105,-317,-498,-544,-361,-132,-168,-285,-123,-92,-245,-80,358,470,286,154,-36,-211,-284,-224,-212,-226,-190,-154,-177,-165,-151,-78,-36,-59,-110,-167,-219,-201,-314,-577,-808,-1103,-837,-72,243,195,15,-18,11,162,289,314,258,266,198,133,116,9,-65,-94,-162,-262,-304,-382,-387,-280,-133,61,220,337,469,554,641,870,1431,1493,1309
2018-05-17,17:47:42.178,984,822,1113,1388,1008,828,1026,1800,4939,813,-1255,1313,-966,-2492,-1592,801,-508,-1226,-700,-358,-334,-1054,-1811,-345,74,442,473,234,-59,-213,-264,-286,-391,-397,-344,-415,-490,-552,-622,-753,-917,-961,-964,-976,-880,-775,-712,-563,-371,-173,-31,64,78,119,73,52,275,394,377,495,464,390,322,356,358,330,311,214,53,-2,-30,-99,-78,36,112,139,128,22,-34,-29,-175,166,828,1387,1694,919,789,1045,1451,1757,2120,1609,384,746,1751,380,-1148,-1443,-1135,-1230,-1188,-1377,-1604,-1490,-1682,-1196,-812,-602,-425,-436,-350,-291,-238,-224,-267,-332,-419,-525,-584,-588,-571,-640,-663,-676,-758,-783,-807,-788
2018-05-17,17:47:43.216,-499,-413,-408,-389,-385,-333,-309,-353,-444,-476,-583,-21,632,865,744,490,298,136,135,68,80,40,6,-36,-89,-234,-275,-144,-198,-211,-208,-234,-275,-80,138,195,398,617,832,1217,1558,2026,2237,2252,2289,1918,1907,1245,418,198,80,-291,-582,-322,-452,-776,-714,-658,-744,-656,-529,-525,-560,-586,-645,-827,-963,-1354,-1775,-792,172,653,261,-196,-455,-530,-582,-628,-592,-617,-730,-759,-720,-767,-853,-1079,-1140,-1226,-1315,-1090,-960,-901,-729,-528,-187,192,535,701,671,740,763,629,531,527,583,435,391,297,50,-30,-105,-87,-96,-87,-9,127,218,324,436,626,767,937,1049,1225,1380,1086,1182,1916
2018-05-17,17:47:44.253,2033,2121,1827,1289,1194,723,32,-143,36,-38,-109,-262,-353,-549,-689,-871,-815,-739,-1015,-1228,-1081,-764,-549,-313,-161,-67,17,79,85,111,10,-89,-97,-39,-3,-54,-61,-60,-58,-57,-89,-182,-255,-348,-321,-233,-93,-37,-54,27,239,324,410,341,163,-67,-188,362,514,511,283,166,58,-15,-66,-148,-262,-277,-240,-218,-215,-291,-267,-239,-246,-208,-109,12,204,382,617,857,1050,1236,1335,1356,1205,1034,961,719,215,-224,-359,-457,-457,-448,-342,-295,-367,-655,-621,-545,-636,-851,-594,-361,-113,-87,-10,-142,-268,-481,-932,-1476,-766,5,457,102,-256,-533,-674,-740,-798,-858,-984,-1015,-1009,-1009
2018-05-17,17:47:45.290,-967,-1068,-984,-1022,-1069,-954,-786,-563,-452,-276,-151,-60,85,153,190,207,220,162,112,76,7,-7,53,9,-20,-6,-61,-93,-18,66,129,149,166,322,485,626,901,1223,1569,1530,1449,1041,619,957,1318,1437,1254,918,176,32,0,-17,322,286,-406,-939,-917,-643,-720,-775,-798,-916,-1063,-1098,-1014,-826,-709,-595,-427,-327,-209,-168,-94,-93,-144,-110,-160,-134,-179,-222,-247,-253,-351,-446,-568,-697,-686,-652,-563,-385,-68,246,527,629,751,776,710,601,540,341,192,73,-143,405,590,542,306,148,122,-2,-125,-146,-118,-112,-41,-15,-18,-21,-5,12,38,71,156,251,537,1169,1084,800
2018-05-17,17:47:46.327,870,1333,1772,1476,918,934,893,578,414,474,527,90,78,212,-132,-398,-338,-510,-445,-394,-371,-251,-8,116,108,186,103,-40,-114,-382,-648,-1028,-1189,-309,337,448,64,-230,-424,-515,-570,-606,-620,-660,-762,-876,-940,-1045,-1136,-1057,-1097,-1007,-876,-648,-510,-358,-252,-29,128,218,299,381,313,281,242,206,131,78,58,-1,-1,-81,-83,-28,-71,-86,-38,46,118,224,396,677,1196,973,976,1454,1379,1100,1249,1425,1251,677,1135,1492,1268,679,235,-35,1,166,-212,-423,26,-253,-816,-892,-665,-540,-719,-935,-969,-879,-877,-835,-721,-682,-596,-443,-420,-364,-278,-212,-157,-187,-227,-255,-301,-359
2018-05-17,17:47:47.364,-382,-350,-381,-382,-468,-597,-598,-579,-500,-461,-368,-225,-20,134,158,185,221,108,-3,-117,-322,-556,-734,-236,-25,11,-179,-387,-503,-663,-568,-507,-458,-406,-209,-99,179,284,279,504,1112,944,665,1169,1469,1318,1247,751,650,863,967,951,899,299,-41,13,-69,-187,-201,-235,-324,-282,-129,-69,-172,-325,-296,-234,-238,-140,4,-28,-10,6,-21,-91,-71,-167,-338,-637,-1106,-632,157,470,214,-237,-523,-802,-887,-898,-930,-912,-810,-635,-474,-408,-320,-212,-214,-282,-357,-412,-431,-322,-278,-186,7,122,218,290,348,347,310,350,343,369,344,432,608,682,681,780,775,853,1020,1168,1534,1569
2018-05-17,17:47:48.401,1738,1910,1702,1680,1636,1502,1231,787,445,-145,-441,-721,-966,-83,475,472,-59,-403,-551,-754,-902,-838,-888,-961,-1027,-1074,-1023,-1073,-1130,-1145,-1152,-1266,-1236,-1093,-1098,-1016,-886,-781,-637,-536,-458,-358,-336,-375,-392,-340,-229,-200,-238,-293,-209,-293,-251,-126,24,208,253,195,239,253,327,379,438,339,241,236,164,102,-30,-129,-280,154,513,646,670,596,476,522,617,740,884,1044,1274,1535,1716,2043,1605,1052,860,641,509,321,-86,-184,-109,-37,-292,-397,-312,-294,-482,-534,-449,-453,-564,-780,-902,-820,-733,-629,-477,-493,-567,-593,-565,-638,-669,-675,-577,-456,-379,-381,-427,-443,-489,-603,-808,-1025
2018-05-17,17:47:49.439,-1377,-566,-82,95,-184,-473,-658,-607,-483,-389,-253,-161,-34,34,-2,-62,-187,-226,-221,-286,-257,-264,-354,-226,-108,-73,-58,6,126,223,436,595,611,650,664,764,926,1181,1540,1679,1723,1640,1525,1746,2066,1859,1640,1618,1476,879,727,797,758,615,386,197,30,-197,-867,-1966,-1391,-374,398,198,-232,-649,-806,-921,-1043,-1043,-982,-936,-975,-1003,-1029,-1069,-1166,-1182,-1219,-1239,-1155,-1076,-993,-848,-699,-547,-489,-419,-383,-307,-332,-394,-362,-329,-254,-129,100,301,498,456,265,110,-12,-51,-115,-42,153,237,289,322,384,340,340,242,156,88,66,-53,292,909,1056,1069,977,940,982,1117,1381,1614
2018-05-17,17:47:50.476,1476,1493,1592,1246,1132,1123,983,823,678,431,427,190,14,-124,-85,25,-4,-37,-194,-241,-168,-184,-373,-480,-614,-688,-511,-502,-485,-485,-459,-434,-436,-432,-462,-436,-382,-391,-331,-327,-373,-361,-389,-419,-528,-702,-972,-1376,-856,-193,-23,-384,-706,-756,-644,-525,-427,-314,-322,-326,-417,-510,-559,-645,-680,-704,-778,-768,-673,-621,-587,-476,-419,-334,-277,-314,-216,-63,-9,-75,-60,97,219,241,289,359,458,839,1105,828,821,841,1173,1331,1341,1242,874,713,506,1029,1440,239,-237,103,-104,-894,-1042,-687,-36,594,141,-414,-586,-721,-774,-917,-921,-944,-1055,-1030,-958,-1055,-1263,-1286,-1316,-1354,-1252,-1225
2018-05-17,17:47:51.513,-1121,-939,-730,-591,-378,-309,-252,-221,-222,-229,-259,-297,-307,-318,-267,-153,-81,225,430,429,362,227,140,134,48,8,108,175,244,228,132,205,341,350,234,145,-1,-266,166,532,575,563,450,427,487,605,778,935,1007,1096,1162,1154,933,1068,1317,1056,885,758,740,745,728,593,326,230,473,697,539,277,280,402,152,-43,-98,-142,-328,-434,-448,-445,-488,-480,-520,-422,-302,-373,-373,-286,-274,-287,-264,-287,-292,-321,-354,-490,-722,-976,-1240,-447,-25,-19,-422,-711,-893,-978,-949,-861,-767,-638,-562,-534,-553,-669,-694,-707,-760,-805,-785,-731,-678,-566,-532,-331,-187,-118,-51,-33,48,-131
2018-05-17,17:47:52.550,-75,-60,104,202,266,366,463,535,868,1042,805,1173,1054,634,463,683,901,915,942,1237,1261,1029,929,545,125,-548,-335,-440,-500,1129,978,-151,-373,-71,-98,-240,-461,-543,-659,-657,-752,-626,-629,-817,-922,-944,-1021,-1124,-1163,-1089,-1041,-813,-712,-529,-372,-225,-127,-88,-97,-73,-187,-168,-25,-102,-129,30,68,7,36,54,5,47,135,119,219,255,177,192,367,393,376,356,350,284,322,335,261,24,-220,-562,-166,375,572,557,440,464,559,756,1163,1021,796,1405,1300,936,1030,1067,921,1127,1149,846,566,469,339,169,50,19,324,425,447,278,206,109,-76,-159,-149,-186,-125,-205
2018-05-17,17:47:53.587,-316,-358,-335,-274,-264,-367,-452,-444,-456,-411,-388,-223,-110,-69,-30,-3,-23,-105,-160,-319,-570,-790,-995,-370,-118,-46,-244,-456,-494,-512,-366,-190,40,263,353,228,46,-103,-183,-337,-377,-422,-483,-517,-471,-379,-240,-115,-4,78,176,205,265,371,493,566,621,679,783,934,1098,1157,1227,1407,1562,1573,1175,1270,1253,989,937,906,625,319,305,99,138,204,185,78,-153,-622,-1003,-1779,-984,-117,176,-151,-642,-810,-655,-684,-713,-810,-860,-812,-835,-841,-925,-1005,-1098,-1202,-1225,-1268,-1268,-1216,-1136,-1062,-979,-891,-816,-643,-479,-335,-143,-104,-69,89,227,344,422,445,371,333,299,304,186,78
2018-05-17,17:47:54.625,-50,-104,-89,-155,-26,-49,73,118,163,180,240,274,313,354,410,316,275,218,678,1514,1981,2000,1377,1398,1434,1559,1823,1773,1898,1620,1325,1195,975,943,512,240,559,192,-618,-822,-898,-770,-274,54,438,239,-4,-17,-37,-154,-299,-366,-424,-572,-615,-705,-672,-629,-638,-615,-602,-624,-626,-604,-521,-606,-671,-657,-554,-520,-578,-550,-526,-624,-508,-278,-197,-213,-201,-218,456,650,804,563,265,-27,-188,-279,-328,-355,-364,-422,-482,-473,-607,-766,-771,-756,-689,-621,-536,-468,-287,-42,238,484,1190,1380,1035,1005,1234,1455,1335,1307,1296,1274,1153,928,689,524,63,-133,-117,-457,-482,-452,-418,-438
2018-05-17,17:47:55.662,-450,-394,-653,-731,-678,-675,-472,-497,-632,-826,-1155,-1327,-359,404,612,213,-238,-569,-688,-731,-754,-850,-913,-996,-1010,-987,-1014,-1045,-1020,-1087,-1163,-1165,-976,-793,-523,-397,-431,-388,-257,-151,-102,-94,-57,-42,-18,0,64,94,109,134,123,40,-74,-142,-118,-180,-106,40,160,203,289,454,624,801,950,1046,1160,1310,1405,1479,1465,1242,1053,798,1715,2281,2007,1416,946,560,265,391,235,-36,-189,-401,-437,-475,-642,-920,-1146,-1351,-1309,-1260,-1271,-1236,-1053,-971,-808,-617,-510,-374,-312,-139,-68,-51,-83,-171,-250,-250,-271,-268,-321,-384,-448,-398,-467,-550,-578,-508,-463,-431,-284,-137,22,212,334,487
2018-05-17,17:47:56.699,538,575,521,349,134,-46,-237,348,718,864,734,572,447,388,380,362,385,418,456,484,494,445,446,516,521,482,485,548,559,711,1007,996,1233,1513,1344,1182,1407,957,507,800,485,22,65,-109,-218,86,87,-312,-433,-336,-287,-397,-541,-655,-615,-482,-415,-433,-274,-276,-316,-351,-384,-444,-728,-992,-1299,-1402,-534,-7,49,-275,-584,-816,-888,-897,-977,-1043,-1061,-1152,-1288,-1301,-1406,-1455,-1506,-1554,-1482,-1353,-1208,-1111,-985,-802,-701,-581,-467,-389,-360,-317,-237,-245,-214,-214,-143,-183,-163,-163,-181,-146,-78,-95,-128,-66,-27,65,89,135,305,473,653,881,787,643,763,856,693,305,24,-38
2018-05-17,17:47:57.736,-295,610,1091,964,469,109,119,81,-281,-266,-308,-371,-457,-605,-695,-686,-733,-840,-863,-779,-954,-972,-771,-712,-633,-499,-380,-242,-118,-143,-23,138,94,31,5,-27,-27,-33,-27,-1,-53,-48,-59,-88,-63,46,13,83,163,215,281,368,430,326,335,337,366,273,-8,-174,-316,78,511,644,578,356,250,237,261,280,281,356,425,461,529,585,636,1203,737,509,591,513,541,545,676,1125,1035,890,636,640,336,24,201,344,81,19,-197,-478,-327,-184,-144,6,-162,-327,-266,-246,-348,-400,-308,-250,-242,-217,-121,-19,-32,-56,-54,-147,-380,-682,-1050,-810,191,587,441,62,-231,-294
2018-05-17,17:47:58.773,-229,-285,-370,-431,-422,-473,-409,-418,-437,-393,-237,-287,-297,-266,-154,-152,-68,0,20,264,413,388,248,249,280,261,206,278,282,265,459,568,692,852,855,906,1033,1111,1303,1613,1738,1642,2117,1937,1461,644,590,1018,776,452,-47,-470,-519,-1481,-1321,-325,603,70,-195,-403,-543,-564,-614,-573,-542,-637,-771,-805,-801,-930,-1055,-1104,-1191,-1241,-1124,-1087,-1037,-786,-668,-578,-424,-246,-113,-92,-77,-65,-60,-87,-98,-137,-152,-72,-8,51,85,-15,59,191,295,298,244,225,311,397,529,597,521,522,499,354,152,-84,-242,-465,-270,411,571,631,543,497,556,604,707,840,1096,1443,1452,1538
2018-05-17,17:47:59.810,1426,1523,1904,1809,1252,858,1022,615,222,219,292,182,-364,-905,-682,-324,-456,-547,-647,-972,-844,-977,-929,-845,-687,-604,-633,-561,-563,-577,-542,-408,-332,-340,-306,-298,-223,-104,-95,-117,-152,-164,-252,-411,-637,-879,-1162,-476,-70,-95,-237,-571,-821,-730,-505,-293,-104,37,36,106,62,-50,-132,-316,-402,-463,-461,-484,-495,-397,-240,-125,-57,-73,-74,-129,-106,-54,57,220,428,854,1234,1052,1245,1588,1901,2085,1964,1676,1716,1583,1583,1630,1394,1603,1709,791,300,578,130,-162,-275,-326,-694,-936,-1142,-1637,-2275,-1299,5,659,214,-250,-464,-628,-684,-648,-678,-816,-840,-795,-919,-983,-990,-985,-1081,-1140
2018-05-17,17:48:00.848,-1209,-1262,-1329,-1398,-1371,-1151,-977,-762,-549,-425,-320,-191,-53,107,210,343,367,364,422,468,466,451,444,358,379,352,196,204,362,264,191,224,200,126,208,288,285,299,392,570,667,533,418,374,931,1639,1882,1983,1934,2005,2028,2062,1812,1525,1423,1032,502,644,-46,-820,-882,-954,-1372,-1658,-1809,-1750,-1519,-1185,-973,-861,-857,-803,-766,-658,-571,-416,-228,-257,-373,-438,-368,-406,-408,-372,-371,-329,-298,-261,-260,-240,-216,-233,-123,-184,-216,-191,-244,-312,-249,-158,-104,41,125,197,103,9,-130,-17,700,875,834,716,556,488,407,417,338,247,250,185,-5,-125,-162,-200,-219,-190,-110,41
2018-05-17,17:48:01.885,59,87,315,886,974,641,862,1423,1536,1348,1355,1599,1891,1847,903,313,576,499,-226,-450,-426,-468,-850,-1276,-1381,-1458,-1746,-1303,-1055,-1144,-709,-802,-707,-619,-1096,-1304,-510,-121,-675,-1124,-1517,-1476,-393,70,132,-297,-677,-870,-931,-1062,-1132,-1121,-1060,-1031,-858,-539,-466,-707,-846,-823,-669,-479,-328,-166,-116,-131,-93,-175,-245,-34,127,-34,-181,-239,-331,-357,-260,-265,-313,-291,-284,-230,-79,173,623,1161,800,760,1183,1432,1745,1519,1025,766,1434,1763,1956,1851,681,-377,488,636,78,-536,-976,-1479,-566,-266,57,-349,-1005,-1225,-1244,-1080,-872,-751,-718,-907,-969,-1058,-1196,-1293,-1334,-1306,-1306,-1336,-1331,-1250
2018-05-17,17:48:02.922,-1134,-1019,-925,-825,-713,-561,-534,-470,-450,-477,-387,-219,-54,66,226,372,375,378,369,375,375,367,357,307,305,412,452,518,613,675,791,875,824,824,845,935,912,853,660,525,303,474,1713,1991,1677,1706,1672,1624,2702,1366,-264,918,1479,369,254,192,-256,-527,-610,-658,-594,-813,-1153,-1607,-1718,-1676,-1512,-1113,-751,-573,-436,-463,-593,-607,-624,-635,-644,-626,-635,-660,-667,-662,-568,-527,-513,-461,-456,-531,-599,-665,-690,-671,-549,-431,-307,-163,24,269,502,631,736,796,885,949,972,760,564,190,801,1427,1676,1649,1323,1044,830,671,483,460,461,453,416,448,432,300,327,294,140,52
2018-05-17,17:48:03.959,22,40,90,153,175,318,478,553,606,608,580,509,392,236,-18,-174,-226,-429,-571,-616,-634,-646,-667,-748,-785,-863,-908,-890,-899,-902,-820,-770,-731,-682,-577,-443,-326,-241,-210,-248,-303,-348,-358,-486,-802,-1262,-1796,-836,109,598,275,-180,-473,-567,-591,-600,-616,-625,-639,-637,-658,-694,-719,-769,-859,-970,-1062,-1095,-1070,-964,-830,-646,-450,-253,-43,100,194,270,324,340,334,302,285,271,244,218,201,207,224,221,209,221,233,224,240,236,231,232,233,201,132,92,100,94,82,79,132,187,260,279,286,288,277,254,201,51,-228,-641,-878,95,745,986,759,512,262,115,64,71
2018-05-17,17:48:04.996,57,20,19,9,-5,-36,-85,-140,-230,-297,-334,-370,-347,-301,-214,-91,64,205,321,418,501,537,543,538,525,516,477,430,399,362,339,317,290,285,318,327,330,322,329,331,305,244,188,209,233,219,229,252,310,385,397,373,360,356,324,276,72,-229,-717,-610,402,1014,1143,750,356,124,48,0,-12,-35,-79,-119,-154,-161,-187,-255,-358,-448,-517,-601,-650,-609,-544,-431,-266,-81,110,267,371,432,490,518,544,497,420,387,329,295,284,232,212,195,172,178,191,180,174,173,168,165,139,136,103,7,-108,-146,-136,-153,-64,44,118,123,159,163,131,147,135,71
2018-05-17,17:48:06.034,-227,-588,-1149,-893,283,886,866,389,75,-112,-183,-205,-222,-233,-245,-272,-305,-335,-355,-398,-441,-526,-616,-684,-675,-621,-546,-432,-296,-120,71,214,332,435,489,509,517,466,435,397,360,321,283,255,218,215,186,200,180,161,160,161,155,149,147,135,119,86,30,-32,-42,-26,-82,-105,-61,-11,54,27,9,28,4,-19,-40,-215,-445,-803,-768,126,554,748,562,314,82,-24,-58,-85,-87,-93,-102,-122,-160,-195,-229,-291,-370,-419,-459,-478,-438,-382,-313,-189,-40,87,213,299,355,411,442,439,412,398,362,327,302,280,273,256,232,235,251,282,301,283,287,306,267,176
2018-05-17,17:48:07.071,112,136,187,165,213,283,329,455,539,547,516,476,409,291,7,-319,-814,-805,230,920,942,624,87,-151,-101,-211,-194,-71,-217,-406,-463,-327,-380,-566,-539,-575,-823,-878,-836,-821,-888,-697,-542,-295,-198,-66,61,216,275,182,88,138,65,11,-85,-178,-182,-56,-220,-373,-201,-100,-94,-301,-443,-269,-155,-195,-394,-696,-459,-498,-656,-492,-476,-674,-459,-625,-531,-478,-182,-371,-487,-789,-1215,-1363,-1643,-211,134,299,290,62,-337,-487,-496,-270,-519,-433,241,-184,-623,-260,-448,-227,-671,-755,-392,-556,-675,-879,-101,-127,-239,-108,-170,251,198,161,739,614,530,151,320,96,418,527,269,396
2018-05-17,17:48:08.108,214,22,483,433,219,300,347,253,216,183,197,233,193,136,247,300,383,393,364,368,365,354,319,39,-298,-519,-589,394,751,688,490,318,129,-18,-95,-154,-190,-198,-230,-286,-322,-375,-433,-502,-584,-652,-753,-783,-755,-747,-611,-518,-354,-135,-8,86,169,209,254,354,381,327,261,265,284,279,206,175,234,164,124,202,127,135,100,-72,-127,37,26,-74,-4,64,138,233,272,232,196,243,256,127,-173,-399,-711,-131,830,1020,818,386,98,14,-25,-51,-64,70,-177,-260,-150,-171,-243,-316,-339,-351,-604,-690,-587,-605,-580,-445,-246,-108,43,224,370,423,366,409,380,352
2018-05-17,17:48:09.145,354,328,260,259,241,250,241,253,279,278,309,314,285,255,199,156,119,170,183,121,180,226,318,424,403,391,388,380,358,192,-107,-307,-692,82,793,1143,887,605,368,265,204,176,152,117,110,71,54,24,-13,-79,-128,-173,-230,-234,-224,-178,-124,-60,48,232,364,469,532,587,678,644,565,535,495,398,331,335,301,241,208,195,163,147,124,85,-26,-138,-220,-196,-186,-243,-252,-202,-147,-40,-54,-99,-104,-105,-110,-200,-421,-653,-1091,-1025,-92,359,450,197,-77,-328,-419,-422,-440,-463,-463,-477,-516,-542,-554,-608,-660,-720,-790,-826,-816,-784,-698,-594,-498,-346,-188,-66
2018-05-17,17:48:10.182,15,79,121,133,118,101,88,48,15,-1,-40,-45,-52,-42,-30,-32,-24,-13,-27,-70,-111,-157,-109,-98,-135,-110,-74,-6,93,107,92,88,84,77,8,-251,-497,-928,-507,367,788,738,376,60,-98,-178,-218,-232,-240,-239,-257,-275,-304,-355,-402,-477,-560,-630,-679,-673,-627,-560,-469,-337,-164,0,116,211,290,364,387,383,359,320,271,223,200,181,164,143,141,153,176,154,150,112,30,-32,-33,0,2,-19,51,105,215,267,250,224,214,195,150,24,-280,-612,-1105,-84,748,1145,771,310,21,-75,-120,-166,-179,-211,-230,-229,-263,-335,-368,-434,-521,-614,-671,-720,-715,-651
2018-05-17,17:48:11.219,-562,-425,-217,-29,149,278,369,432,486,483,441,374,328,314,308,270,244,217,204,227,229,211,196,195,199,181,104,49,2,33,22,-30,16,51,121,183,186,180,158,156,129,27,-182,-443,-954,-532,310,736,692,437,191,28,-57,-102,-125,-130,-153,-187,-211,-219,-269,-328,-394,-465,-543,-592,-593,-546,-461,-386,-273,-122,-8,98,171,241,256,270,249,204,171,164,147,99,68,64,59,72,55,58,61,59,57,16,-55,-69,-46,-26,-56,-19,45,125,180,181,166,150,144,115,21,-234,-468,-789,-117,649,872,662,321,77,-24,-84,-117,-130,-146,-158,-158,-200,-247,-276
2018-05-17,17:48:12.257,-323,-374,-452,-522,-560,-549,-509,-439,-334,-209,-73,67,171,258,333,376,375,371,357,321,288,270,236,210,203,220,221,202,198,231,227,172,97,39,24,82,108,81,146,207,317,354,353,343,317,298,267,68,-251,-559,-626,595,1194,1214,676,258,55,-10,-19,-36,-90,-119,-142,-159,-172,-216,-266,-339,-435,-548,-622,-662,-631,-569,-478,-365,-198,-4,174,300,386,453,481,449,404,355,322,285,250,211,174,140,124,100,69,55,46,17,-13,-19,-48,-103,-213,-277,-315,-290,-255,-306,-260,-226,-156,-115,-118,-139,-167,-192,-223,-391,-691,-989,-1293,-344,371,651,278,-100,-375,-480
2018-05-17,17:48:13.294,-526,-551,-575,-611,-622,-627,-639,-677,-722,-777,-840,-892,-932,-956,-905,-832,-751,-645,-519,-366,-240,-104,3,64,97,99,73,70,34,16,11,-11,-28,-37,-50,-40,-38,-29,-35,-36,-45,-41,-46,-104,-172,-199,-159,-147,-193,-159,-90,-43,34,67,86,76,53,59,-9,-218,-461,-853,-619,232,636,648,433,225,67,-10,-35,-29,-35,-54,-70,-85,-114,-131,-180,-214,-272,-339,-369,-370,-325,-266,-180,-66,61,170,281,384,452,504,515,505,485,460,422,410,399,378,356,360,367,371,385,389,381,374,369,333,254,169,171,212,179,157,211,244,341,378,353,356,331,284,250,28
2018-05-17,17:48:14.331,-270,-609,-401,687,1132,1011,524,150,-29,-109,-146,-176,-206,-251,-270,-289,-330,-379,-432,-501,-592,-698,-753,-769,-748,-680,-587,-476,-320,-165,-19,98,190,238,254,243,214,168,133,100,76,59,52,36,31,22,22,22,6,14,43,26,-33,-121,-195,-220,-183,-149,-184,-120,-56,56,103,88,70,81,72,10,-196,-514,-814,-832,358,975,995,454,28,-185,-260,-277,-275,-311,-352,-366,-370,-401,-430,-492,-564,-635,-724,-795,-808,-768,-686,-599,-473,-298,-109,56,204,322,409,436,450,445,411,356,315,299,263,259,265,260,258,259,254,264,253,240,227,234,222,143,58,25,67,50
2018-05-17,17:48:15.368,-49,34,121,194,249,239,233,210,208,195,59,-209,-486,-820,-117,567,829,637,372,144,15,-44,-74,-115,-102,-123,-147,-183,-232,-263,-300,-344,-401,-456,-490,-477,-398,-334,-274,-155,-45,35,163,262,303,319,334,322,291,272,251,238,211,204,200,203,205,193,175,165,169,180,160,102,37,-12,22,44,-5,-14,43,91,185,222,225,215,203,183,127,-87,-328,-622,-590,218,619,684,475,230,39,-40,-77,-108,-138,-162,-178,-177,-211,-260,-307,-364,-421,-476,-531,-555,-532,-482,-398,-311,-194,-58,49,152,216,262,291,294,263,246,246,234,201,168,161,158,168,171,182,194
2018-05-17,17:48:16.405,231,254,262,187,110,64,116,176,154,235,306,371,448,460,479,521,447,435,369,8,-212,-482,472,1306,1514,1070,586,304,135,114,138,102,64,32,-1,-38,-85,-177,-238,-310,-399,-510,-576,-562,-526,-500,-390,-236,-45,149,282,387,422,468,481,516,381,307,288,251,227,175,146,138,129,114,98,86,87,68,13,-35,-161,-230,-181,-181,-305,-286,-247,-138,-29,-13,-48,-80,-92,-98,-152,-358,-670,-1323,-1487,-314,583,762,371,1,-241,-375,-412,-446,-503,-523,-548,-583,-625,-671,-690,-769,-861,-960,-1044,-1017,-969,-897,-764,-603,-449,-264,-46,103,197,254,264,271,255,214,161,148
2018-05-17,17:48:28.670,-851,171,686,840,554,278,52,-60,-96,-107,-117,-134,-158,-160,-183,-225,-265,-326,-398,-466,-531,-574,-563,-504,-423,-282,-130,21,170,315,426,459,498,539,529,505,496,464,431,426,419,405,381,411,432,442,453,487,480,470,442,408,468,494,466,548,565,623,709,759,728,710,685,672,580,315,101,-196,201,920,1109,1072,855,642,484,393,340,292,248,243,227,177,128,101,47,-66,-142,-240,-356,-434,-473,-494,-509,-456,-341,-237,-169,-106,-78,-70,-66,-102,-161,-235,-257,-320,-386,-434,-493,-543,-586,-622,-637,-640,-645,-675,-693,-752,-835,-891,-888,-874,-913,-935,-865,-814,-749,-744
2018-05-17,17:48:29.708,-740,-728,-735,-765,-808,-1008,-1299,-1662,-1777,-770,-199,-33,-364,-696,-902,-959,-983,-1022,-1043,-1036,-1050,-1063,-1070,-1082,-1090,-1122,-1178,-1237,-1305,-1362,-1351,-1296,-1209,-1093,-909,-693,-513,-371,-242,-128,-66,-35,-37,-60,-84,-106,-144,-138,-155,-170,-166,-160,-164,-147,-117,-117,-91,-67,-117,-185,-239,-216,-165,-179,-153,-88,-13,100,137,142,135,152,157,131,-82,-381,-758,-813,317,924,1082,670,317,112,38,9,0,0,-21,-43,-68,-101,-135,-173,-233,-278,-350,-430,-460,-472,-430,-332,-220,-66,128,314,452,542,639,692,709,687,665,626,581,545,487,444,439,433,423,416,425,426,408,387,369,312
2018-05-17,17:48:31.020,255,272,267,234,230,294,311,399,427,419,399,379,380,336,133,-153,-399,-552,304,795,902,691,494,299,208,149,116,86,70,63,44,4,-31,-63,-114,-157,-219,-295,-342,-356,-327,-259,-160,-46,76,208,308,386,446,482,490,473,445,426,388,352,328,300,289,271,248,242,236,232,227,223,176,105,91,148,179,112,139,194,252,331,331,317,290,269,255,176,-118,-329,-558,47,877,1060,831,471,210,68,37,41,14,-5,-12,-23,-50,-96,-132,-182,-253,-327,-395,-475,-522,-517,-472,-387,-260,-108,42,189,300,376,431,455,463,444,406,357,318,291,269,244,229,208
2018-05-17,17:48:32.057,214,209,203,196,191,174,166,146,87,11,-10,49,92,38,79,134,218,300,308,274,253,229,193,94,-263,-521,-831,-66,914,1134,761,306,46,-72,-114,-132,-154,-178,-205,-237,-261,-289,-315,-377,-446,-510,-583,-672,-709,-704,-669,-582,-449,-283,-105,66,220,348,404,443,433,419,378,346,307,280,246,210,198,198,204,190,181,171,181,166,154,142,148,136,98,26,-32,-56,-37,-33,-94,-40,15,77,138,148,136,119,109,93,-5,-256,-473,-936,-516,320,670,604,377,160,-16,-106,-152,-145,-160,-192,-232,-243,-243,-281,-338,-397,-464,-531,-573,-600,-576,-523,-465,-368,-230,-106
2018-05-17,17:48:33.094,7,97,156,194,230,254,230,225,178,150,145,98,58,48,38,48,49,33,39,46,60,67,33,-25,-53,-38,-24,-71,-90,-12,14,83,97,89,85,77,60,15,-199,-467,-702,-715,148,513,565,370,200,4,-82,-132,-154,-177,-184,-198,-224,-233,-248,-279,-317,-359,-431,-497,-543,-551,-532,-477,-384,-267,-138,-3,110,185,259,296,310,306,297,261,212,163,153,136,107,84,74,78,70,78,99,105,107,41,-30,-68,-63,-7,-5,3,54,101,202,235,218,203,177,157,98,-197,-486,-733,-257,847,1156,848,312,14,-112,-135,-149,-168,-187,-193,-207,-240,-269,-287,-338,-393
2018-05-17,17:48:34.131,-469,-557,-636,-689,-700,-667,-587,-454,-279,-79,108,255,363,442,482,479,465,435,382,345,307,273,245,275,292,288,201,212,179,195,182,187,225,220,202,138,35,-27,-44,2,53,3,58,105,219,264,247,243,236,222,194,70,-272,-533,-865,29,896,1121,720,289,18,-96,-124,-151,-165,-179,-210,-232,-242,-277,-333,-351,-427,-521,-594,-681,-727,-708,-647,-562,-432,-265,-81,70,198,300,377,430,436,404,356,328,303,259,222,204,183,185,171,139,152,152,139,134,139,123,108,92,38,-38,-106,-118,-92,-129,-187,-119,-92,-26,10,3,0,-9,-36,-78,-210,-505,-749,-1176
2018-05-17,17:48:35.168,-352,308,516,330,124,-92,-248,-328,-347,-369,-400,-416,-423,-443,-464,-487,-510,-552,-613,-683,-728,-729,-710,-654,-574,-456,-317,-176,-42,55,153,229,267,275,268,260,259,240,222,204,184,184,204,222,233,240,256,277,298,324,320,283,235,208,242,277,225,239,299,340,434,457,447,440,435,410,363,157,-105,-448,-335,646,1117,1122,738,388,165,69,30,12,-9,-52,-91,-152,-189,-238,-290,-378,-467,-567,-662,-722,-758,-761,-715,-637,-494,-349,-223,-116,-29,12,26,42,31,-19,-99,-161,-204,-270,-325,-357,-380,-392,-403,-429,-444,-441,-459,-480,-500,-500,-521,-613,-710,-759,-711,-709
2018-05-17,17:48:36.205,-773,-723,-689,-616,-549,-538,-563,-580,-598,-618,-686,-954,-1228,-1679,-1137,-96,457,304,-251,-647,-799,-825,-842,-854,-857,-854,-869,-888,-899,-903,-929,-979,-1039,-1118,-1188,-1208,-1190,-1120,-1024,-877,-676,-455,-247,-54,94,209,268,301,310,302,298,278,261,237,215,224,230,235,242,256,260,252,255,278,286,280,273,271,273,264,220,140,100,115,152,134,138,206,262,369,382,376,378,375,365,330,137,-126,-563,-612,419,1047,1210,890,575,319,197,156,156,125,106,99,95,59,27,-3,-61,-124,-189,-275,-329,-333,-286,-227,-146,-38,114,274,396,501,579,609,612,624,611,564,543,512
2018-05-17,17:48:37.243,452,419,392,368,349,344,344,326,327,340,344,344,335,300,238,188,171,200,185,132,193,240,289,358,368,341,328,295,258,177,-66,-299,-748,-280,556,930,853,586,326,143,62,35,-1,-35,-51,-64,-87,-115,-149,-193,-261,-330,-401,-457,-507,-512,-485,-421,-305,-166,-16,125,240,332,398,437,453,457,431,379,330,300,281,242,242,223,208,215,206,215,220,227,220,225,220,220,214,139,47,-7,-1,12,-11,-14,67,106,203,226,209,197,200,167,129,-47,-323,-681,-907,178,894,1134,711,257,-28,-118,-158,-194,-216,-237,-251,-262,-306,-348,-385,-426,-500,-577,-662,-741
2018-05-17,17:48:38.280,-772,-750,-686,-577,-428,-219,-23,146,305,403,461,494,508,486,449,408,372,327,304,266,243,224,200,189,171,169,175,184,185,174,160,149,135,71,-5,-65,-38,-8,-24,11,63,122,194,199,192,201,194,189,141,-124,-417,-861,-533,502,1050,1021,598,231,14,-60,-74,-97,-126,-137,-140,-156,-173,-201,-236,-275,-365,-439,-488,-559,-560,-529,-451,-345,-201,-35,138,304,426,512,570,577,557,541,515,468,426,386,362,329,292,283,257,251,243,238,236,229,200,186,193,186,144,78,11,-13,7,6,-48,-9,29,102,137,150,145,130,105,74,-45,-315,-546,-927,-254,448
2018-05-17,17:48:39.317,706,579,349,84,-84,-156,-184,-205,-241,-264,-274,-292,-313,-343,-388,-453,-526,-603,-661,-695,-684,-658,-596,-505,-377,-235,-103,14,101,168,197,211,199,176,152,109,68,41,4,-20,-44,-50,-50,-69,-78,-76,-69,-63,-49,-40,-79,-178,-240,-249,-225,-211,-233,-160,-112,-4,44,43,36,32,17,-18,-169,-471,-743,-946,118,861,1012,525,81,-166,-258,-294,-302,-322,-339,-362,-393,-396,-415,-459,-514,-577,-649,-744,-824,-862,-857,-805,-703,-559,-377,-163,25,172,312,405,436,438,443,404,346,299,272,249,214,186,173,169,174,162,147,154,161,135,106,104,100,93,102,91,78,77
