2018-05-17,10:38:47.495,166,151,155,142,111,113,107,48,-256,-384,436,1291,1184,90,-890,-763,-211,79,220,263,266,279,282,279,281,287,283,279,290,303,335,348,350,357,338,332,329,303,252,190,148,86,30,-2,-16,-13,-13,-13,-9,0,5,2,23,32,50,61,57,54,69,77,71,74,60,54,70,70,67,67,65,68,99,111,96,109,144,156,118,66,35,61,65,54,47,41,16,-190,-457,0,930,1120,380,-655,-875,-530,-137,45,132,155,158,180,168,147,137,161,170,171,192,191,185,206,216,238,245,248,227,168,102,28,-41,-89,-105,-114,-123,-99,-106,-86,-94,-104
2018-05-17,10:38:48.582,-79,-55,-41,-34,-33,-37,-42,-36,-33,-38,-42,-35,-11,-13,-8,-5,-9,-20,-17,-3,11,13,15,72,102,96,64,17,-17,-14,1,-2,-7,-4,-103,-431,-368,484,1063,750,-351,-994,-744,-284,-48,75,94,98,107,106,124,112,109,108,115,125,133,132,148,171,176,172,162,153,132,92,28,-33,-90,-124,-142,-155,-155,-150,-140,-110,-96,-100,-90,-74,-83,-69,-53,-43,-48,-55,-34,-20,-26,-36,-33,-37,-36,-40,-50,-55,-51,-35,-52,-85,-40,2,0,-36,-90,-117,-123,-145,-168,-159,-172,-213,-469,-721,-128,768,871,8,-1128,-1192,-668,-380,-246,-207,-222,-236,-243,-243
2018-05-17,10:38:49.620,-251,-267,-299,-314,-320,-319,-315,-317,-307,-305,-302,-323,-354,-387,-430,-479,-545,-609,-669,-691,-688,-700,-704,-686,-669,-677,-675,-660,-643,-619,-619,-618,-598,-585,-569,-552,-526,-510,-506,-507,-485,-470,-470,-459,-422,-397,-392,-393,-354,-335,-325,-266,-223,-197,-183,-218,-255,-236,-224,-215,-203,-194,-207,-414,-654,-103,850,1047,224,-932,-1047,-494,-122,49,125,146,159,193,197,183,204,205,200,230,258,283,323,344,354,382,383,371,357,339,294,240,198,150,121,122,130,121,131,150,170,180,166,185,209,214,213,202,213,241,245,244,247,245,234,248,244,250,251,252,238,229,239,264
2018-05-17,10:38:50.657,253,248,285,305,309,262,237,237,234,221,218,220,218,117,-179,-114,737,1284,942,-133,-694,-521,-96,157,288,325,339,335,335,343,348,345,332,348,368,368,374,381,390,394,391,380,371,345,282,212,154,95,48,17,-3,-6,-6,-1,-16,-1,21,23,23,26,36,46,45,64,76,97,102,90,93,106,97,82,79,92,103,93,83,92,90,85,133,151,151,122,99,61,55,65,64,37,27,-32,-303,-428,252,1027,1000,59,-854,-791,-320,-44,84,109,109,110,117,107,84,85,105,121,132,128,144,144,163,172,172,167,138,86,52,15,-42,-99,-136,-167
2018-05-17,10:38:51.694,-193,-185,-173,-169,-160,-148,-146,-143,-138,-159,-185,-183,-178,-173,-177,-178,-180,-185,-187,-189,-185,-184,-178,-190,-212,-214,-209,-210,-207,-218,-235,-205,-148,-127,-158,-218,-246,-255,-286,-285,-278,-281,-280,-468,-785,-461,497,902,321,-950,-1292,-809,-412,-200,-137,-130,-104,-106,-113,-115,-128,-117,-108,-99,-80,-60,-63,-56,-29,-16,-23,-38,-44,-73,-115,-172,-221,-259,-287,-323,-329,-328,-308,-287,-271,-235,-213,-213,-204,-205,-190,-177,-175,-152,-135,-130,-138,-143,-120,-89,-90,-84,-69,-64,-69,-58,-54,-38,-17,-20,-12,39,58,38,6,-23,-15,-13,-15,-6,-12,-30,-175,-504,-318,667,1172,691
2018-05-17,10:38:52.731,-580,-1006,-642,-180,27,120,142,137,156,179,194,179,181,194,212,203,211,241,238,241,252,257,265,240,210,169,85,22,-31,-65,-61,-59,-55,-47,-29,-22,-32,-9,1,7,12,24,34,45,44,39,40,51,67,58,56,62,67,73,64,69,46,52,79,74,72,117,140,138,119,81,73,89,91,90,89,85,47,-174,-396,179,1014,1043,206,-693,-787,-421,-88,92,174,194,197,198,199,196,204,215,218,235,246,251,263,283,288,283,275,268,245,207,153,95,24,-26,-63,-69,-64,-66,-67,-58,-41,-34,-50,-49,-27,-34,-31,-37,-28,-4,13,25,33,37
2018-05-17,10:38:53.768,41,48,43,26,39,43,38,18,11,27,17,17,61,102,94,44,14,0,-1,9,1,0,-7,-107,-426,-454,415,1086,852,-265,-995,-740,-275,-33,57,86,97,102,94,98,98,88,88,88,112,126,144,156,153,173,163,139,125,122,90,52,1,-68,-103,-127,-129,-128,-141,-145,-134,-115,-104,-108,-115,-99,-73,-67,-66,-56,-37,-43,-14,-10,-44,-47,-57,-34,-31,-32,-22,-15,-29,-25,-15,-10,5,66,76,58,40,11,7,-5,-23,-15,-11,-27,-135,-490,-406,568,1225,862,-380,-1064,-747,-279,-32,91,100,99,108,100,102,90,88,88,102,113,112,132,147,172
2018-05-17,10:38:54.806,192,188,178,146,123,82,24,-52,-112,-144,-161,-175,-166,-149,-152,-168,-161,-144,-126,-121,-119,-112,-111,-100,-105,-102,-83,-71,-65,-45,-48,-43,-45,-52,-54,-56,-55,-40,-22,-27,-17,31,51,47,-2,-35,-34,-35,-25,-2,-12,-33,-185,-503,-133,845,1154,482,-683,-997,-623,-223,-25,73,85,90,109,112,87,79,72,82,101,97,98,88,99,130,136,144,124,84,33,-47,-151,-235,-290,-320,-335,-367,-399,-406,-398,-410,-418,-419,-420,-432,-444,-468,-465,-457,-458,-499,-515,-519,-534,-542,-557,-575,-584,-598,-595,-600,-628,-657,-670,-679,-687,-684,-638,-630,-657,-697,-715,-719,-721,-723
2018-05-17,10:38:55.843,-735,-737,-738,-872,-1192,-914,62,486,-60,-1217,-1634,-1321,-916,-674,-554,-549,-527,-481,-461,-444,-425,-401,-372,-345,-341,-313,-274,-249,-212,-172,-157,-138,-133,-160,-193,-244,-296,-329,-363,-371,-373,-362,-337,-296,-259,-252,-230,-204,-168,-135,-102,-89,-85,-68,-37,-19,0,31,35,58,76,87,83,100,121,144,159,175,198,225,227,258,330,354,323,280,276,291,290,294,294,301,296,57,-229,318,1341,1603,812,-402,-599,-77,279,449,490,507,536,555,544,543,550,559,576,605,603,624,638,658,665,665,659,649,641,610,532,444,386,344,324,308,287,272,267,291,326,330,312,302
2018-05-17,10:38:56.880,302,320,327,337,334,331,321,300,288,296,285,276,288,289,269,260,250,249,235,237,237,200,190,211,216,210,263,270,225,175,145,122,101,106,97,83,50,-127,-476,-159,873,1329,751,-559,-1041,-614,-175,21,108,122,126,127,126,117,116,117,117,104,118,130,123,123,160,183,186,159,129,92,39,-37,-119,-160,-209,-230,-246,-253,-236,-232,-218,-193,-203,-208,-197,-178,-155,-146,-141,-145,-152,-137,-139,-129,-123,-138,-150,-129,-119,-129,-124,-147,-123,-80,-91,-115,-34,-8,-47,-88,-130,-142,-133,-136,-126,-111,-134,-250,-577,-457,529,1120,728,-536,-1172,-804,-322,-92,17,43
2018-05-17,10:38:57.917,56,59,61,70,87,91,80,102,119,121,151,178,181,211,220,192,170,146,93,0,-77,-124,-169,-194,-195,-165,-153,-158,-146,-134,-137,-130,-127,-114,-79,-73,-77,-72,-65,-61,-59,-67,-61,-56,-53,-41,-34,-30,-2,0,0,58,112,119,77,50,38,42,38,19,4,0,-52,-330,-462,297,1134,1083,42,-961,-854,-299,-18,110,142,150,162,157,149,147,164,169,178,199,211,228,246,267,277,277,271,252,245,193,107,34,-36,-71,-87,-80,-86,-92,-62,-28,-24,-22,-14,5,4,4,21,30,29,26,45,43,41,70,83,66,59,53,66,84,73,81,144,192
2018-05-17,10:38:58.954,191,135,86,82,76,67,60,47,40,-119,-444,-222,728,1194,693,-551,-1011,-628,-196,3,94,102,102,88,66,52,53,34,41,65,66,74,72,66,70,73,53,45,30,-24,-82,-153,-235,-312,-356,-364,-350,-364,-379,-394,-399,-400,-369,-363,-367,-378,-363,-346,-354,-356,-362,-361,-362,-356,-354,-350,-355,-363,-367,-369,-364,-352,-365,-367,-316,-279,-268,-292,-331,-337,-318,-303,-318,-328,-329,-405,-665,-650,179,772,510,-514,-1125,-1008,-575,-295,-147,-101,-73,-51,-62,-67,-40,-18,-19,-17,1,28,44,63,99,126,138,136,124,110,69,2,-60,-104,-142,-152,-153,-158,-138,-92,-87,-67
2018-05-17,10:38:59.992,-40,-23,-30,-30,-16,12,37,30,44,51,71,77,81,80,81,97,98,108,106,122,126,120,124,175,208,192,139,109,102,109,90,98,110,99,-35,-358,-202,678,1181,770,-362,-888,-567,-141,48,148,156,142,135,142,153,148,164,180,164,158,157,153,170,187,172,169,145,122,115,64,-15,-81,-119,-153,-179,-186,-174,-182,-188,-172,-180,-162,-144,-137,-124,-117,-131,-108,-76,-75,-100,-102,-110,-99,-113,-108,-88,-96,-67,-46,-52,-92,-32,17,21,-4,-38,-56,-66,-52,-46,-28,-49,-141,-476,-448,451,1187,992,-204,-1043,-739,-205,38,102,134,168,162,142,164,145,125
2018-05-17,10:39:01.029,132,162,190,193,241,268,261,241,264,279,257,225,186,139,71,-30,-59,-32,-66,-90,-75,-30,-33,-55,-72,-12,17,3,32,24,6,13,42,27,36,48,75,74,55,43,64,82,71,63,55,46,79,153,177,162,125,56,25,80,74,47,53,76,-125,-416,36,959,1170,400,-765,-956,-430,-34,143,191,216,221,208,226,220,208,217,201,220,232,219,240,240,272,272,286,274,228,167,101,57,-20,-82,-97,-99,-120,-125,-96,-96,-105,-74,-68,-67,-63,-70,-63,-31,-20,-42,-42,-27,-40,-39,-12,-31,-31,-11,-20,-40,-49,-40,-30,-60,-37,22,26,-6,-54
2018-05-17,10:39:02.066,-86,-55,-47,-53,-47,-61,-104,-322,-534,59,893,925,43,-892,-964,-543,-164,16,72,87,109,116,105,106,108,115,108,105,90,103,129,138,147,154,144,103,78,51,-13,-94,-147,-190,-237,-265,-256,-258,-264,-248,-228,-231,-229,-219,-201,-190,-163,-165,-165,-170,-167,-140,-136,-136,-136,-126,-105,-101,-127,-121,-101,-90,-101,-54,-14,-35,-83,-102,-87,-85,-88,-104,-99,-110,-176,-467,-485,364,1026,806,-255,-952,-882,-478,-178,-15,29,44,48,63,76,72,81,97,102,108,112,131,128,144,173,184,182,157,131,91,31,-23,-72,-119,-135,-142,-155,-145,-146,-124,-100,-90,-96,-113
2018-05-17,10:39:03.103,-92,-68,-74,-81,-47,-48,-62,-71,-64,-72,-60,-57,-62,-72,-86,-73,-60,-59,-85,-49,-29,-35,-89,-142,-163,-190,-193,-212,-223,-228,-307,-622,-687,119,867,749,-333,-1216,-1098,-658,-396,-254,-221,-229,-229,-237,-237,-230,-242,-252,-246,-237,-237,-215,-198,-213,-199,-182,-184,-194,-226,-256,-305,-355,-395,-429,-466,-490,-473,-440,-415,-414,-397,-379,-355,-341,-333,-334,-313,-287,-265,-253,-255,-240,-210,-184,-181,-159,-141,-158,-167,-137,-95,-114,-107,-27,13,11,-17,-27,-31,-35,-37,-22,-11,-12,-66,-365,-441,411,1255,1188,76,-888,-726,-195,57,179,215,221,230,228,238,266,283,273,296,325
2018-05-17,10:39:04.140,356,345,360,390,402,400,402,395,376,342,260,195,170,155,128,123,101,73,76,88,120,138,133,125,152,167,172,165,178,186,187,200,204,205,212,213,221,231,224,223,251,255,230,255,303,303,255,204,184,175,177,175,189,185,157,-117,-383,255,1229,1366,422,-751,-819,-284,62,217,263,271,278,270,266,261,257,250,240,258,291,283,276,293,328,344,328,297,275,236,151,73,-4,-55,-85,-91,-89,-78,-63,-71,-67,-65,-52,-31,-31,-16,-28,-34,-24,-9,1,-4,-4,-1,-2,-3,12,2,11,12,-5,0,26,6,37,78,89,50,15,-1,-11,-40
2018-05-17,10:39:05.177,-54,-35,-30,-66,-326,-532,131,1014,1057,115,-924,-972,-496,-145,31,86,94,109,122,119,109,122,144,156,152,139,142,167,180,207,199,182,170,131,93,42,-30,-73,-124,-166,-177,-188,-179,-165,-181,-180,-170,-163,-145,-146,-118,-123,-130,-110,-81,-79,-85,-78,-72,-85,-106,-110,-106,-113,-128,-143,-118,-111,-133,-77,-40,-40,-76,-125,-168,-166,-189,-191,-198,-200,-239,-512,-692,-62,745,767,-116,-1000,-1065,-688,-356,-198,-135,-116,-111,-108,-103,-88,-92,-96,-99,-90,-83,-74,-74,-87,-61,-40,-31,-42,-67,-85,-159,-237,-295,-343,-352,-355,-367,-362,-356,-346,-339,-315,-312,-312,-286,-278
2018-05-17,10:39:06.215,-274,-261,-241,-236,-226,-222,-202,-193,-189,-173,-156,-148,-144,-131,-128,-129,-132,-123,-100,-96,-68,-24,6,-15,-57,-72,-72,-89,-73,-35,-18,-52,-262,-522,-63,864,1091,393,-662,-911,-543,-182,26,133,135,132,135,145,168,165,155,155,169,179,191,200,217,243,263,265,244,227,209,164,92,18,-19,-40,-55,-61,-63,-44,-39,-37,-30,-19,-4,-16,-15,-3,5,18,15,24,39,51,46,38,50,49,59,77,88,87,74,82,94,86,85,142,190,186,154,134,108,106,100,98,97,80,49,-220,-438,214,1124,1181,269,-825,-849,-314,-12,125,164,180,170,156,145,143
2018-05-17,10:39:07.252,152,170,179,169,175,178,201,196,213,234,220,204,173,124,62,-29,-108,-155,-195,-234,-252,-246,-259,-263,-259,-249,-237,-234,-227,-237,-238,-237,-239,-243,-241,-240,-253,-257,-243,-237,-237,-247,-252,-241,-244,-241,-224,-244,-234,-206,-195,-194,-146,-117,-140,-180,-235,-238,-221,-209,-206,-212,-210,-343,-682,-521,484,1091,623,-648,-1251,-861,-372,-157,-42,-21,-11,17,38,42,52,58,70,93,99,121,134,163,198,212,210,217,213,180,126,68,20,-58,-116,-149,-155,-138,-127,-129,-98,-68,-57,-48,-24,-31,-8,14,8,14,19,30,59,66,54,56,57,58,76,84,102,95,116,111
2018-05-17,10:39:08.289,114,130,133,117,176,227,224,187,146,139,133,128,129,134,120,58,-217,-366,375,1252,1180,138,-838,-797,-306,-10,173,222,220,235,254,247,237,224,206,211,239,249,263,271,272,279,288,282,282,263,217,155,72,-11,-64,-88,-115,-103,-91,-71,-62,-67,-43,-38,-37,-31,-33,-8,10,8,10,9,17,14,22,40,40,36,52,49,21,23,39,51,59,63,54,99,139,148,118,79,52,39,41,32,32,18,-26,-243,-441,140,988,1001,165,-781,-882,-499,-171,8,82,79,112,138,128,130,128,115,105,122,145,169,163,185,200,192,201,203,189,159,82,-7
2018-05-17,10:39:09.326,-78,-137,-170,-189,-196,-197,-181,-165,-148,-130,-115,-113,-126,-124,-103,-81,-80,-86,-86,-90,-77,-61,-59,-53,-60,-41,-35,-52,-51,-58,-56,-35,-27,-44,-8,23,31,7,-24,-39,-40,-40,-38,-38,-53,-75,-279,-512,-1,899,1050,297,-794,-929,-496,-175,7,77,78,84,100,90,69,80,98,119,127,132,141,166,182,198,206,199,184,170,156,97,4,-68,-123,-154,-163,-169,-165,-165,-163,-161,-152,-136,-111,-91,-91,-80,-92,-89,-59,-56,-46,-58,-59,-57,-62,-41,-47,-42,-25,-24,-22,-21,-10,-5,14,22,10,35,82,93,54,12,-12,-14,-21,-22,-10,-15,-57,-318
2018-05-17,10:39:10.363,-568,84,999,1095,220,-884,-923,-428,-126,25,40,46,64,57,44,47,50,52,63,57,32,27,52,67,82,72,62,51,37,4,-67,-151,-209,-264,-316,-354,-350,-334,-331,-323,-333,-312,-302,-301,-308,-319,-317,-318,-318,-310,-308,-313,-298,-279,-291,-301,-309,-288,-294,-300,-286,-277,-282,-280,-279,-282,-271,-265,-259,-266,-248,-195,-175,-199,-232,-265,-265,-248,-244,-237,-226,-257,-438,-746,-402,586,976,369,-866,-1241,-759,-358,-178,-113,-83,-51,-42,-44,-51,-45,-25,0,9,19,24,55,97,103,111,127,111,91,66,10,-60,-136,-201,-209,-193,-193,-208,-211,-191,-183,-145,-121,-121,-128
2018-05-17,10:39:11.401,-120,-109,-91,-97,-84,-70,-60,-56,-50,-39,-32,-36,-36,-40,-32,-23,-29,-23,-11,-22,-41,-26,-18,-44,-4,41,39,12,-24,-56,-56,-46,-42,-45,-52,-93,-339,-557,29,923,982,119,-898,-1006,-564,-184,-4,68,82,71,111,127,108,119,135,136,141,148,155,179,210,224,235,250,260,237,169,97,29,-41,-77,-96,-105,-97,-93,-89,-87,-89,-84,-72,-51,-51,-46,-33,-17,4,22,6,2,13,23,42,58,53,56,58,66,80,79,72,96,118,120,123,183,182,157,121,88,96,114,103,97,79,62,-78,-330,20,864,1105,514,-512,-805,-511,-95,117,204,221
2018-05-17,10:39:12.438,237,258,259,277,268,260,254,256,256,261,280,292,319,337,333,327,309,266,213,134,70,15,-35,-71,-75,-64,-57,-38,-43,-34,-16,-5,-3,2,17,20,19,14,18,38,40,58,50,49,53,53,62,76,57,55,43,50,67,93,77,80,142,166,136,96,73,65,71,60,57,59,44,-108,-416,-167,743,1158,676,-483,-930,-545,-140,62,144,146,156,148,141,147,163,159,154,173,176,168,196,229,240,246,245,229,210,185,152,79,17,-32,-67,-86,-99,-97,-101,-94,-75,-84,-59,-42,-40,-37,-17,-8,-24,-26,-14,-16,-13,-12,-22,-8,-6,-6,7,4
2018-05-17,10:39:13.475,-4,-1,-18,-15,13,27,19,55,81,71,24,-6,-37,-36,-26,-31,-42,-59,-102,-388,-573,133,979,956,-12,-1047,-963,-437,-156,-29,-16,-19,-8,0,-10,0,-12,-24,-21,-21,-25,-25,-8,19,42,49,37,21,4,-29,-76,-147,-228,-291,-308,-325,-331,-331,-335,-343,-326,-320,-312,-308,-284,-266,-268,-255,-241,-247,-253,-254,-233,-241,-254,-229,-210,-198,-218,-232,-221,-218,-193,-173,-178,-168,-129,-120,-139,-105,-69,-52,-87,-131,-129,-112,-98,-96,-105,-95,-134,-417,-623,119,1007,998,-4,-1004,-923,-410,-132,2,30,49,83,108,111,98,93,101,114,112,116,124,140,158,178,203
2018-05-17,10:39:14.512,200,176,154,128,79,24,-46,-98,-142,-154,-157,-139,-142,-130,-108,-92,-64,-49,-41,-58,-69,-52,-27,-24,-35,-27,-17,-14,-12,-11,4,29,28,36,33,35,22,20,46,80,80,62,100,142,148,105,57,46,58,57,48,76,74,21,-274,-436,316,1145,1098,51,-924,-811,-290,-6,121,144,146,162,171,179,172,158,163,196,187,192,192,204,211,217,237,237,226,210,168,115,32,-48,-106,-135,-135,-136,-129,-124,-135,-136,-116,-94,-91,-72,-62,-44,-23,-25,-37,-17,-8,-16,-17,-29,-26,-17,-31,-36,-28,-34,-37,-18,-10,-1,5,-13,-5,59,86,79,45,25
2018-05-17,10:39:15.549,14,19,25,25,20,-6,-141,-450,-231,673,1092,610,-527,-975,-714,-266,-29,80,109,126,133,129,139,142,140,149,162,168,172,183,199,213,207,214,227,216,167,115,45,-19,-71,-120,-147,-161,-161,-162,-168,-154,-134,-126,-117,-114,-107,-92,-78,-81,-71,-57,-47,-32,-27,-25,-16,-18,-18,-19,-5,0,-9,-20,-21,0,2,18,15,-4,20,52,55,50,16,-2,-9,-7,9,11,0,-41,-240,-474,14,870,1005,258,-724,-894,-538,-177,23,96,113,114,108,102,124,144,143,134,141,139,150,171,183,191,215,222,212,185,141,75,3,-60,-111,-147,-152,-172,-194,-195
2018-05-17,10:39:16.587,-175,-159,-148,-151,-144,-127,-105,-99,-71,-63,-72,-86,-78,-74,-72,-73,-50,-48,-49,-37,-47,-57,-57,-53,-38,-35,-42,-46,-8,1,1,39,62,50,23,5,-11,-23,-21,-11,-16,-24,-75,-349,-504,220,1036,945,-10,-936,-889,-393,-116,38,80,93,101,110,109,105,96,96,105,113,120,121,141,173,200,219,219,206,184,142,76,-1,-66,-128,-159,-170,-170,-157,-149,-168,-170,-163,-152,-143,-136,-125,-122,-126,-130,-119,-102,-97,-86,-91,-83,-77,-69,-60,-65,-57,-55,-50,-52,-73,-82,-95,-93,-69,-60,-84,-57,-5,10,-27,-63,-87,-89,-111,-105,-112,-108,-126,-368,-656
2018-05-17,10:39:17.624,-51,897,998,134,-1016,-1101,-577,-250,-114,-64,-53,-49,-49,-45,-42,-58,-39,-19,-23,-25,-31,-17,-14,-3,2,9,15,7,-36,-110,-193,-269,-336,-387,-416,-411,-375,-360,-355,-356,-356,-333,-317,-311,-308,-307,-302,-298,-285,-281,-282,-278,-291,-286,-265,-283,-284,-260,-247,-226,-233,-243,-240,-251,-250,-247,-245,-232,-202,-180,-188,-136,-104,-109,-133,-168,-184,-182,-175,-169,-187,-186,-233,-526,-626,174,986,889,-153,-1075,-915,-400,-135,-15,15,38,65,79,82,86,80,91,98,105,119,147,161,176,194,212,195,185,189,173,123,27,-41,-56,-74,-97,-114,-89,-72,-76,-54,-43,-37,-33
2018-05-17,10:39:18.661,0,10,39,50,53,66,49,51,57,59,79,70,85,106,102,127,132,124,128,131,125,122,128,137,167,165,141,196,233,238,192,142,127,108,108,110,113,104,34,-224,-344,364,1172,1096,131,-761,-771,-347,-23,144,223,229,220,219,224,232,234,231,218,228,249,254,280,299,314,322,311,299,299,278,208,130,53,-6,-30,-53,-52,-52,-55,-38,-40,-26,-15,-7,6,6,5,20,20,27,38,43,54,58,60,53,51,58,64,73,72,72,69,62,42,41,49,37,34,88,95,92,79,36,29,29,25,9,7,4,-43,-303,-442,279,1064,983,27,-866
2018-05-17,10:39:19.698,-832,-370,-80,93,150,155,130,120,131,149,148,134,140,167,181,194,208,228,246,258,268,261,235,209,136,46,-18,-75,-101,-114,-138,-136,-126,-124,-126,-124,-119,-98,-88,-87,-68,-57,-62,-62,-51,-50,-46,-53,-57,-57,-51,-60,-54,-40,-28,-19,-14,-32,-18,1,-17,-15,-6,-19,-23,35,60,41,-3,-22,-22,-36,-56,-57,-32,-37,-104,-422,-472,408,1105,888,-199,-985,-786,-299,-62,54,87,99,99,92,97,101,101,101,110,118,134,151,157,163,181,204,197,195,200,154,98,27,-40,-101,-139,-155,-164,-159,-157,-145,-120,-123,-120,-116,-89,-70,-49,-49,-59,-70
2018-05-17,10:39:20.735,-66,-54,-50,-45,-42,-36,-42,-44,-30,-32,-44,-42,-49,-42,-36,-31,-35,-25,-30,-35,11,58,60,15,-14,-24,-17,-9,-23,-38,-36,-81,-365,-495,233,1046,989,-19,-977,-857,-342,-72,39,78,93,95,101,111,103,98,93,90,102,112,131,137,155,180,181,177,170,159,119,43,-43,-114,-153,-183,-204,-211,-208,-195,-191,-177,-165,-161,-160,-146,-154,-153,-121,-118,-125,-119,-101,-88,-80,-60,-60,-67,-50,-43,-43,-48,-54,-50,-42,-35,-36,-26,-22,-20,-7,-9,1,51,65,38,5,-23,-28,-8,-13,-10,-16,-34,-217,-536,-194,783,1129,503,-721,-1069,-628,-227,-47,7
2018-05-17,10:39:21.772,16,16,33,28,9,12,2,-14,-33,-46,-47,-41,-39,-41,-51,-59,-72,-119,-157,-195,-284,-399,-477,-543,-579,-608,-635,-651,-661,-673,-688,-686,-700,-713,-712,-718,-722,-724,-728,-732,-736,-734,-721,-727,-738,-742,-757,-767,-757,-725,-741,-752,-731,-732,-727,-703,-683,-677,-638,-617,-603,-612,-646,-656,-625,-607,-617,-604,-580,-652,-946,-940,-80,551,280,-813,-1452,-1287,-817,-528,-382,-342,-308,-289,-275,-249,-228,-212,-205,-199,-166,-123,-75,-34,2,14,30,55,64,59,42,9,-55,-123,-128,-119,-125,-91,-25,1,29,54,92,113,140,180,186,198,221,253,279,282,293,292,315,343,354,377
2018-05-17,10:39:22.810,382,404,395,405,437,449,435,444,467,471,487,531,559,573,545,528,521,510,505,492,500,516,423,120,191,1093,1615,1255,135,-440,-215,228,468,574,579,580,567,564,583,588,581,575,573,572,579,600,605,612,636,618,595,588,580,547,476,378,299,251,232,222,204,199,219,248,252,241,234,227,218,239,236,226,242,238,231,228,233,233,230,230,231,211,207,193,194,192,191,208,208,176,209,267,272,219,149,135,124,106,101,104,107,83,-145,-455,68,1018,1193,403,-737,-867,-344,-18,115,172,191,185,169,179,190,174,140,145,184,176,173,174,200,219
2018-05-17,10:39:23.847,232,255,239,215,192,124,57,-3,-72,-109,-123,-131,-125,-118,-100,-84,-84,-63,-59,-53,-48,-50,-55,-45,-36,-36,-33,-17,-21,-35,-27,-22,-24,-22,-25,-33,-38,-23,-12,-25,-13,43,68,49,3,-41,-41,-50,-71,-81,-64,-91,-228,-571,-366,632,1134,627,-643,-1134,-690,-265,-84,-28,-35,-34,-3,-7,-9,-9,-8,-32,-36,-43,-29,-22,-21,-15,-7,-13,-6,-13,-49,-106,-180,-252,-327,-388,-413,-427,-433,-423,-418,-398,-394,-395,-401,-397,-375,-366,-387,-384,-380,-379,-371,-376,-378,-378,-383,-374,-382,-387,-374,-382,-360,-339,-352,-329,-269,-253,-284,-316,-327,-331,-318,-308,-309,-297
2018-05-17,10:39:24.884,-308,-487,-773,-362,562,774,88,-980,-1200,-798,-424,-217,-122,-106,-78,-74,-66,-59,-33,-10,4,17,8,21,44,54,68,106,113,126,115,88,42,-33,-80,-124,-156,-161,-170,-176,-163,-138,-118,-107,-104,-89,-73,-73,-69,-35,-11,-11,-13,1,27,33,34,52,65,71,72,62,77,114,121,86,120,152,146,108,80,75,86,102,100,89,81,55,-180,-400,197,1038,1075,219,-720,-809,-418,-85,91,156,171,181,189,194,199,204,205,210,201,200,204,210,247,279,289,288,277,273,238,163,51,-35,-83,-126,-139,-136,-141,-124,-110,-119,-119,-104,-91,-83,-96,-98,-83,-80
2018-05-17,10:39:25.921,-62,-43,-65,-45,-33,-51,-40,-24,-46,-45,-33,-44,-38,-19,-9,-14,21,55,41,4,-31,-49,-55,-54,-47,-37,-24,-57,-334,-518,190,1026,979,-3,-959,-895,-385,-82,49,73,73,101,110,114,126,136,135,152,170,160,184,199,209,233,241,243,227,229,216,145,53,-11,-63,-110,-132,-136,-132,-136,-129,-119,-111,-108,-89,-86,-90,-75,-60,-46,-38,-24,-11,0,1,5,-15,-21,1,15,15,24,25,24,13,10,11,40,49,44,90,122,94,48,27,25,34,39,35,28,19,-105,-426,-226,764,1266,766,-475,-1032,-643,-175,15,92,99,135,154,153,164,186,197
2018-05-17,10:39:26.958,202,180,174,184,193,220,253,261,267,281,278,247,174,96,13,-63,-103,-128,-141,-148,-156,-136,-114,-107,-101,-95,-80,-86,-89,-79,-71,-51,-52,-47,-54,-73,-64,-32,-46,-59,-59,-65,-88,-108,-95,-103,-114,-112,-119,-134,-135,-128,-121,-149,-122,-105,-123,-154,-172,-199,-222,-232,-255,-264,-266,-391,-718,-585,385,884,382,-773,-1306,-1102,-655,-419,-285,-262,-260,-273,-271,-255,-246,-246,-249,-242,-219,-212,-208,-208,-167,-127,-132,-130,-123,-159,-219,-279,-357,-427,-480,-497,-496,-492,-483,-467,-448,-433,-419,-402,-395,-375,-347,-316,-297,-300,-298,-276,-255,-247,-228,-221,-203,-182,-177,-156,-144,-130
2018-05-17,10:39:27.996,-121,-104,-92,-65,-40,-31,-37,-25,-6,-4,-15,-5,18,38,52,45,48,65,61,62,79,79,86,104,122,119,140,159,167,217,248,236,195,167,152,160,154,149,140,138,32,-278,-155,811,1355,928,-200,-817,-579,-147,69,213,227,239,286,309,293,295,292,281,288,307,330,344,342,367,393,410,407,388,380,368,322,223,122,62,17,-20,-35,-24,-9,1,12,22,20,20,25,21,16,28,47,52,57,63,68,90,100,113,119,124,133,131,120,118,103,105,107,131,151,147,140,130,124,132,125,127,145,155,162,163,156,145,145,130,130,122,123,114
2018-05-17,10:39:47.020,111,19,-72,-136,-175,-200,-226,-227,-217,-201,-189,-195,-189,-172,-166,-155,-142,-120,-112,-136,-150,-128,-116,-105,-99,-102,-87,-91,-77,-78,-78,-52,-7,2,6,-31,-50,-45,-50,-57,-74,-71,-85,-250,-598,-335,729,1216,695,-379,-874,-757,-400,-177,-33,14,18,49,66,80,75,80,78,80,90,98,117,113,125,154,182,187,197,201,165,99,6,-88,-161,-219,-255,-262,-263,-257,-243,-237,-215,-199,-199,-185,-178,-170,-160,-143,-129,-115,-115,-112,-106,-89,-100,-111,-119,-118,-101,-65,-79,-82,-3,26,-1,-22,-68,-88,-93,-99,-85,-65,-60,-113,-423,-671,98,1199,1176,130,-974,-1172
2018-05-17,10:39:48.058,-693,-265,-8,132,158,162,152,149,165,189,175,177,166,156,151,171,188,201,229,225,236,237,212,167,76,-33,-135,-200,-246,-269,-264,-268,-242,-214,-195,-182,-158,-153,-150,-137,-141,-152,-137,-125,-107,-81,-88,-91,-69,-68,-61,-65,-60,-26,-4,-27,6,51,76,56,7,-17,-16,-34,-24,-18,-16,-25,-198,-637,-484,783,1618,1055,-308,-1060,-926,-434,-160,36,102,120,126,143,130,128,130,133,140,140,153,159,181,197,228,234,260,264,226,175,111,-15,-146,-220,-280,-320,-336,-336,-335,-353,-342,-335,-347,-355,-350,-353,-345,-330,-322,-326,-352,-352,-346,-365,-376,-399,-435,-424
2018-05-17,10:39:48.532,-408,-423,-399,-361,-349,-350,-391,-427,-440,-444,-450,-460,-477,-484,-567,-872,-880,12,700,377,-640,-1328,-1341,-959,-598,-412,-312,-287,-279,-255,-235,-229,-235,-231,-217,-207,-188,-180,-158,-126,-108,-91,-82,-81,-82,-110,-163,-231,-304,-360,-397,-417,-430,-431,-402,-354,-325,-310,-294,-284,-264,-230,-189,-198,-182,-179,-168,-145,-137,-137,-119,-94,-92,-82,-55,-23,-1,-9,20,83,117,106,74,42,43,55,56,58,68,66,-45,-429,-433,558,1497,1270,143,-747,-768,-338,-40,174,256,253,252,246,266,280,278,286,295,306,318,331,357,402,435,445,446,445,430,407,359,275,177,70,6,-28
2018-05-17,10:39:49.569,-54,-52,-36,-25,-16,6,32,41,42,31,38,52,59,68,79,112,104,91,103,121,119,120,104,121,157,158,180,246,272,251,216,172,169,165,157,141,143,139,55,-281,-440,440,1439,1263,168,-844,-938,-402,18,243,326,329,340,343,352,343,333,331,336,330,339,348,342,351,385,391,385,393,381,368,317,230,118,25,-37,-72,-81,-70,-63,-45,-54,-62,-43,-42,-36,-18,-19,-29,-11,-7,0,21,28,24,15,22,37,42,27,20,38,59,62,69,110,144,128,79,57,45,41,41,37,35,19,-64,-408,-435,528,1405,1140,37,-787,-817,-404,-86,99,174
2018-05-17,10:39:50.607,157,151,165,177,166,164,165,169,183,191,200,217,246,263,276,279,273,266,226,180,103,-9,-82,-126,-162,-181,-202,-200,-183,-165,-142,-139,-125,-127,-133,-123,-114,-117,-106,-86,-75,-78,-83,-72,-57,-51,-44,-22,-16,-20,21,53,58,27,-6,-25,-24,-11,-11,-7,0,-19,-204,-500,-117,852,1110,461,-544,-908,-736,-332,-109,18,63,57,65,70,49,51,41,25,45,45,34,35,46,71,76,68,46,17,-8,-51,-116,-221,-326,-407,-473,-502,-531,-543,-542,-539,-528,-521,-531,-545,-549,-547,-558,-572,-572,-565,-564,-569,-566,-578,-571,-578,-573,-575,-573,-579,-592,-579,-586,-561
2018-05-17,10:39:51.644,-488,-460,-477,-514,-541,-549,-548,-534,-528,-532,-523,-618,-1000,-1035,36,1039,753,-507,-1466,-1462,-940,-574,-350,-266,-236,-217,-194,-185,-176,-167,-161,-155,-122,-103,-70,-25,8,36,76,119,145,156,139,96,11,-89,-179,-259,-298,-285,-265,-261,-228,-185,-154,-121,-102,-94,-75,-55,-45,-27,-1,27,47,71,91,108,103,120,130,154,165,218,252,241,284,338,360,345,319,299,281,266,256,266,282,269,72,-338,22,1285,1775,992,-326,-889,-602,-58,230,404,436,434,442,468,462,455,430,425,443,454,444,442,468,499,498,509,510,498,502,494,436,322,219,141,80,49,36,29
2018-05-17,10:39:52.681,54,71,80,82,85,80,78,77,96,113,98,99,114,135,153,170,170,185,204,210,229,227,214,245,307,302,276,234,197,172,166,169,160,162,148,3,-382,-301,745,1452,1027,-141,-833,-782,-324,-15,144,208,232,235,232,240,241,242,235,243,233,249,261,251,269,287,290,290,281,281,259,187,87,-2,-82,-129,-149,-157,-160,-136,-141,-141,-143,-139,-130,-109,-83,-74,-96,-91,-77,-72,-62,-28,-20,-19,-9,-2,-15,-12,-21,-19,9,46,47,31,11,13,1,-27,-39,-52,-56,-53,-191,-564,-377,713,1349,857,-308,-951,-830,-389,-119,33,66,67,87,89,87,89
2018-05-17,10:39:53.718,96,105,90,97,130,142,158,180,198,204,210,218,219,176,130,32,-55,-124,-169,-179,-197,-213,-197,-181,-181,-180,-178,-150,-130,-141,-143,-121,-114,-109,-91,-86,-100,-104,-108,-112,-98,-83,-80,-69,-55,-55,-57,-8,26,15,-28,-63,-66,-73,-92,-93,-94,-90,-157,-527,-742,202,1367,1288,77,-1042,-1179,-699,-292,-52,71,84,89,101,102,91,81,88,108,150,155,162,156,171,197,226,234,206,195,166,108,27,-92,-195,-265,-294,-312,-316,-295,-285,-260,-232,-229,-234,-201,-178,-159,-144,-154,-152,-135,-136,-139,-144,-128,-134,-139,-149,-132,-122,-126,-101,-48,-21,-37,-76,-103,-111
2018-05-17,10:39:54.755,-114,-117,-110,-93,-96,-216,-614,-585,512,1341,971,-250,-1027,-1010,-573,-250,-76,10,11,28,43,52,67,63,42,52,57,60,65,90,88,100,117,118,117,113,77,24,-55,-120,-180,-226,-265,-298,-313,-300,-280,-261,-253,-269,-269,-260,-277,-272,-259,-266,-260,-250,-256,-236,-235,-242,-255,-259,-243,-223,-227,-244,-214,-192,-193,-225,-259,-270,-269,-258,-262,-260,-279,-346,-703,-871,29,1035,878,-214,-1185,-1340,-933,-496,-270,-161,-128,-131,-137,-157,-157,-138,-118,-107,-81,-61,-54,-62,-43,-20,-5,-11,1,6,2,-36,-103,-211,-308,-350,-360,-379,-378,-340,-299,-281,-266,-248,-216,-211,-191,-181
2018-05-17,10:39:55.793,-168,-153,-134,-107,-109,-113,-90,-81,-68,-47,-42,-19,5,-2,12,67,102,117,91,66,58,76,86,73,73,86,0,-436,-556,584,1715,1476,189,-806,-851,-383,-45,175,250,260,281,300,301,283,293,303,322,348,359,345,367,395,404,416,442,452,436,393,357,310,225,125,69,33,23,21,17,28,43,46,44,52,57,63,72,73,88,87,95,94,90,97,104,100,77,77,96,96,85,132,199,235,225,167,119,129,124,114,97,89,97,-38,-493,-413,810,1520,947,-350,-1070,-956,-383,-6,181,261,281,271,281,277,278,290,285,280,280,274,271,273,304,316
2018-05-17,10:39:56.830,321,306,312,313,304,266,186,94,22,-45,-85,-83,-89,-99,-76,-61,-51,-43,-35,-18,-24,-31,-23,-19,-12,-12,-9,15,17,21,8,43,53,27,48,101,114,104,71,56,51,29,13,23,18,2,-82,-455,-569,386,1275,1036,-71,-860,-897,-548,-236,-64,12,39,47,27,36,58,61,52,31,19,4,-2,0,16,35,48,52,59,58,38,0,-75,-149,-229,-297,-354,-376,-390,-392,-380,-360,-329,-323,-330,-325,-329,-322,-320,-359,-458,-465,-450,-431,-412,-412,-409,-409,-371,-348,-352,-326,-271,-226,-229,-259,-271,-263,-263,-264,-229,-214,-216,-335,-720,-638,489,1189,680,-583,-1349
2018-05-17,10:39:57.867,-1205,-593,-237,-38,26,51,54,51,64,60,66,78,74,89,108,130,170,198,215,238,258,273,269,238,163,63,-25,-99,-167,-205,-202,-186,-171,-151,-131,-135,-123,-100,-83,-79,-79,-76,-70,-53,-41,-31,0,5,9,36,40,59,50,54,85,122,135,131,84,67,60,72,93,76,77,62,-154,-594,-247,1099,1692,946,-421,-1019,-775,-234,44,187,205,230,238,240,217,226,241,271,268,278,281,288,295,306,340,361,376,373,355,332,292,200,95,25,-27,-60,-86,-97,-76,-50,-17,-21,-17,-11,4,18,22,24,31,35,14,2,-4,-2,-6,15,20,28,68,121
2018-05-17,10:39:58.904,116,95,73,49,39,32,34,42,30,6,-167,-509,-218,832,1212,603,-485,-961,-811,-339,-28,135,169,177,185,180,189,176,184,178,176,207,211,206,214,231,260,264,276,259,241,215,161,78,2,-50,-83,-98,-101,-108,-102,-81,-71,-75,-82,-84,-81,-93,-87,-85,-66,-45,-45,-40,-38,-46,-51,-33,-34,-51,-13,45,80,56,7,-13,-14,-24,-7,-27,-39,-48,-223,-624,-450,700,1451,1011,-175,-866,-782,-368,-105,45,93,126,133,140,141,143,155,160,161,178,202,211,200,206,228,238,228,221,225,207,157,92,18,-40,-86,-130,-150,-157,-163,-173,-181,-185,-191,-208
2018-05-17,10:39:59.941,-222,-218,-215,-240,-237,-248,-241,-259,-285,-290,-321,-333,-331,-360,-367,-323,-323,-367,-427,-462,-471,-470,-484,-517,-543,-558,-660,-1122,-1203,-58,867,451,-876,-1792,-1773,-1192,-803,-591,-533,-511,-492,-483,-482,-471,-464,-477,-469,-463,-461,-450,-414,-395,-375,-352,-353,-349,-345,-380,-390,-477,-582,-605,-645,-663,-668,-660,-635,-613,-598,-576,-553,-513,-497,-494,-489,-487,-456,-411,-382,-360,-338,-334,-329,-287,-263,-266,-204,-148,-132,-145,-164,-164,-151,-124,-127,-114,-80,-66,-215,-606,-472,722,1442,965,-254,-877,-759,-312,-20,158,223,248,270,302,321,333,351,364,394,401,406,432,454,475,490,507,554,564
2018-05-17,10:40:00.979,553,548,507,432,344,291,272,244,249,254,240,253,279,291,298,299,305,309,310,319,308,305,316,319,320,329,343,346,326,321,360,382,371,347,301,284,290,289,276,266,259,197,-118,-271,542,1443,1278,268,-624,-729,-333,40,232,305,294,294,320,318,302,304,292,281,284,282,290,297,315,349,345,354,362,351,326,278,196,95,31,-23,-45,-42,-43,-39,-45,-23,-7,-7,2,12,10,3,12,22,32,34,33,28,12,7,31,32,21,85,133,147,120,82,66,52,52,44,32,27,3,-234,-630,-176,1105,1605,825,-467,-997,-700,-228,1,114,121,140,144
2018-05-17,10:40:02.016,149,146,132,149,161,174,170,195,222,244,270,286,286,296,292,276,240,172,59,-21,-73,-102,-123,-127,-138,-131,-117,-102,-96,-103,-92,-82,-78,-53,-46,-43,-46,-25,-19,-20,-24,-19,1,-20,-8,64,92,84,26,-18,-35,-47,-46,-32,-40,-51,-127,-512,-732,272,1461,1281,10,-1134,-1273,-683,-215,12,115,127,147,156,138,121,121,171,181,180,180,193,212,232,242,255,283,290,256,204,160,69,-43,-142,-212,-245,-254,-243,-228,-194,-180,-151,-132,-118,-112,-103,-114,-107,-98,-100,-92,-101,-113,-111,-85,-78,-73,-25,7,14,-14,-46,-51,-58,-77,-89,-99,-96,-105,-374
2018-05-17,10:40:03.053,-705,-14,1149,1245,295,-809,-1055,-709,-287,-68,43,67,77,67,71,78,67,77,79,101,136,150,149,175,189,194,209,222,221,173,126,53,-35,-114,-173,-211,-221,-229,-217,-188,-171,-139,-119,-112,-107,-94,-100,-113,-109,-93,-103,-104,-102,-91,-53,-57,-59,-10,23,40,20,-36,-61,-69,-64,-74,-71,-55,-86,-333,-625,-78,1001,1155,353,-730,-1041,-738,-298,-83,39,54,79,101,91,90,89,87,108,110,115,120,142,163,172,189,209,202,188,153,101,42,-41,-110,-167,-209,-223,-219,-216,-209,-197,-174,-159,-136,-112,-101,-77,-73,-60,-53,-61,-55,-26,-34,-37,-35,-47,-21
2018-05-17,10:40:04.090,43,77,65,8,-20,-11,-3,-21,-22,-21,-23,-153,-575,-513,601,1453,1078,-160,-1018,-923,-419,-145,21,55,81,90,89,78,91,90,105,112,105,105,121,148,173,201,229,244,243,240,215,146,57,-19,-82,-141,-177,-185,-187,-187,-180,-162,-136,-127,-129,-113,-108,-114,-99,-80,-64,-75,-86,-82,-81,-72,-65,-75,-61,-7,22,14,-26,-64,-72,-54,-62,-74,-79,-77,-203,-628,-564,603,1409,905,-427,-1248,-1076,-492,-162,19,83,95,107,120,111,103,107,117,123,145,157,172,184,201,222,228,222,206,203,172,89,-6,-109,-187,-233,-259,-247,-228,-223,-218,-210,-197,-177,-175
2018-05-17,10:40:05.127,-164,-152,-132,-113,-88,-83,-75,-81,-73,-50,-41,-29,19,36,30,1,-21,-26,-32,-35,-30,-22,-28,-81,-406,-598,267,1200,1056,33,-858,-952,-563,-204,-20,83,108,102,103,113,122,136,148,143,136,153,175,190,211,237,243,247,256,251,239,186,103,16,-74,-112,-124,-139,-153,-148,-145,-140,-144,-171,-178,-154,-149,-124,-108,-99,-99,-80,-97,-128,-126,-119,-143,-163,-123,-114,-139,-188,-231,-253,-272,-286,-303,-315,-339,-466,-836,-856,86,845,462,-687,-1462,-1461,-1059,-775,-623,-593,-597,-611,-647,-664,-671,-671,-689,-696,-705,-708,-699,-691,-692,-691,-690,-680,-680,-707,-727,-791,-883,-989
2018-05-17,10:40:06.164,-1067,-1099,-1118,-1129,-1127,-1116,-1093,-1041,-1015,-982,-960,-943,-917,-905,-892,-858,-804,-761,-729,-721,-693,-630,-600,-600,-507,-469,-452,-469,-471,-460,-450,-448,-435,-419,-387,-410,-712,-900,-67,1032,1028,32,-1019,-1174,-701,-300,-61,51,59,88,141,167,202,230,246,272,305,341,348,385,430,455,485,518,544,545,548,543,487,391,313,275,245,235,246,265,305,350,373,393,406,416,413,428,433,454,458,465,478,477,490,526,553,533,534,605,655,642,616,577,547,554,556,556,535,522,473,139,-84,779,1869,1742,614,-420,-583,-145,275,491,575,577,583,586,583,566,566,580,589,593
2018-05-17,10:40:07.202,611,611,612,644,664,651,636,643,647,616,565,487,373,272,209,177,163,173,183,180,187,173,183,205,195,187,182,170,168,202,230,209,215,226,223,215,263,302,308,297,257,224,203,196,197,180,173,161,-10,-351,-68,995,1376,770,-325,-742,-584,-198,42,178,236,237,257,268,256,236,241,247,241,250,255,249,265,269,277,291,309,311,281,232,184,119,39,-28,-72,-91,-110,-102,-89,-104,-105,-80,-45,-33,-32,-37,-18,2,8,10,6,1,2,18,24,14,62,129,131,110,66,18,1,4,-21,-14,-7,-26,-212,-583,-288,850,1353,718,-472,-983,-765,-336
2018-05-17,10:40:08.239,-95,42,38,40,41,23,13,32,43,52,64,79,84,110,133,150,156,168,168,172,153,99,8,-91,-173,-264,-306,-304,-315,-330,-320,-286,-256,-250,-263,-252,-230,-223,-220,-213,-211,-220,-206,-191,-176,-155,-146,-144,-118,-46,-24,-42,-58,-79,-88,-94,-99,-99,-93,-106,-206,-606,-718,312,1346,1042,-191,-1162,-1156,-643,-289,-61,21,14,26,36,48,48,41,40,40,47,57,77,106,137,149,133,119,102,74,59,13,-49,-149,-257,-308,-334,-337,-328,-307,-276,-263,-274,-281,-263,-227,-229,-219,-214,-203,-207,-210,-204,-203,-186,-170,-173,-160,-92,-63,-55,-77,-112,-100,-102,-101,-123
2018-05-17,10:40:09.276,-118,-130,-209,-612,-634,461,1346,952,-304,-1081,-1027,-560,-226,-36,39,54,61,62,67,65,70,92,104,100,115,140,145,168,186,191,212,205,189,154,93,1,-97,-170,-216,-235,-230,-228,-219,-198,-189,-188,-174,-138,-120,-120,-107,-100,-95,-93,-87,-88,-52,-55,-74,-41,22,44,40,21,11,16,15,25,24,32,18,-137,-477,-225,809,1234,656,-452,-882,-717,-299,-53,87,118,125,150,170,169,156,157,177,184,188,199,213,227,236,250,257,259,260,244,223,139,54,-15,-77,-116,-137,-129,-139,-127,-113,-103,-88,-81,-73,-65,-71,-61,-68,-28,-2,-30,-8,6,2,23
2018-05-17,10:40:10.313,10,6,48,79,87,67,45,12,-4,13,11,20,32,-19,-359,-579,225,1330,1318,225,-915,-1072,-591,-206,33,103,100,102,97,121,144,138,119,112,117,135,140,163,195,213,215,222,224,216,202,161,67,-40,-114,-172,-216,-221,-235,-221,-207,-181,-179,-170,-159,-152,-137,-118,-79,-68,-78,-85,-64,-52,-47,-16,-27,-39,4,43,39,13,0,-24,-16,-28,-24,-28,-15,-79,-453,-575,375,1357,1085,-140,-1115,-1149,-632,-247,-37,20,18,24,11,-4,-7,-14,-29,-41,-45,-41,-47,-58,-47,-42,-24,-17,-21,-40,-111,-186,-284,-400,-493,-551,-599,-638,-655,-662,-642,-663,-667,-670
2018-05-17,10:40:11.350,-683,-689,-681,-679,-689,-689,-676,-673,-668,-684,-668,-645,-641,-597,-562,-551,-571,-605,-637,-635,-630,-641,-636,-620,-611,-814,-1129,-636,473,760,-5,-1123,-1442,-1189,-776,-506,-370,-339,-316,-305,-290,-287,-288,-274,-237,-199,-165,-143,-126,-110,-69,-24,10,8,16,26,12,-34,-97,-159,-216,-248,-244,-228,-216,-206,-186,-158,-136,-121,-110,-77,-59,-48,-15,29,31,30,80,127,133,147,214,231,219,205,181,152,153,168,185,196,176,69,-254,-192,745,1413,1088,40,-601,-534,-125,137,303,365,382,402,415,417,407,397,409,429,429,432,453,468,477,495,499,508,512,511,475,420,322,237
2018-05-17,10:40:12.388,173,108,49,28,51,42,39,78,95,103,94,92,103,121,143,128,117,125,112,96,111,112,98,159,201,186,171,127,81,68,74,76,53,41,3,-287,-618,14,1223,1440,518,-672,-985,-614,-241,-8,103,104,103,110,122,117,111,128,105,111,116,141,170,208,215,226,220,213,228,206,162,90,-18,-118,-183,-221,-228,-212,-212,-191,-172,-165,-167,-154,-135,-126,-113,-99,-88,-83,-52,-33,-42,-18,-8,-19,45,106,107,97,69,48,65,78,54,55,60,45,-135,-496,-108,1042,1387,620,-568,-972,-701,-186,86,250,309,338,330,318,314,302,304,311,305,300,305,303
2018-05-17,10:40:13.425,311,327,339,351,344,341,349,306,215,114,47,0,-31,-53,-61,-61,-46,-37,-29,-11,-13,-30,-19,4,12,25,29,27,21,41,67,51,51,105,144,162,150,122,95,77,77,83,76,87,49,-234,-408,307,1211,1162,263,-623,-731,-407,-100,90,184,178,173,207,224,206,190,192,220,244,247,239,250,284,309,308,326,338,329,304,247,165,65,-18,-80,-117,-107,-106,-98,-85,-64,-61,-74,-68,-60,-62,-55,-47,-49,-37,-41,-36,-36,-19,-19,-26,48,89,81,67,14,-18,-4,14,0,-9,-8,-42,-309,-589,23,1125,1222,299,-810,-1075,-667,-235,10,130,158,162
2018-05-17,10:40:14.462,178,194,200,202,192,187,180,191,201,205,208,225,246,261,263,259,238,180,62,-42,-112,-178,-213,-208,-213,-204,-196,-199,-208,-181,-182,-175,-161,-158,-151,-127,-115,-113,-103,-99,-89,-70,-74,-49,14,34,6,-17,-26,-26,-40,-58,-64,-52,-74,-261,-738,-461,858,1546,850,-494,-1127,-882,-381,-101,32,67,72,82,88,94,91,92,107,120,129,153,173,171,183,208,235,241,242,213,154,74,-30,-130,-200,-241,-263,-276,-270,-258,-228,-201,-189,-177,-168,-153,-139,-141,-125,-116,-114,-103,-83,-78,-92,-53,5,12,-2,-22,-53,-65,-73,-62,-61,-60,-87,-198,-572,-502,537,1150
2018-05-17,10:40:15.499,696,-432,-982,-896,-465,-143,33,79,78,96,114,129,142,152,155,158,152,167,198,192,197,217,226,228,214,198,157,90,-3,-76,-136,-178,-195,-193,-194,-198,-180,-170,-167,-158,-144,-134,-126,-126,-110,-127,-134,-142,-126,-85,-95,-119,-87,-71,-55,-100,-151,-184,-200,-174,-160,-191,-215,-304,-659,-783,55,942,785,-195,-1039,-1112,-781,-528,-373,-342,-342,-345,-353,-354,-356,-355,-373,-373,-371,-354,-370,-374,-352,-346,-336,-348,-372,-379,-370,-418,-516,-614,-671,-717,-753,-773,-775,-782,-765,-737,-739,-728,-711,-683,-676,-662,-630,-610,-611,-603,-593,-569,-544,-547,-501,-409,-392,-389,-385,-381,-389,-383
2018-05-17,10:40:16.536,-362,-330,-326,-322,-402,-787,-795,332,1193,752,-523,-1337,-1191,-619,-269,-64,0,28,63,63,67,88,115,143,154,186,217,223,235,263,290,306,315,311,303,289,241,135,40,-40,-73,-94,-100,-91,-56,-23,-21,-12,16,19,24,39,42,60,83,91,103,107,105,111,129,141,208,238,223,196,165,142,148,154,157,152,127,25,-369,-440,647,1624,1283,32,-804,-786,-326,-7,177,221,240,254,262,271,290,299,307,310,304,303,312,339,340,367,382,394,390,380,339,280,210,132,59,-6,-44,-51,-36,-24,-6,23,23,34,39,46,42,42,41,52,75,93,80,107
2018-05-17,10:40:17.574,126,113,158,194,188,153,128,116,123,119,124,121,93,54,-181,-399,171,1089,1124,337,-582,-766,-468,-67,150,251,265,283,278,282,282,293,314,336,341,352,357,367,383,399,421,431,414,388,374,301,232,153,99,65,33,4,-7,-26,-30,-21,0,1,-8,-3,0,11,15,20,23,26,18,5,6,19,9,33,70,92,93,35,-4,-34,-26,-36,-68,-63,-63,-249,-642,-379,736,1260,695,-488,-1065,-851,-435,-202,-65,-29,-25,-22,-25,-44,-32,-17,-19,-27,-25,-18,-20,-11,-4,17,60,70,70,75,52,-33,-138,-229,-308,-344,-370,-387,-390,-364,-333,-308,-305,-302
2018-05-17,10:40:18.611,-292,-260,-241,-235,-227,-226,-219,-215,-207,-189,-145,-119,-126,-83,-35,-14,-31,-54,-75,-92,-97,-103,-85,-78,-91,-247,-677,-423,885,1465,724,-636,-1254,-932,-362,-59,144,202,211,213,221,218,208,201,210,233,263,290,286,288,298,306,320,317,287,268,235,153,52,-26,-85,-134,-167,-178,-166,-152,-133,-110,-109,-105,-83,-66,-67,-55,-46,-30,-9,-29,-27,10,-3,11,85,118,121,92,58,44,35,29,30,41,41,-47,-389,-439,494,1315,1079,-13,-796,-797,-375,-64,114,173,183,197,203,216,215,208,208,222,245,251,256,247,250,276,289,295,316,322,276,220,138,63
2018-05-17,10:40:19.648,1,-54,-74,-92,-97,-87,-100,-80,-63,-54,-64,-59,-29,-21,-15,-1,-3,2,-4,15,21,16,62,97,106,78,45,28,11,-12,-19,-16,4,-5,-252,-529,19,1013,1130,345,-681,-966,-663,-243,-5,121,140,152,152,154,148,151,149,176,162,183,208,215,236,269,293,286,254,237,215,165,93,-17,-108,-167,-203,-208,-202,-178,-173,-161,-139,-135,-133,-125,-124,-131,-116,-108,-120,-121,-119,-133,-122,-77,-80,-62,-3,42,21,-23,-47,-72,-74,-63,-79,-75,-76,-294,-741,-358,922,1448,691,-617,-1173,-873,-409,-147,-3,14,25,24,13,25,34,24,15,31,34,51,83,92
2018-05-17,10:40:20.685,102,124,129,141,142,119,76,-8,-87,-174,-228,-274,-309,-317,-318,-311,-290,-277,-274,-261,-256,-247,-224,-214,-225,-223,-213,-197,-206,-198,-167,-147,-133,-74,-24,-35,-52,-74,-88,-97,-90,-113,-118,-112,-128,-380,-705,-123,1019,1118,210,-884,-1141,-789,-317,-64,53,79,94,101,105,103,118,124,119,131,141,156,178,193,213,241,244,229,204,190,141,67,-12,-83,-124,-150,-165,-183,-187,-196,-185,-165,-138,-133,-123,-113,-110,-91,-72,-64,-48,-35,-43,-16,-25,-27,30,70,76,57,42,26,8,9,-4,-9,-5,-57,-315,-512,125,1080,1126,294,-620,-773,-481,-142,26,130,145,157
2018-05-17,10:40:21.722,154,165,171,170,171,177,169,164,192,214,236,247,262,270,249,240,232,160,65,-30,-95,-129,-155,-177,-205,-209,-205,-206,-218,-230,-234,-228,-227,-247,-250,-266,-271,-285,-303,-325,-330,-329,-342,-315,-264,-252,-292,-378,-425,-442,-453,-450,-487,-516,-514,-705,-1117,-871,341,855,135,-1125,-1701,-1437,-905,-595,-423,-378,-363,-362,-369,-373,-379,-382,-343,-338,-316,-273,-239,-247,-258,-249,-230,-221,-242,-269,-303,-371,-461,-535,-588,-608,-619,-610,-583,-551,-539,-515,-499,-473,-447,-423,-405,-371,-339,-319,-288,-275,-255,-247,-204,-164,-143,-93,-29,-3,-18,-32,-34,-14,-19,-37,0,34,45,-205,-599,-63
2018-05-17,10:40:36.333,28,93,95,97,120,132,123,112,106,93,89,103,145,158,180,207,217,224,239,217,179,72,-15,-128,-216,-260,-279,-279,-289,-294,-297,-289,-256,-220,-169,-165,-188,-192,-203,-207,-177,-197,-202,-141,-104,-99,-103,-136,-149,-142,-147,-152,-143,-124,-207,-630,-675,366,1297,1024,-192,-1030,-1059,-627,-264,-59,6,13,10,-3,-28,-50,-40,-29,-36,-38,-21,12,39,60,68,86,102,98,89,39,-49,-141,-224,-288,-326,-353,-352,-359,-366,-341,-327,-324,-306,-296,-295,-283,-264,-231,-198,-185,-199,-122,-73,-71,-84,-106,-125,-114,-92,-81,-82,-76,-112,-322,-481,140,979,951,146,-722,-850,-548
2018-05-17,10:40:37.882,-187,18,130,143,153,167,160,164,176,190,189,205,218,249,256,263,286,316,331,346,337,314,243,174,90,22,-12,-47,-67,-82,-79,-70,-57,-21,-29,-45,-34,-26,-10,15,36,62,82,67,115,155,152,119,84,48,51,63,72,80,79,66,-227,-555,193,1507,1641,517,-707,-982,-588,-121,139,250,270,270,270,271,266,273,292,298,287,286,302,316,341,363,370,384,376,381,364,277,146,37,-61,-147,-182,-184,-189,-197,-196,-168,-171,-150,-138,-126,-109,-76,-79,-80,-59,-43,-84,-38,43,43,2,-27,-31,-39,-69,-98,-94,-84,-137,-395,-829,-415,956,1377,445,-918
2018-05-17,10:40:38.920,-1399,-1015,-469,-220,-57,-34,-35,-23,-39,-66,-61,-47,-43,-50,-55,-40,-38,-35,-16,22,20,37,22,-5,-49,-134,-256,-338,-401,-441,-453,-451,-436,-413,-400,-389,-353,-329,-345,-337,-328,-325,-307,-285,-258,-237,-195,-173,-150,-135,-137,-174,-185,-164,-155,-157,-154,-287,-633,-371,715,1177,594,-498,-944,-801,-378,-107,32,89,101,109,110,119,118,127,126,145,160,188,195,205,250,280,283,269,270,246,205,135,73,13,-37,-57,-63,-67,-39,-17,0,4,-11,15,41,46,55,46,71,95,92,112,166,198,185,173,138,118,121,118,118,92,125,77,-302,-516,274,1359,1368,372
2018-05-17,10:40:39.957,-670,-798,-386,-44,149,194,158,172,199,264,279,294,360,377,348,339,347,319,325,352,373,378,377,363,329,276,196,107,31,-29,-60,-64,-75,-69,-56,-38,-40,-57,-34,9,17,39,61,67,64,53,35,59,149,158,127,92,46,22,-4,-17,-15,-15,-20,-210,-676,-417,967,1713,961,-498,-1153,-915,-387,-105,74,128,122,123,137,153,156,173,160,168,168,180,197,197,210,239,248,250,238,238,202,122,36,-39,-116,-167,-194,-192,-173,-172,-171,-158,-140,-98,-95,-93,-79,-75,-76,-62,-67,-81,-22,23,-13,-20,-28,-12,-59,-172,-70,-41,-45,-30,-256,-606,-96,1026
2018-05-17,10:40:40.994,1217,400,-704,-938,-652,-239,-27,98,127,117,116,132,142,126,124,127,137,120,129,157,157,167,170,192,182,192,153,123,53,-24,-99,-138,-148,-161,-137,-124,-126,-134,-126,-130,-140,-132,-118,-97,-112,-119,-87,-69,-73,-37,2,6,-4,-27,-68,-90,-97,-92,-83,-83,-104,-351,-687,-183,1024,1347,490,-764,-1155,-860,-387,-136,10,61,71,62,65,78,94,111,98,107,131,138,163,171,176,194,206,235,254,242,197,139,47,-34,-96,-134,-172,-175,-176,-160,-184,-229,-177,-93,-106,-118,-146,-80,-28,-6,-17,-64,-87,0,54,29,-25,-66,-116,-119,-70,-42,-33,-3,-87,-548
2018-05-17,10:40:42.031,-640,572,1688,1308,-150,-1029,-947,-496,-195,22,80,76,93,94,74,71,62,65,80,93,124,156,187,240,285,287,299,296,259,212,135,-1,-127,-220,-254,-293,-316,-313,-299,-297,-288,-273,-275,-270,-262,-258,-241,-254,-252,-226,-188,-204,-173,-111,-106,-124,-143,-167,-178,-174,-176,-174,-151,-161,-369,-724,-342,806,1165,438,-726,-1159,-915,-388,-84,72,96,107,132,126,110,126,147,145,148,122,115,108,115,150,180,166,97,44,128,161,98,-24,-112,-154,-96,-148,-193,-158,-142,-146,-172,-191,-214,-226,-185,-148,-117,-97,-84,-98,-105,-62,-9,0,-18,-75,-136,-146,-127,-132,-154,-157
2018-05-17,10:40:43.068,-181,-395,-731,-361,643,942,327,-649,-986,-832,-509,-307,-168,-153,-151,-140,-147,-152,-173,-161,-168,-175,-156,-138,-125,-132,-111,-77,-80,-83,-100,-114,-169,-245,-322,-398,-464,-495,-499,-495,-503,-498,-493,-488,-475,-474,-465,-452,-433,-408,-389,-374,-341,-346,-378,-303,-260,-225,-222,-247,-252,-246,-229,-210,-217,-210,-230,-504,-772,-79,1081,1150,157,-966,-1217,-800,-341,-73,59,83,98,36,67,153,174,132,128,145,252,290,277,321,311,287,326,321,338,335,290,231,144,37,-36,-46,-86,-97,-90,-80,-43,-19,-9,0,0,25,43,37,51,73,67,78,162,191,178,150,124,125,105,93
2018-05-17,10:40:44.105,123,114,117,45,-360,-467,625,1671,1372,106,-830,-884,-421,-29,191,271,263,263,274,272,284,288,282,297,304,318,335,352,349,343,369,368,352,334,309,262,174,70,-23,-73,-103,-96,-97,-68,-63,-41,-22,-19,1,21,36,31,71,73,67,56,104,166,180,151,117,94,89,89,78,81,74,51,-177,-514,-46,1083,1369,604,-523,-883,-621,-204,-4,119,151,165,196,224,233,227,239,244,246,260,269,274,305,330,345,361,338,297,282,256,195,108,10,-28,-37,-63,-75,-61,-66,-82,-71,-78,-75,-83,-105,-106,-114,-131,-94,-79,-82,-33,6,22,-1,-53,-114,-148
2018-05-17,10:40:45.143,-155,-175,-201,-206,-234,-543,-882,-203,1053,1234,203,-1043,-1381,-1006,-591,-383,-284,-261,-241,-246,-268,-267,-251,-226,-219,-230,-218,-193,-159,-136,-130,-102,-76,-66,-89,-146,-204,-257,-355,-426,-471,-496,-478,-469,-435,-417,-434,-413,-365,-371,-369,-337,-295,-293,-287,-239,-251,-242,-171,-152,-157,-163,-198,-257,-314,-285,-223,-161,-130,-204,-631,-807,301,1519,1277,-110,-1231,-1254,-680,-260,-5,83,96,117,132,143,139,159,195,208,214,217,228,263,303,307,293,332,371,343,323,285,196,101,38,15,13,0,3,33,33,37,63,71,94,103,78,80,102,134,131,105,139,205,215,193,179,165
2018-05-17,10:40:46.180,190,180,169,165,149,141,-19,-401,-173,955,1509,903,-306,-816,-668,-211,90,251,305,297,306,322,313,312,304,304,343,350,346,347,351,356,366,372,353,325,301,251,201,169,112,64,39,28,7,8,20,34,25,-2,-20,16,40,45,56,48,49,61,68,83,121,134,84,84,87,65,60,71,64,36,18,-140,-564,-320,899,1567,974,-340,-932,-733,-265,-38,96,116,125,145,146,144,140,130,137,151,141,146,179,203,207,205,199,198,188,162,144,91,44,-7,-57,-93,-100,-128,-138,-128,-133,-139,-141,-140,-128,-112,-104,-105,-94,-77,-59,-80,-68,-4,-7,-23
2018-05-17,10:40:47.217,-54,-76,-96,-113,-124,-131,-117,-122,-266,-712,-591,717,1532,873,-551,-1356,-1210,-594,-165,61,120,123,137,133,153,165,146,138,151,161,181,175,197,248,273,274,287,296,272,200,93,-36,-140,-274,-326,-361,-376,-175,-116,-199,-246,-133,-125,-184,-52,-67,-121,-100,-22,-17,-43,-27,24,58,31,-22,-1,17,-52,-51,-3,-12,-28,-132,-575,-574,592,1443,959,-317,-998,-915,-445,-137,22,72,61,57,70,75,74,76,62,58,77,80,70,81,117,139,140,130,102,83,24,-48,-115,-177,-229,-274,-278,-282,-295,-304,-279,-271,-278,-281,-284,-282,-291,-289,-252,-246,-249,-239,-177,-145
2018-05-17,10:40:48.254,-152,-196,-231,-246,-264,-264,-256,-259,-269,-314,-581,-697,66,852,670,-225,-989,-1035,-668,-312,-123,-45,-28,-33,-30,-19,-22,-25,-13,-9,-36,-54,-76,-64,-113,36,107,59,108,91,46,-68,-88,-57,-159,-235,-280,-290,-276,-240,-206,-167,-125,-126,-115,-101,-116,-116,-95,-80,-39,-41,-39,19,26,31,-2,-45,-67,-61,-65,-52,-65,-99,-248,-654,-478,730,1456,871,-374,-1019,-873,-428,-144,14,33,18,13,22,9,6,12,32,40,38,58,79,94,116,133,143,129,125,106,60,-39,-174,-258,-316,-342,-371,-385,-389,-365,-344,-340,-338,-325,-300,-256,-254,-279,-264,-239,-230,-184,-100
2018-05-17,10:40:49.291,-104,-135,-161,-183,-183,-180,-165,-153,-152,-158,-295,-663,-394,770,1270,565,-710,-1265,-1033,-468,-146,25,73,74,65,65,64,40,23,51,134,116,145,200,169,210,233,218,186,187,163,122,82,11,-74,-140,-197,-193,-190,-177,-167,-167,-136,-117,-130,-123,-89,-88,-72,-50,-48,-33,40,65,52,32,10,-21,-15,-1,28,39,47,11,-279,-496,235,1197,1117,167,-676,-772,-453,-117,82,195,210,182,194,209,203,207,220,243,243,239,238,246,254,272,301,319,317,302,273,219,132,43,-19,-52,-87,-98,-92,-88,-77,-80,-58,-49,-46,-28,-1,4,11,45,65,59,108,168
2018-05-17,10:40:50.329,196,192,167,132,123,118,100,86,77,31,-301,-573,252,1368,1313,229,-711,-812,-450,-137,87,135,215,275,272,236,206,191,170,188,224,261,330,354,352,356,350,353,356,345,315,244,160,85,31,-29,-72,-85,-78,-51,-47,-67,-54,-53,-62,-59,-49,-38,-23,4,10,18,100,151,176,155,115,71,60,56,50,47,34,-60,-490,-648,474,1624,1310,-106,-1064,-1071,-578,-211,-41,29,40,61,70,67,63,64,67,62,71,74,84,98,119,104,91,68,26,-35,-78,-184,-304,-387,-439,-478,-503,-525,-543,-561,-575,-587,-605,-600,-579,-581,-570,-565,-555,-555,-589,-552,-520,-531
2018-05-17,10:40:51.366,-547,-578,-621,-633,-623,-675,-691,-641,-636,-806,-1088,-797,246,664,20,-1113,-1559,-1354,-913,-637,-488,-412,-355,-325,-311,-308,-314,-331,-324,-312,-284,-279,-260,-241,-237,-217,-202,-171,-186,-196,-221,-272,-318,-341,-347,-350,-370,-357,-332,-294,-267,-266,-266,-256,-230,-192,-172,-140,-88,-55,-45,9,56,74,82,66,67,76,86,99,106,85,29,-307,-451,493,1578,1454,304,-630,-673,-228,118,308,395,415,448,482,478,501,522,527,545,562,569,578,609,636,668,666,655,656,650,617,557,477,428,374,335,316,329,350,333,335,322,320,315,332,354,302,266,364,428,384,345,343,439,514
2018-05-17,10:40:52.403,450,393,376,380,351,312,324,333,287,-30,-420,275,1621,1892,827,-513,-780,-413,9,234,373,407,369,354,367,373,348,344,352,352,365,384,407,411,418,420,420,412,389,357,295,218,146,64,1,-34,-54,-77,-99,-87,-73,-76,-63,-40,-19,7,-23,-21,-3,-38,-51,7,57,68,35,-8,-33,-56,-64,-65,-56,-48,-103,-454,-700,175,1346,1220,15,-1048,-1173,-717,-237,2,108,114,113,112,109,83,94,113,116,106,122,143,140,152,176,176,178,156,140,104,33,-83,-172,-238,-291,-311,-308,-313,-305,-273,-307,-316,-324,-279,-269,-301,-302,-194,-197,-207,-156,-127,-131,-157
2018-05-17,10:40:53.440,-179,-212,-226,-212,-199,-180,-153,-215,-524,-734,-40,888,884,-17,-904,-1026,-739,-390,-205,-116,-109,-121,-102,-104,-98,-88,-72,-53,-53,-36,-12,-1,5,35,74,73,40,16,-17,-93,-167,-210,-259,-306,-298,-284,-289,-264,-251,-230,-213,-202,-202,-229,-230,-223,-224,-205,-209,-204,-147,-112,-101,-126,-149,-159,-146,-141,-150,-147,-161,-275,-716,-598,653,1423,830,-516,-1215,-1057,-473,-134,54,101,120,107,107,128,130,127,129,153,183,199,232,260,258,273,277,277,276,234,123,26,-133,-144,-119,-150,-228,-166,-150,-151,-153,-148,-106,-107,-155,-173,-179,-150,-47,-30,-25,19,45,29,14,-17
2018-05-17,10:40:54.477,-15,6,8,1,11,-12,-87,-470,-746,210,1495,1446,203,-922,-1034,-566,-183,39,123,127,146,181,191,205,227,240,238,211,222,223,242,281,291,292,302,299,259,197,125,48,-29,-120,-206,-220,-198,-192,-202,-174,-153,-133,-129,-118,-99,-123,-117,-92,-70,-51,10,59,74,31,-11,-23,-15,-25,-51,-24,-4,-64,-388,-519,329,1160,920,-84,-854,-877,-463,-100,106,162,182,188,181,120,103,103,68,55,60,72,77,82,78,105,64,79,52,31,-15,-105,-192,-272,-348,-399,-432,-427,-406,-389,-364,-380,-387,-379,-368,-384,-378,-386,-386,-381,-375,-306,-284,-275,-297,-327,-336,-346
2018-05-17,10:40:55.515,-333,-334,-325,-314,-404,-751,-791,81,834,616,-342,-1049,-1044,-682,-402,-237,-183,-165,-148,-161,-163,-150,-134,-107,-95,-83,-71,-47,-4,21,37,61,51,18,-5,-32,-93,-173,-233,-250,-247,-260,-277,-271,-278,-254,-200,-166,-148,-135,-134,-127,-93,-52,-37,-17,44,94,105,86,56,60,49,41,44,39,61,31,-210,-503,184,1338,1377,337,-831,-1052,-568,-130,118,218,234,244,251,259,254,271,289,315,338,352,374,425,434,418,423,477,440,396,368,304,235,127,39,-10,-35,-60,-50,-36,-31,-32,-25,-1,16,12,-2,-4,27,65,84,134,164,164,157,130,75,72,80,100
2018-05-17,10:40:56.552,87,85,89,-215,-531,202,1397,1485,416,-720,-924,-569,-158,61,160,181,181,195,218,236,231,206,202,207,207,230,257,270,288,307,326,321,296,230,167,75,-6,-94,-122,-143,-150,-144,-148,-147,-124,-94,-91,-94,-101,-108,-76,-39,-42,-28,58,69,46,22,20,9,-4,8,32,20,1,-70,-386,-466,400,1218,964,-36,-795,-803,-395,-90,71,121,112,129,127,124,139,140,116,120,123,140,145,166,173,182,175,156,142,112,72,-18,-109,-150,-170,-195,-194,-213,-236,-219,-191,-187,-164,-159,-155,-166,-163,-151,-136,-141,-155,-98,-70,-78,-93,-114,-172,-194,-161,-140,-151,-173
2018-05-17,10:40:57.589,-264,-677,-677,420,1298,955,-282,-1104,-1050,-586,-291,-117,-56,-53,-43,-45,-53,-44,-24,8,40,70,89,116,150,143,170,187,187,180,148,85,-37,-155,-238,-277,-291,-272,-268,-272,-241,-225,-226,-205,-193,-163,-128,-112,-108,-70,-65,-48,12,54,38,6,-40,-84,-79,-104,-162,-100,-62,-80,-415,-754,14,1341,1481,285,-1021,-1180,-716,-266,-2,133,124,121,117,131,156,153,147,159,159,167,194,252,263,255,272,269,244,210,186,138,51,-32,-95,-148,-168,-173,-172,-158,-113,-105,-111,-94,-74,-57,-79,-95,-69,-45,-41,-2,50,49,11,-2,-5,-25,-32,-17,-19,-7,-10,-259
2018-05-17,10:40:58.626,-631,-53,1135,1306,380,-749,-996,-691,-248,-36,96,109,118,131,133,145,156,171,160,168,190,201,196,216,229,244,233,225,207,168,113,28,-35,-79,-101,-87,-60,-69,-85,-74,-58,-38,-52,-61,-49,-31,-40,1,-31,-142,-42,42,55,-43,-28,-52,-9,-10,33,-24,14,21,-253,-562,49,1175,1389,464,-647,-847,-500,-139,18,110,129,93,119,131,117,124,134,143,143,150,176,175,167,160,191,188,178,142,106,48,-27,-84,-142,-190,-200,-216,-219,-227,-232,-221,-206,-202,-195,-186,-186,-197,-184,-181,-214,-222,-134,-123,-159,-178,-199,-222,-223,-241,-255,-267,-243,-396,-889,-718
2018-05-17,10:40:59.663,720,1447,651,-842,-1538,-1295,-664,-325,-89,-10,-12,-11,-6,-16,19,36,29,38,45,61,106,143,148,146,154,162,153,112,18,-103,-214,-280,-344,-376,-397,-406,-408,-338,-334,-279,-251,-301,-243,-202,-222,-236,-215,-186,-171,-86,-64,-54,-86,-120,-148,-126,-126,-137,-130,-118,-249,-671,-481,750,1465,857,-466,-1083,-926,-442,-141,49,117,118,130,159,182,167,168,162,153,179,210,240,262,271,268,281,289,283,237,159,69,-2,-52,-105,-148,-145,-157,-151,-125,-123,-111,-118,-118,-118,-126,-93,-53,-48,-39,10,49,42,-2,-15,-21,-34,-19,5,7,-10,-99,-462,-402,577,1169,773
2018-05-17,10:41:00.700,-312,-832,-726,-305,-14,142,209,225,226,235,240,249,253,259,282,286,292,320,334,325,319,327,351,318,233,163,73,-6,-88,-22,-47,-59,-36,7,-27,-15,1,-77,-75,27,-14,-20,2,46,56,61,125,145,122,80,58,23,13,21,53,41,51,-81,-491,-374,759,1507,1021,-192,-855,-745,-334,-58,103,124,130,154,159,158,153,164,179,187,206,231,236,255,279,292,307,305,294,240,164,70,-19,-102,-168,-207,-219,-203,-188,-193,-194,-163,-143,-139,-137,-156,-167,-140,-104,-105,-60,-22,-15,-2,-17,-37,-63,-89,-69,-45,-61,-76,-254,-673,-357,905,1393,562,-782,-1284
2018-05-17,10:41:01.738,-928,-317,11,178,205,201,189,184,180,172,163,135,36,97,234,326,329,266,242,290,308,308,309,162,-11,-57,-69,-117,-207,-264,-329,-151,-168,-251,-219,-156,-90,-76,-90,-83,-50,-24,-29,24,49,41,15,-9,-28,-21,-21,-29,-44,-67,-113,-426,-590,232,1214,1100,77,-807,-926,-563,-180,37,113,120,135,135,116,118,124,112,107,127,147,179,186,201,220,232,218,207,160,118,32,-50,-134,-192,-228,-256,-296,-264,-240,-254,-278,-239,-213,-204,-194,-204,-189,-170,-156,-145,-103,-122,-132,-165,-213,-246,-249,-258,-280,-280,-273,-435,-738,-481,461,795,214,-833,-1237,-1074,-680,-474
2018-05-17,10:41:02.775,-318,-360,-364,-364,-366,-319,-318,-415,-376,-270,-298,-448,-323,-218,-159,-213,-302,-316,-280,-310,-393,-458,-539,-614,-630,-612,-595,-577,-574,-605,-598,-504,-455,-467,-473,-471,-464,-438,-410,-383,-377,-303,-254,-263,-298,-307,-314,-310,-298,-272,-269,-250,-315,-714,-653,531,1376,891,-415,-1140,-989,-477,-156,31,89,87,99,112,152,181,198,211,216,226,251,269,298,337,391,414,433,428,389,328,217,102,21,-50,-103,-113,-82,-38,-18,32,35,86,103,107,105,134,209,262,242,240,338,336,327,315,269,233,237,251,253,273,298,196,-203,-200,875,1590,1068,-166,-845,-697,-121,201,358,417
2018-05-17,10:41:03.812,446,484,429,405,449,438,423,461,475,496,492,507,543,559,552,546,495,441,376,309,237,159,118,115,113,103,76,89,86,107,94,101,106,88,81,103,131,122,141,183,210,196,206,181,142,123,116,106,120,101,-90,-455,-146,957,1364,765,-333,-731,-565,-200,17,127,123,121,138,143,126,142,142,131,146,148,137,131,120,86,126,166,214,198,171,132,63,-11,-90,-173,-213,-207,-182,-177,-206,-233,-234,-245,-240,-215,-180,-187,-188,-181,-193,-208,-141,-129,-137,-159,-207,-257,-283,-282,-282,-289,-290,-422,-833,-717,364,1091,630,-571,-1292,-1110,-676,-329,-142,-163,-165,-126
2018-05-17,10:41:04.849,-126,-126,-103,-110,-107,-105,-116,-81,-48,-22,3,13,13,19,28,6,-64,-153,-220,-285,-349,-348,-354,-346,-337,-338,-326,-309,-301,-305,-293,-253,-221,-172,-123,-128,-136,-73,-55,-76,-95,-118,-146,-155,-167,-172,-165,-151,-234,-699,-795,493,1627,1168,-371,-1222,-1089,-620,-287,-63,44,35,53,90,97,91,117,151,201,210,184,218,298,343,356,387,394,383,356,273,184,79,2,-50,-51,-63,-62,-30,-33,-5,28,40,49,61,55,53,52,82,90,78,150,178,178,154,113,95,89,83,97,101,99,45,-285,-537,257,1366,1353,249,-793,-897,-485,-80,133,225,240,245,264,271
2018-05-17,10:41:05.886,265,254,248,268,281,289,292,302,297,322,347,339,317,277,216,153,73,14,-22,-36,-40,-50,-60,-51,-49,-43,-38,-54,-50,-33,-12,-20,14,35,22,61,111,120,91,72,45,10,12,-2,-27,-11,-42,-296,-631,-39,1148,1339,408,-744,-1009,-654,-203,43,131,183,199,185,173,169,158,158,197,225,217,217,235,269,279,290,300,306,272,236,160,70,-29,-73,-106,-149,-173,-171,-174,-180,-273,-180,-128,-131,-92,-72,-100,-82,-43,-70,-46,41,43,51,-2,-100,-110,-81,-88,-80,-67,-92,-282,-766,-583,697,1455,827,-539,-1223,-1013,-471,-207,-49,-18,-50,-72,-53,-54,-89
2018-05-17,10:41:06.924,-93,-84,-99,-94,-42,-56,-37,-26,-1,39,18,-20,-77,-177,-276,-396,-498,-553,-561,-563,-578,-588,-570,-536,-538,-543,-536,-504,-491,-508,-514,-498,-488,-482,-394,-346,-370,-384,-398,-389,-409,-432,-406,-358,-343,-452,-872,-850,404,1251,691,-714,-1394,-1281,-645,-251,-38,7,14,25,37,36,55,82,103,138,173,205,231,248,269,256,252,247,232,204,130,43,-13,-61,-108,-145,-134,-146,-140,-100,-99,-95,-59,-33,-51,-45,-15,15,27,31,89,124,136,124,60,56,67,77,85,86,77,35,-277,-459,316,1299,1258,337,-545,-687,-367,-32,134,197,213,214,219,239,241,271,281,273
2018-05-17,10:41:07.961,275,269,261,278,312,315,305,332,339,286,225,161,89,43,2,-41,-67,-54,-32,-37,-33,-31,-28,-37,-36,-18,0,18,21,11,19,72,107,105,92,59,15,2,34,58,43,60,19,-301,-480,292,1170,1057,96,-785,-854,-410,-29,181,230,257,265,235,219,214,217,230,236,259,271,225,258,278,270,256,368,402,355,236,130,51,-38,-112,-163,-187,-161,-135,-131,-105,-107,-115,-105,-106,-96,-84,-79,-69,-58,-32,14,29,36,40,16,-30,-64,-80,-75,-95,-93,-199,-658,-723,504,1632,1239,-242,-1222,-1232,-701,-310,-104,-58,-83,-78,-70,-66,-71,-97,-77,-64,-64,-58
2018-05-17,10:41:08.998,-60,-49,-17,26,27,-15,-40,-70,-141,-252,-379,-453,-501,-529,-543,-576,-577,-534,-509,-478,-444,-441,-440,-414,-398,-361,-340,-355,-291,-252,-221,-224,-254,-274,-288,-260,-239,-232,-239,-275,-564,-806,-60,968,888,-92,-1049,-1243,-782,-357,-88,68,50,-2,59,62,68,37,75,151,174,172,198,238,240,238,254,261,238,205,153,98,15,-33,-71,-99,-113,-101,-86,-67,-32,-38,-22,-16,-24,-11,23,82,91,89,144,158,177,161,105,59,55,51,52,61,78,12,-342,-361,632,1377,1029,-51,-707,-669,-312,-28,124,154,163,168,166,185,182,188,198,210,218,240,282,302,304,331
2018-05-17,10:41:10.035,332,323,299,255,198,104,22,-46,-82,-119,-121,-94,-58,-56,-49,-50,-39,-22,0,21,29,45,44,41,68,131,147,132,89,47,15,12,18,-1,-23,-82,-371,-594,128,1285,1341,284,-851,-1051,-602,-242,19,180,207,204,207,222,227,193,207,210,229,231,250,280,301,345,347,333,332,297,239,152,56,-20,-73,-101,-142,-149,-132,-145,-130,-138,-153,-117,-99,-83,-66,-37,-37,-42,6,50,52,16,-26,-67,-71,-71,-84,-85,-92,-144,-491,-785,116,1374,1275,7,-1048,-1125,-685,-299,-97,6,30,53,84,99,90,88,84,105,117,151,175,185,219,232,231,218,191,134
2018-05-17,10:41:11.072,87,-20,-104,-159,-188,-188,-196,-188,-173,-170,-165,-146,-113,-117,-119,-147,-145,-92,-86,-65,-50,-72,-23,8,-15,-58,-73,-102,-115,-82,-56,-82,-455,-606,270,1137,997,24,-798,-869,-504,-183,-9,46,53,52,69,78,85,89,103,118,139,152,152,171,160,141,155,161,162,153,83,5,-32,-73,-114,-158,-173,-155,-146,-126,-96,-95,-100,-86,-77,-90,-64,-11,-6,-2,51,74,68,55,7,-30,-46,-59,-61,-62,-45,-119,-469,-653,245,1320,1222,35,-994,-1075,-602,-244,-50,18,19,-13,8,3,-14,0,29,25,20,69,76,93,112,102,92,88,81,35,-46,-132,-248,-347
2018-05-17,10:41:12.110,-432,-465,-447,-444,-440,-460,-460,-456,-427,-391,-419,-443,-414,-371,-344,-381,-345,-290,-265,-273,-291,-347,-349,-319,-313,-302,-324,-420,-855,-1045,57,1270,1082,-237,-1216,-1246,-745,-379,-177,-99,-104,-83,-65,-65,-54,-34,-49,-31,-4,20,88,126,164,207,209,188,151,123,72,-21,-120,-192,-248,-292,-285,-264,-252,-243,-232,-236,-204,-169,-152,-141,-117,-74,-58,-30,19,60,77,49,36,27,39,37,25,45,42,-91,-502,-299,863,1449,822,-419,-960,-778,-202,143,317,352,354,354,361,359,363,375,379,379,380,377,399,424,425,421,432,428,387,331,287,202,110,63,46,25,-9,12
2018-05-17,10:41:13.147,44,29,22,20,25,38,25,51,78,73,62,125,158,169,130,109,113,89,63,92,105,92,23,-281,-452,342,1203,1045,59,-704,-744,-409,-137,31,100,104,109,108,105,100,74,61,67,77,104,103,116,142,142,132,134,123,72,-6,-102,-166,-213,-258,-282,-289,-285,-291,-283,-277,-269,-270,-262,-265,-263,-230,-214,-216,-194,-159,-121,-134,-184,-195,-211,-211,-186,-169,-160,-166,-392,-697,-193,839,1006,216,-774,-1039,-684,-251,-2,108,128,119,104,103,112,127,143,86,101,154,133,143,284,248,289,326,323,285,195,98,32,-48,-95,-97,-85,-93,-101,-109,-103,-121,-110,-91
2018-05-17,10:41:25.558,-377,-70,132,108,64,92,79,-5,-100,-166,-132,-89,-17,-19,-45,-58,-50,-44,3,7,21,23,2,-85,-115,-168,-176,-169,-209,-241,-248,-220,-197,-174,-193,-136,-39,-11,-20,37,85,120,110,75,46,30,-1,-11,-11,16,-43,-462,-603,429,1476,1147,-112,-1035,-1076,-533,-143,23,-53,-94,66,81,219,82,-71,44,160,199,254,252,429,598,511,457,462,445,408,297,264,282,222,46,-36,12,112,-24,-48,-41,-145,-27,6,24,121,174,186,228,241,179,157,61,-166,-89,-140,-94,-79,-86,-211,-588,-457,654,1216,600,-593,-1240,-1118,-522,-92,103,180,160,181,163,124,110
2018-05-17,10:41:25.919,104,99,125,146,189,239,263,312,369,347,282,241,196,172,95,1,-104,-187,-192,-227,-258,-212,-207,-201,-193,-254,-264,-220,-84,-77,-178,-282,-216,-196,-158,-164,-303,-301,-219,-253,-261,-201,-108,-243,-620,-556,507,1222,854,-323,-1033,-1054,-427,-79,-104,-75,-28,-88,-147,-160,-107,-37,36,88,40,-88,54,170,120,110,139,112,71,89,-12,-271,-292,-306,-347,-382,-392,-407,-351,-342,-323,-306,-276,-214,-174,-146,-142,-117,-48,-54,-86,-144,-203,-208,-202,-194,-164,-127,-231,-615,-360,851,1335,676,-549,-1011,-767,-258,31,163,199,222,240,262,249,221,226,147,153,195,136,87,299,493
2018-05-17,10:41:26.956,376,258,226,103,124,-57,-164,-15,14,-92,-76,45,35,-16,77,81,95,107,108,216,152,76,43,175,307,288,201,136,37,1,132,100,163,40,-395,-617,274,1556,1737,591,-667,-980,-627,-231,40,83,48,60,109,106,112,91,128,130,135,182,221,249,244,259,286,287,236,235,165,46,-58,-202,-254,-259,-292,-293,-227,-154,-166,-176,-167,-156,-151,-129,-130,-158,-165,-62,-17,-49,-77,-133,-111,-84,-152,-206,-167,-131,-391,-811,-397,823,1217,461,-830,-1290,-1019,-655,-333,-92,-32,-27,-132,-122,57,122,80,56,112,67,39,136,129,28,-95,-44,40,34,20,-26,-203,-253
2018-05-17,10:41:27.994,-266,-198,-203,-159,-138,-279,-223,17,-96,-197,-18,-107,-196,-183,-290,-234,-127,-159,-134,-163,-236,-252,-222,-197,-131,-119,-117,-331,-527,174,965,790,-53,-842,-967,-586,-198,-11,64,42,64,127,166,193,240,286,338,329,346,406,476,471,454,408,361,359,316,266,227,136,37,-30,-17,-151,-222,-179,-64,-53,-93,-133,-190,-203,-200,-23,152,51,-144,61,235,251,140,26,147,211,138,148,111,-457,-680,337,1626,1752,606,-658,-929,-552,-119,55,45,112,131,158,226,326,231,229,303,263,365,336,244,235,179,249,313,189,113,41,-44,-155,-215,-257,-264,-224,-222,-196,-159,-133
2018-05-17,10:41:29.031,-88,-135,-171,-184,-177,-179,-167,-154,-158,-167,-129,-110,-67,-47,-33,-16,-7,-32,-261,-606,-57,1156,1285,326,-839,-1073,-757,-254,13,157,131,37,37,315,269,131,87,39,42,126,9,117,221,115,55,104,234,261,329,198,-2,-107,-123,-155,-191,-94,-57,-211,-270,-221,-196,-167,2,-36,-131,-184,-196,-89,-13,-69,31,39,-43,38,0,-67,-47,-177,-702,-621,255,678,260,-734,-1168,-1056,-656,-308,-93,-39,-24,11,56,68,73,77,116,117,110,121,91,92,130,128,173,167,145,160,155,104,64,8,-74,-96,-89,-56,-31,-41,-81,-89,-46,-40,-62,-24,33,-118,-102,43
2018-05-17,10:41:30.068,87,126,88,-116,-131,-139,-232,-257,-142,-89,-404,-691,-6,1167,1290,370,-468,-742,-471,-114,68,80,78,87,120,208,58,171,230,234,150,222,334,262,194,227,212,241,377,467,309,191,140,4,-126,-218,-205,-195,-230,-276,-325,-322,-281,-292,-291,-275,-279,-280,-192,-125,-110,-153,-172,-162,-164,-187,-212,-199,-217,-322,-720,-842,227,1153,768,-395,-1221,-1162,-626,-172,84,219,196,143,113,106,125,119,116,139,209,224,193,181,159,142,217,179,221,221,42,-32,-135,-250,-269,-292,-322,-249,-351,-426,-258,-207,-253,-69,47,-4,35,19,-104,-156,8,-94,-58,98,-20,-249,-263,-49
2018-05-17,10:41:31.105,-409,-617,344,1170,963,-70,-674,-658,-493,-323,-38,236,234,95,156,212,190,84,53,69,47,57,77,32,24,16,12,37,42,47,22,-41,-84,-153,-209,-206,-207,-214,-217,-257,-249,-256,-290,-239,-163,-111,-109,-65,-29,-12,-9,-14,-52,-113,-178,-204,-187,-176,-314,-738,-563,742,1507,743,-739,-1404,-1152,-587,-178,11,-21,-31,-47,-106,-112,-133,-284,-100,-182,-390,-119,-67,60,182,121,59,-54,23,128,-36,-93,-139,-257,-431,-519,-526,-317,-235,-299,-272,-161,-197,-329,-281,-135,-179,-5,24,-57,-14,-1,-33,-80,-166,-265,-203,-345,-658,-830,153,1214,829,-363,-1310,-1357,-818,-299,-12
2018-05-17,10:41:32.142,50,95,99,125,172,155,170,180,191,191,199,257,304,350,377,359,353,421,372,303,222,103,17,-29,-68,-40,-40,11,104,142,136,165,139,111,179,204,328,421,410,326,232,157,70,1,-60,167,341,236,-164,-495,93,1250,1554,918,-211,-650,-375,7,109,190,319,305,280,315,318,212,208,248,379,442,366,330,353,448,411,329,335,423,425,351,286,206,6,-156,-105,-69,-89,-105,-127,-140,-160,-152,-120,-120,-57,6,-15,-40,-41,-84,-105,-117,-92,-131,-149,-196,-555,-634,332,1159,880,-159,-862,-822,-398,-68,93,177,170,137,160,211,203,188,166,161,155,172
2018-05-17,10:41:33.179,297,237,206,239,178,145,151,172,83,-12,-80,-220,-299,-322,-365,-188,-292,-616,-328,16,-48,-39,17,22,25,-65,-131,-126,-76,-228,-322,-251,-151,-33,-323,-860,-835,389,1525,1184,-372,-1178,-1009,-622,-292,-21,93,77,21,14,60,16,4,-198,-88,-47,-21,5,35,24,36,13,2,-15,-79,-159,-280,-324,-363,-374,-385,-399,-381,-405,-463,-466,-407,-313,-244,-173,-98,0,109,86,30,-15,-62,-58,-76,-80,-74,-81,-103,-381,-586,293,1289,945,-140,-829,-959,-550,-73,228,229,194,139,14,84,267,318,230,205,251,123,344,584,568,501,452,479,496,338,373,274,94,-33,72
2018-05-17,10:41:34.217,115,-5,-29,-38,-31,-11,42,-102,-84,79,192,164,142,187,147,103,26,11,18,-197,-225,-138,-243,-520,-149,724,858,231,-691,-933,-686,-243,1,70,115,142,179,151,131,159,166,156,167,194,154,183,272,282,288,313,331,338,339,236,101,-7,-63,-64,-90,-124,-122,-125,-119,-39,0,-34,-81,-61,-150,-158,14,111,63,4,-10,-90,-153,-168,-179,-118,-121,-606,-971,-102,1182,1548,689,-487,-830,-550,-260,-75,76,22,-93,9,172,291,104,-27,94,-88,-111,59,104,299,388,240,266,261,182,126,55,-118,-210,-154,-215,-410,-508,-422,-394,-425,-439,-410,-365,-368,-377,-263
2018-05-17,10:41:35.254,-267,-310,-298,-320,-381,-361,-308,-343,-348,-298,-499,-964,-571,796,1217,379,-881,-1383,-1082,-512,-165,17,43,52,96,128,130,161,150,134,161,183,239,245,186,253,307,119,-3,180,132,-17,-108,-202,-300,-449,-468,-185,-83,-260,-258,-86,-58,-55,39,91,91,69,-34,25,14,-130,-28,28,-94,-79,-93,-552,-443,543,1069,749,-273,-788,-771,-388,25,162,136,182,211,130,46,-94,-84,55,-30,14,110,110,115,101,90,91,91,77,45,-61,-103,-125,-130,-174,-205,-204,-145,-141,-166,-216,-193,-180,-193,-118,3,111,142,98,19,-41,-76,-78,-45,-8,-14,-240,-567,-102,1025,1278
2018-05-17,10:41:36.291,438,-652,-943,-688,-246,-44,1,46,83,102,132,109,74,70,-51,59,194,177,169,64,-110,117,536,386,131,164,160,73,-33,-124,19,0,-182,-251,-108,-36,-46,2,4,23,8,-45,57,135,125,69,65,-22,-40,-12,-86,-170,-643,-935,89,1368,1208,-259,-1286,-1306,-767,-301,-10,78,76,103,118,106,116,142,151,165,162,195,198,212,214,302,282,299,268,156,86,15,-70,-145,-182,-230,-277,-287,-305,-236,-193,-222,-157,-108,-65,3,123,164,95,-41,-110,-231,-199,-124,-61,-51,-106,-411,-639,-29,1086,1347,528,-553,-805,-639,-289,130,262,223,138,98,137,101,205,354
2018-05-17,10:41:37.328,392,328,96,41,301,337,292,318,431,329,47,51,149,79,-56,16,33,34,4,15,10,-123,-232,-187,-164,-133,-123,-41,-46,-107,-155,-180,-197,-199,-235,-213,-187,-174,-343,-592,-264,676,923,312,-682,-1011,-794,-407,-127,0,16,59,31,4,19,25,64,45,65,106,157,181,137,131,170,195,193,143,141,59,-124,-263,-259,-247,-218,-254,-240,-262,-327,-570,-306,-73,-98,-173,-286,-294,-9,19,-78,-65,-70,10,-25,-110,-492,-563,136,1120,1270,356,-911,-1058,-471,-98,78,113,55,27,147,129,93,173,159,163,163,172,149,139,183,190,187,182,87,4,-37,-137,-261,-318
2018-05-17,10:41:38.365,-293,-276,-248,-225,-225,-215,-188,-149,-138,-114,-76,-50,-41,-85,-157,-212,-191,-145,-104,-109,-73,-139,-509,-405,887,1560,884,-590,-1304,-1107,-572,-137,136,221,276,286,378,362,247,186,153,177,355,404,351,347,372,346,227,-89,-134,246,258,-32,-141,-22,42,-30,-179,-112,-141,-130,-86,-81,-53,-66,-140,-72,92,42,-116,-58,139,37,-158,-123,98,-31,-331,-743,-87,1363,1568,460,-862,-1216,-919,-468,-165,8,54,83,91,111,98,100,90,102,139,135,159,190,205,250,257,252,243,166,98,-9,-89,-146,-124,-202,-288,-315,-257,-186,-171,-157,-111,-90,-85,-37,23,23,-8,-101
2018-05-17,10:41:39.403,-185,-143,-73,-24,-57,-62,-174,-568,-326,793,1111,310,-587,-834,-729,-385,-192,-101,-77,-4,65,9,-46,-7,-125,-113,85,221,219,143,174,189,93,150,189,-26,-119,-104,-50,-74,-146,-234,-266,-218,-116,-77,-95,-111,-107,-92,-71,-56,-39,-76,-116,-163,-215,-275,-373,-355,-302,-284,-353,-651,-541,315,800,355,-612,-1083,-980,-540,-201,-27,0,35,46,98,107,103,125,116,105,134,137,174,222,255,281,261,213,203,174,84,1,-41,-125,-130,-78,-87,-110,-55,-68,-91,-31,26,3,-43,7,170,123,66,1,-36,-136,-235,-248,-158,-30,-14,-374,-622,597,1837,1612,238,-720,-752
2018-05-17,10:41:40.440,-338,3,180,196,91,29,156,78,-32,89,175,177,127,267,353,355,429,456,449,393,360,318,259,81,-95,-131,-284,-326,-242,-269,-297,-245,-221,-207,-206,-163,-98,-47,-69,-83,-97,-108,-130,-121,-120,-104,-140,-205,-637,-516,665,1269,682,-572,-1108,-948,-401,-37,169,223,243,237,201,235,277,257,280,263,274,308,306,383,286,267,350,248,35,34,64,-7,-59,-150,-209,-311,-269,-135,-122,-145,-200,-56,75,87,155,29,89,138,-20,0,70,-89,99,87,-145,-379,7,800,1029,442,-442,-685,-594,-277,44,98,109,138,197,158,170,151,93,45,0,21,33,57,152,148
2018-05-17,10:41:41.477,151,106,43,-70,-157,-218,-266,-237,-272,-324,-296,-267,-254,-249,-206,-179,-207,-235,-226,-198,-248,-177,-176,-190,-188,-164,-182,-235,-269,-400,-735,-497,641,1077,427,-714,-1175,-965,-484,-166,-57,-117,-170,48,-109,-204,-38,9,-7,28,4,-51,-99,29,-23,-32,-33,60,149,-16,-100,-23,-146,-125,68,102,-75,-198,-149,-1,161,-68,-276,-56,169,43,-69,37,30,-165,-23,192,119,37,-205,-711,-449,942,1791,1067,-484,-1270,-1153,-489,-24,2,218,160,98,78,72,89,109,143,189,232,236,289,345,366,350,338,300,286,156,-3,-137,-220,-217,-196,-167,-151,-135,-122,-97,-72,-53,-24
2018-05-17,10:41:42.514,24,91,91,104,136,151,97,-1,-70,-72,-44,-71,-208,-648,-323,962,1383,712,-613,-965,-690,-288,-36,29,40,226,308,138,76,135,249,398,452,405,366,295,291,310,344,349,310,166,138,222,169,57,-49,-80,-123,-141,-100,-34,-36,-41,-3,3,-12,53,80,-29,-114,-111,-235,-155,-119,-142,-127,-137,-372,-579,-6,798,763,-32,-842,-964,-566,-174,88,147,127,174,157,138,109,117,82,82,123,163,180,220,230,209,207,215,196,162,117,44,-17,-97,-127,-158,-165,-141,-110,-125,-159,-158,-217,-247,-286,-245,-115,-105,-118,-176,-254,-332,-373,-320,-291,-380,-773,-879,186,994
2018-05-17,10:41:43.551,912,-47,-738,-763,-485,-285,-230,-285,-59,-87,-146,30,128,27,-46,13,44,37,-17,-31,65,128,158,152,79,26,-9,-91,-221,-277,-263,-256,-390,-485,-276,-275,-315,-286,-312,-274,-215,-182,-142,-165,-202,-203,-177,-177,-168,-161,-230,-653,-812,396,1463,1005,-406,-1191,-1062,-556,-146,100,173,195,204,182,175,161,156,181,243,311,355,361,413,460,541,501,462,351,203,166,75,45,-63,-119,-107,-132,-264,-409,-421,-135,80,98,92,39,-22,121,168,-17,-147,20,85,-19,-117,-282,-532,273,1348,1331,93,-907,-903,-548,-216,120,193,164,203,208,251,292,261,279,285,282,230,88
2018-05-17,10:41:44.588,176,224,222,222,188,141,55,-33,-129,-185,-200,-206,-200,-199,-204,-199,-188,-140,-131,-93,-34,-17,-24,-82,-96,-139,-168,-114,-76,-9,6,-161,-453,-68,853,977,278,-681,-954,-714,-227,91,255,213,188,178,156,174,56,103,172,92,237,287,215,211,148,89,73,150,109,-155,-213,-327,0,116,-45,-82,-53,25,-114,-186,31,-79,-142,66,79,83,19,-15,-79,-160,-127,-92,-90,-144,-395,-514,233,1056,945,-24,-884,-958,-617,-286,-195,-198,-126,-103,-101,-134,-167,-177,-179,-172,-129,-68,-18,-7,23,46,21,7,0,-72,-182,-248,-242,-337,-426,-453,-411,-336,-318,-309,-295,-260
2018-05-17,10:41:45.626,-195,-109,-30,-61,-116,-167,-218,-246,-250,-204,-189,-192,-240,-605,-753,290,1399,1164,-75,-1032,-1195,-651,-189,11,74,53,75,92,14,-24,77,150,-43,-57,142,316,407,362,387,385,342,258,90,90,144,33,-4,-27,-122,-98,-84,-92,-84,-54,-45,-19,23,58,71,62,44,-24,-66,-131,-132,-145,-230,-310,-744,-590,728,1359,591,-793,-1473,-1278,-594,-109,118,160,177,191,187,192,225,216,185,169,189,209,259,267,290,348,343,345,324,260,166,69,26,-35,-19,36,-20,-90,-87,-72,-108,-83,-59,-40,-54,-24,55,0,-124,-76,-37,-56,-55,-64,-125,-348,-686,-226,1066,1409
2018-05-17,10:41:46.663,541,-559,-768,-602,-189,45,157,131,101,117,14,111,265,306,325,161,122,154,263,288,291,272,233,243,252,212,162,39,-26,-18,-40,-208,-273,-285,-247,-201,-170,-124,-152,-125,-101,-118,-104,-103,-128,-141,-126,-120,-91,-74,-237,-527,-130,918,1112,396,-663,-927,-676,-290,-27,136,167,169,178,135,112,108,111,148,175,227,283,279,251,248,269,271,296,317,152,33,-71,-252,-282,-101,-99,-165,-168,-144,-121,-188,-290,-127,74,14,-297,-399,-160,115,122,7,-42,40,-125,-616,-427,873,1524,804,-522,-979,-726,-429,-276,42,131,87,89,83,-54,2,204,245,161,146,113,83
2018-05-17,10:41:47.700,146,193,107,-101,-254,-75,-60,-134,-281,-357,-418,-458,-463,-440,-416,-405,-387,-335,-330,-293,-215,-209,-200,-236,-303,-320,-370,-395,-370,-409,-646,-967,-496,902,1263,356,-1039,-1541,-1271,-608,-141,119,147,72,32,95,103,113,185,250,294,174,255,328,241,249,242,207,68,-145,-273,-162,-50,-306,-601,-265,-104,-195,-151,-102,-221,-161,-37,-69,-34,5,-97,-173,-148,-254,-217,-100,-137,-182,-249,-558,-738,129,1229,1155,-4,-1009,-1097,-695,-222,28,67,-111,-253,-44,-75,-195,-128,-42,-7,-22,-20,24,81,81,95,100,109,78,66,-25,-99,-163,-184,-222,-225,-233,-168,-191,-188,-145,-148,-111
2018-05-17,10:41:48.737,-50,9,71,51,16,-52,-51,0,3,-8,-28,-125,-331,-229,726,1296,879,-201,-789,-706,-441,-128,209,292,255,242,262,189,170,192,214,274,292,310,318,221,224,363,450,488,396,327,223,165,103,110,180,143,107,79,104,99,125,97,124,137,121,249,235,159,116,109,110,108,106,77,-120,-495,-364,800,1507,666,-537,-1062,-834,-346,-70,62,156,134,119,149,173,178,211,227,275,311,320,322,327,317,303,252,217,194,151,97,11,-59,-91,-66,-40,-14,40,104,95,66,86,53,50,104,114,105,46,-110,-120,24,40,13,23,-70,-476,-677,407,1546,1286,-45
2018-05-17,10:41:49.774,-949,-1033,-528,-151,92,-113,158,331,204,98,70,169,113,10,115,375,370,265,222,198,228,276,242,166,109,-27,-49,-53,-104,-111,-115,-121,-144,-103,-158,-176,-226,-315,-147,-67,-108,-120,-129,-195,-261,-283,-268,-215,-193,-265,-588,-508,543,1017,569,-550,-1071,-870,-431,-159,28,101,95,138,165,176,187,156,166,175,184,225,237,286,238,276,277,239,219,150,119,31,-42,-96,-169,-284,-425,-277,-108,-74,-68,-82,-164,-119,-71,-95,30,-87,-138,-112,-169,-83,83,100,-255,-496,-55,1003,1502,748,-379,-679,-495,-279,-106,1,125,140,121,124,99,56,72,90,41,95,132,206
2018-05-17,10:41:50.812,133,-2,12,-14,-166,-284,-180,-209,-403,-456,-517,-562,-586,-572,-554,-543,-493,-471,-492,-445,-383,-376,-388,-412,-449,-470,-485,-489,-533,-537,-688,-1044,-536,809,1109,215,-1045,-1435,-1171,-641,-299,-88,-48,-57,-20,27,44,70,78,181,244,220,211,371,355,177,122,229,224,140,20,-94,-226,-261,-277,-196,-229,-393,-232,57,90,-55,-75,90,111,-101,-16,58,145,51,-34,7,-7,-10,-265,-826,-438,1018,1740,1078,-376,-1047,-831,-271,71,276,301,316,318,288,205,125,83,115,216,336,361,336,355,362,351,258,207,182,124,54,-17,-33,-78,-115,-73,-58,-40,-54,-44,-6,-15,-10
2018-05-17,10:41:51.849,71,141,99,67,18,36,66,81,89,74,-31,-323,-371,513,1221,903,-127,-828,-795,-371,-50,270,292,163,160,89,239,278,261,249,199,46,20,194,250,239,238,46,96,357,324,190,204,191,105,51,-52,-24,49,93,19,-50,-83,-23,79,179,93,120,157,108,40,28,18,37,18,-221,-508,0,997,996,88,-837,-1054,-761,-302,-129,-90,-100,-110,-75,-29,6,14,30,33,52,70,113,164,189,208,171,145,77,18,16,-6,-50,-127,-164,-146,-135,-118,-130,-132,-80,-104,-105,-83,-10,3,0,7,-28,-80,-17,104,74,-47,-258,-629,-799,243,1313,1079,-131,-1015,-1003
2018-05-17,10:41:52.886,-609,-400,-131,-180,-132,126,208,37,43,180,285,231,223,218,195,269,318,290,127,169,282,312,219,68,-72,-185,-160,-166,-312,-290,-190,-151,-105,-163,-179,11,113,16,-53,-79,-122,-259,-276,-303,-290,-307,-340,-662,-760,251,1112,571,-760,-1608,-1523,-765,-224,44,99,106,104,63,45,13,-10,37,136,195,217,284,335,384,427,418,330,267,185,77,-30,-95,-151,-247,-278,-240,-234,-227,-182,-98,-76,-67,-77,-192,-208,-14,13,-40,-114,-180,-253,-268,-250,-207,-556,-678,409,1403,1032,-54,-699,-719,-383,-129,80,78,-26,123,158,39,3,69,144,101,27,4,83,127,78,66
2018-05-17,10:41:53.923,123,216,225,159,70,17,-80,-193,-137,5,-122,-112,-285,-312,-204,-209,-189,-153,-157,-213,-229,-203,-233,-237,-186,-170,-174,-208,-554,-568,454,1162,734,-439,-1062,-947,-513,-223,-96,-41,27,80,67,72,59,60,109,81,122,187,186,199,191,264,307,236,126,20,-156,-302,-221,-145,-202,-245,-266,-280,-357,-377,-246,-152,55,-55,-86,53,-15,72,86,38,50,8,-119,-471,-669,392,1513,1377,23,-1177,-1118,-516,-187,-51,-64,102,154,99,103,132,103,176,171,186,207,248,217,75,151,147,116,61,-60,-150,-263,-346,-378,-409,-395,-392,-379,-369,-315,-282,-258,-181,-156,-189,-214,-237
2018-05-17,10:41:54.960,-249,-320,-322,-276,-259,-337,-705,-884,230,1323,953,-412,-1411,-1420,-834,-244,96,192,143,135,185,219,220,238,236,252,175,122,219,264,255,185,233,175,136,52,-23,-33,-128,-241,-228,-227,-93,-61,-244,-120,52,39,51,65,-52,62,30,-90,-185,-157,-152,-28,25,-265,-633,-141,884,1070,369,-672,-843,-518,-162,18,150,218,201,119,51,-15,-5,36,-2,84,119,152,178,134,112,120,122,131,114,60,5,-45,-67,-85,-112,-113,-94,-55,8,37,-15,-5,93,66,11,-18,0,9,44,58,5,-35,-228,-441,41,892,988,276,-635,-749,-382,10,173,190,151,77,119,36
2018-05-17,10:41:55.998,66,153,166,146,52,-13,89,83,197,224,368,358,270,246,242,189,131,57,-37,-43,0,27,59,127,96,-57,65,76,62,39,-135,-114,-99,-85,-33,-35,-89,-436,-768,22,1157,1083,-114,-1264,-1506,-1098,-695,-368,93,-17,-154,-146,-167,-150,-149,-148,-141,-63,-23,-16,42,47,65,101,85,40,0,-96,-221,-265,-362,-370,-379,-423,-430,-394,-279,-251,-241,-228,-141,-44,-27,0,33,-8,-46,-83,-93,-70,-155,-584,-710,660,1921,1369,-302,-1351,-1300,-586,-136,134,239,229,190,106,75,302,366,283,324,415,446,448,428,377,475,527,353,355,313,227,139,104,86,-139,-160,-45
2018-05-17,10:41:57.035,-4,-58,-4,111,178,254,260,170,93,48,4,-30,18,28,47,-141,-677,-597,575,1091,596,-524,-1093,-1003,-519,-112,100,172,196,213,214,174,182,203,256,267,265,258,263,265,256,262,249,308,286,203,173,120,49,56,77,137,110,96,59,49,65,81,85,108,137,151,74,-35,-119,-111,-109,-16,-6,-273,-422,159,741,723,159,-580,-786,-429,-39,186,282,307,232,261,262,172,144,78,-43,97,293,256,190,284,181,121,156,117,126,182,123,54,-3,-82,6,88,74,-18,-19,25,-184,-317,-53,-96,-153,-188,-252,-310,-286,-266,-226,-204,-310,-626,-315,896,1258,403
2018-05-17,10:41:58.072,-917,-1311,-913,-406,-197,-34,-21,-14,30,61,89,98,136,213,276,301,341,321,316,292,281,253,263,267,223,128,129,7,-125,-226,-283,-226,-165,-173,-55,27,-55,-32,-2,-49,-190,-301,-166,-79,-135,-291,-256,-402,-885,-426,1058,1650,836,-605,-1169,-914,-544,-200,115,53,-34,-44,21,123,142,16,46,-3,-4,-4,132,313,197,154,218,289,334,228,109,195,152,-74,-234,-373,-361,-336,-270,-298,-285,-193,-169,-196,-235,-256,-212,-176,-183,-205,-206,-349,-697,-271,794,977,198,-883,-1086,-764,-300,-3,156,178,166,161,160,189,220,189,165,155,165,163,202,262,300,311,342,291
2018-05-17,10:41:59.109,191,68,-29,-112,-157,-105,-87,-80,-54,-109,-181,-111,-51,-91,-120,-42,-156,-231,157,141,15,119,-76,-467,-76,1013,1304,733,-462,-829,-551,-222,-165,-269,-153,-36,56,28,-86,-153,-206,-179,-35,-17,-98,-46,-42,-39,-42,-52,-78,-114,-124,-466,-515,-510,-579,-606,-630,-606,-566,-555,-547,-474,-448,-452,-451,-475,-527,-557,-536,-547,-585,-706,-1136,-1043,411,1050,300,-1064,-1604,-1406,-831,-435,-182,-108,-96,-108,-132,-114,-120,-106,-43,34,78,119,136,212,214,140,150,221,158,109,-2,-110,-150,-244,-323,-278,-207,-150,-73,-128,-114,-183,9,285,172,50,96,49,-79,-97,56,-371,-301,908
2018-05-17,10:42:00.146,1528,839,-536,-969,-685,-192,27,202,219,152,181,392,474,282,241,413,500,454,422,413,409,327,326,362,234,207,191,75,-11,-59,-52,-33,-48,-29,11,31,93,156,154,130,79,78,42,7,14,17,-39,-174,-436,-107,878,1186,579,-455,-760,-541,-101,161,323,333,335,354,345,347,324,344,386,395,310,270,344,268,153,297,369,321,220,149,3,-118,-9,-53,-16,-6,-183,-42,124,116,142,210,119,45,106,53,-93,64,211,99,-161,-553,-65,1048,1410,622,-552,-970,-559,-152,77,88,36,10,90,156,204,239,225,187,99,31,120,295,155,125,105,36,-34,-104
2018-05-17,10:42:01.184,-188,-297,-325,-352,-362,-343,-337,-286,-258,-267,-214,-102,-134,-227,-260,-308,-347,-351,-342,-317,-377,-545,-860,-261,990,1049,-42,-1318,-1547,-1085,-470,-120,46,90,131,143,170,178,224,231,202,239,215,218,236,172,179,204,158,60,-97,-145,-213,-247,-352,-377,-329,-306,-90,-51,-108,-23,-16,20,62,-95,-176,-175,-258,-253,-123,-6,-200,-631,-443,663,1240,744,-543,-1010,-758,-278,-44,70,172,230,199,66,40,38,95,-31,-17,26,65,92,91,74,75,65,67,35,-1,-72,-93,-123,-142,-142,-112,-120,-73,-88,-29,25,-55,-73,-27,-7,26,-5,-35,-12,-2,-64,-306,-431,387,1074
2018-05-17,10:42:02.221,832,-122,-825,-777,-352,-10,180,261,336,366,306,171,168,146,124,228,268,204,131,225,91,104,262,230,243,27,103,174,38,36,179,199,118,31,70,-30,12,234,293,145,37,-5,12,7,56,100,-7,-312,-646,116,1419,1547,363,-844,-1002,-548,-161,46,-11,-49,-37,11,53,10,6,14,49,72,146,187,184,222,212,203,181,73,-3,-80,-171,-255,-301,-310,-297,-263,-230,-169,-132,-115,-67,-40,-39,-42,-84,-122,-152,-181,-215,-168,-204,-534,-808,207,1338,1080,-213,-1148,-1175,-522,30,127,-54,13,124,87,27,-6,5,-107,-73,9,20,79,50,-97,-174,293,265,247
2018-05-17,10:42:03.258,195,-1,-210,-263,-209,-209,-126,-155,-302,-283,-230,-123,-82,-199,-252,-242,-331,-246,-276,-275,-21,19,-300,-706,-211,798,936,81,-960,-1072,-888,-606,-298,-179,-186,-163,-143,-177,-166,-113,-66,-24,-2,11,52,70,58,55,46,37,-9,-100,-197,-250,-220,-199,-187,-211,-166,-38,67,81,45,36,3,2,-23,-52,-93,-87,-35,-45,-1,-132,-549,-299,830,1384,632,-779,-1190,-724,-293,-76,1,21,-1,-18,109,75,-134,-128,-4,0,274,371,269,253,335,365,247,151,199,89,88,141,-271,-343,83,165,7,-51,-101,2,37,-61,40,118,21,64,4,-53,48,113,-16,-511,-468,794
2018-05-17,10:42:04.295,1496,549,-887,-1385,-1142,-542,-169,4,35,50,53,57,102,112,127,161,190,244,248,249,268,211,187,183,137,91,13,-103,-169,-194,-229,-190,-166,-177,-148,-129,-120,-59,-18,-21,-65,-110,-87,-88,-124,-148,-101,49,-175,-717,-597,761,1232,498,-657,-1058,-848,-415,-43,142,90,-14,-28,34,131,181,249,235,220,196,231,182,94,-18,216,391,256,179,131,-117,-110,40,-40,44,5,-87,5,111,125,171,166,127,42,-19,-18,-56,-104,-63,-97,-294,-480,-615,100,846,754,-113,-864,-969,-610,-196,45,90,118,147,135,155,133,163,204,218,200,191,205,205,195,236,287,269
2018-05-17,10:42:05.332,210,169,103,47,1,38,63,22,15,13,40,98,124,115,150,147,170,72,-52,-62,-102,-146,-1,-41,-285,-557,70,956,935,255,-568,-825,-682,-390,-75,118,148,222,240,316,239,214,220,144,194,42,215,392,437,429,178,157,185,156,231,53,-4,-40,-99,-36,-71,-54,37,94,53,50,63,-15,-105,-206,-199,-173,-174,-258,-278,-265,-360,-711,-391,753,986,105,-1086,-1448,-1022,-352,-1,143,228,184,140,112,159,214,211,219,214,231,272,314,324,323,323,260,163,109,4,-118,-195,-219,-280,-288,-242,-217,-209,-182,-141,-18,-29,-62,-88,-327,-342,-228,-237,-248,-272,-328
2018-05-17,10:42:06.369,-619,-914,-433,854,1138,137,-927,-1213,-887,-291,-56,-82,-88,-60,-21,-21,-100,-201,-87,-23,10,65,3,-60,-5,22,-76,-8,64,1,-97,-68,-131,-302,-256,-234,-213,-232,-178,-191,-310,-313,-125,-213,-293,-298,-311,-311,-348,-359,-361,-358,-514,-680,-125,650,672,-103,-885,-960,-658,-287,-53,51,47,35,-6,8,18,41,99,148,184,202,241,279,295,322,329,336,327,206,100,23,-16,-43,-35,-27,-26,-46,25,97,68,89,137,35,-108,-121,-19,-17,-59,-73,-71,-49,-298,-532,188,1208,1247,261,-689,-917,-661,-258,51,154,-40,55,143,287,295,167,243,287,159,232,347,317
2018-05-17,10:42:07.407,333,204,193,376,289,154,89,-8,-95,-168,-75,-6,46,157,121,16,-114,-103,27,169,49,-100,-70,-101,-163,-138,-147,-127,-186,-536,-378,747,1177,474,-731,-1212,-985,-414,-95,83,125,117,99,89,68,91,130,166,143,180,235,280,311,299,265,237,202,137,15,-68,-135,-161,-155,-187,-217,-227,-220,-148,-126,-192,-151,-199,-128,-95,-106,-183,-183,-199,-251,-212,-260,-630,-521,373,1008,686,-368,-895,-846,-387,-177,69,186,125,75,72,73,31,148,147,8,124,263,55,21,261,332,251,158,135,92,68,-15,-87,-87,-85,-99,-148,-149,-79,-65,-116,-26,16,-6,-60,-116,-156
2018-05-17,10:42:08.444,-146,-117,-92,-85,-92,-352,-393,400,1068,844,-130,-756,-688,-316,-45,113,151,138,138,132,156,192,181,215,252,271,264,260,266,290,301,303,289,251,203,122,79,52,15,-20,-5,43,83,128,127,119,171,171,123,106,54,2,-14,-11,-11,-34,-116,-489,-527,524,1386,958,-265,-990,-915,-413,-73,24,47,106,200,170,188,240,166,160,283,319,315,309,328,319,304,281,245,171,80,-7,-95,-136,-140,-132,-124,-99,-66,-61,-40,-22,4,35,44,12,-29,-77,-114,-123,-116,-142,-190,-507,-864,-111,1283,1515,272,-992,-1189,-736,-306,-67,-3,-3,2,0,15,31,21,20
2018-05-17,10:42:09.481,42,68,113,140,150,154,114,76,38,-6,-68,-126,-184,-232,-259,-284,-287,-277,-265,-254,-234,-219,-184,-139,-120,-140,-123,-141,-166,-176,-183,-158,-130,-207,-479,-366,484,894,422,-547,-932,-788,-385,-89,52,63,56,66,55,68,83,96,116,120,153,154,163,157,129,95,77,44,-5,-56,-120,-158,-166,-150,-142,-138,-139,-133,-104,-93,-69,-21,-1,-20,-40,-40,-73,-115,-111,-111,-101,-153,-420,-576,125,982,962,54,-724,-764,-454,-200,-58,-21,-32,-8,17,2,-3,-1,-14,-8,27,54,57,62,61,43,13,5,-13,-56,-98,-124,-147,-161,-154,-148,-136,-120,-115,-96,-104,-84
2018-05-17,10:42:10.518,-39,-32,-42,-69,-115,-147,-164,-173,-167,-153,-339,-721,-314,888,1329,529,-704,-1050,-737,-345,-127,-56,-36,-8,6,16,34,84,104,122,148,168,194,205,209,185,169,172,128,42,-22,-97,-142,-158,-167,-165,-157,-139,-113,-101,-66,-45,-13,71,85,44,-2,-19,-51,-70,-51,-40,-40,-175,-578,-301,968,1501,636,-763,-1244,-800,-236,81,190,190,201,194,190,194,200,220,235,240,273,295,289,280,240,219,204,161,76,-40,-115,-157,-156,-162,-157,-162,-146,-146,-111,-100,-86,-21,18,-21,-47,-81,-110,-117,-118,-100,-96,-179,-501,-559,343,1133,867,-235,-929,-857,-441,-167,-26,16
2018-05-17,10:42:11.555,-15,-19,-1,-8,5,15,9,29,60,77,86,82,79,72,62,46,-6,-77,-130,-157,-174,-167,-158,-170,-188,-188,-187,-179,-159,-121,-52,-28,-54,-72,-103,-121,-154,-157,-120,-112,-203,-491,-411,432,923,566,-395,-811,-672,-313,-99,19,30,20,40,25,30,44,55,46,66,105,103,103,98,73,64,65,58,22,-45,-95,-107,-109,-121,-118,-130,-144,-131,-79,-82,-92,-77,-22,-17,-36,-33,-53,-90,-93,-96,-96,-95,-178,-449,-307,432,810,504,-338,-703,-556,-251,-81,-11,4,16,22,43,67,47,58,81,99,112,120,117,118,110,89,77,87,52,13,-22,-35,-41,-42
2018-05-17,10:42:12.593,-39,-35,-37,-63,-49,-15,8,4,23,51,39,13,-5,8,2,-19,-18,-25,-133,-381,-137,645,994,554,-322,-611,-398,-138,0,53,53,65,68,56,47,77,107,115,119,133,142,122,116,104,108,122,102,51,33,9,-30,-58,-71,-74,-64,-53,-53,-22,-22,-32,-7,42,60,36,0,-46,-52,-55,-55,-50,-89,-293,-511,-21,772,898,187,-706,-794,-435,-186,-80,-59,-67,-43,-39,-23,-14,-1,13,22,26,30,40,25,11,6,10,5,-12,-70,-87,-124,-151,-166,-133,-143,-156,-143,-137,-126,-107,-111,-82,-11,12,-10,-49,-67,-79,-89,-105,-91,-109,-294,-566,-96,821
2018-05-17,10:42:13.630,970,191,-740,-839,-443,-125,25,65,80,97,110,108,111,129,149,164,153,156,181,183,177,174,171,159,129,77,29,-21,-68,-94,-99,-87,-65,-75,-59,-47,-38,-13,11,73,104,104,75,24,-16,-18,-13,-1,-11,-181,-557,-271,808,1255,563,-674,-969,-568,-185,43,139,153,162,193,184,183,215,225,237,246,270,285,277,270,261,262,253,198,108,16,-45,-87,-119,-116,-87,-81,-91,-80,-62,-58,-64,-48,6,43,24,-24,-81,-104,-108,-99,-103,-130,-247,-723,-650,628,1439,789,-742,-1346,-1028,-467,-150,-30,-27,-32,-37,-26,-29,-14,-6,-3,17,35,36,27,35,33
2018-05-17,10:42:21.545,412,461,486,483,463,467,454,345,208,134,1,-81,-145,-109,-105,-255,-56,114,65,-17,-79,-53,6,20,41,57,85,127,144,96,42,69,149,162,29,-385,-752,206,1643,1630,34,-1197,-1090,-469,-64,47,168,239,17,50,64,-51,-348,-881,-828,-847,-1227,-1738,-2188,-2389,-2929,-3579,-4397,-4879,-4937,-4982,-4688,-4296,-3950,-3617,-3191,-2569,-1838,-1069,-133,697,1162,1594,2126,2618,2471,2593,2837,2701,2754,2661,2601,2580,2443,2145,1841,2173,2893,2954,2112,1063,993,1366,1475,1582,1670,1494,1387,1389,1273,1204,1093,1001,1083,1107,1071,998,942,868,816,763,690,597,485,428,438,436,427,356,79,282,520,412
2018-05-17,10:42:23.283,393,425,254,351,555,396,265,184,64,122,240,60,-272,-338,-237,-425,-725,-204,1025,981,-115,-1116,-1211,-703,-314,-108,50,47,120,185,190,260,307,332,357,289,211,335,365,284,163,32,-34,-24,-162,-259,-375,-523,-647,-674,-737,-799,-842,-909,-916,-972,-972,-1064,-1094,-1043,-1095,-1113,-1223,-1303,-1339,-1725,-2089,-2374,-2722,-3017,-3527,-3770,-2864,-1668,-1368,-2135,-2637,-2587,-1856,-1072,-960,78,1185,1850,2253,2483,2629,2726,2719,2559,2411,2382,2327,2066,1968,1787,1695,1445,1071,708,560,528,291,316,337,280,360,371,371,288,269,294,251,205,300,275,186,175,148,156,121,106,18,-40,32,-243,-565,192
2018-05-17,10:42:24.320,1136,857,-292,-1196,-1283,-963,-649,-522,-477,-414,-363,-429,-379,-406,-494,-667,-753,-724,-730,-699,-766,-930,-1122,-1353,-1650,-1950,-2156,-2329,-2789,-3098,-3169,-3410,-3134,-2354,-1577,-1087,-572,137,847,1365,1692,2301,2940,3089,3039,2947,2752,2547,2227,1975,1725,1640,1381,985,1625,2334,2054,1001,199,106,393,686,806,861,879,872,869,847,818,730,703,641,640,739,725,620,540,410,281,150,-56,-206,-286,-314,-447,-585,-625,-690,-768,-795,-837,-814,-786,-791,-784,-769,-740,-728,-771,-945,-1029,-1059,-952,-941,-1001,-1110,-1372,-1817,-1988,-1201,-356,-423,-1403,-1975,-2055,-1762,-1188,-800,-588,-265,32,604,835,663,947,1386,2105,1670
2018-05-17,10:42:25.357,1955,2042,1595,1347,1113,822,801,713,460,356,303,221,195,141,128,120,94,54,82,66,56,58,32,61,40,61,-30,-61,-115,-96,-120,-153,-113,-185,-672,-871,310,1274,832,-516,-1383,-1311,-837,-384,-135,-228,-250,-273,-282,-259,-296,-242,-209,-150,-167,-163,-166,-223,-318,-377,-498,-575,-680,-789,-924,-1148,-1382,-1554,-1611,-1658,-1628,-1694,-1504,-841,-511,-608,-538,58,176,485,1182,1563,1465,1664,1364,662,432,2119,2746,1013,832,2033,2558,2194,1369,662,365,439,813,776,840,770,988,957,826,695,707,668,682,675,713,672,630,569,531,440,313,280,284,214,122,45,11,-40,-39,-58,-71,-122
2018-05-17,10:42:26.394,-156,-170,-192,-235,-236,-275,-263,-355,-438,-457,-472,-558,-536,-471,-473,-504,-582,-875,-925,-185,447,306,-587,-1147,-1227,-1071,-801,-861,-903,-907,-863,-882,-996,-947,-958,-940,-891,-737,-599,-526,-182,198,200,173,375,365,468,767,1166,1232,1021,916,814,698,460,443,395,304,199,188,176,230,210,226,211,149,94,63,69,26,-50,-110,-553,-817,272,1576,1404,-272,-1289,-1195,-603,-283,-72,-20,-55,-90,-83,-96,-132,-85,-58,-80,-55,-72,-129,-243,-363,-441,-442,-518,-690,-698,-709,-729,-713,-710,-744,-753,-769,-630,-634,-714,-716,-653,-621,-636,-641,-534,-519,-530,-571,-642,-711,-760,-759,-714,-609,-539
2018-05-17,10:42:27.431,-654,-706,140,1139,1321,507,-135,-129,223,387,347,566,1437,1221,1094,1827,1382,1219,971,841,975,905,737,789,794,613,625,603,533,435,385,425,383,275,321,282,176,173,126,98,98,138,157,157,203,309,303,226,213,208,131,89,42,-14,-58,-107,-475,-568,214,787,572,-294,-1012,-1072,-802,-589,-376,-348,-356,-329,-319,-287,-287,-247,-284,-252,-185,-172,-192,-187,-205,-290,-344,-401,-520,-532,-558,-579,-606,-660,-699,-676,-552,-514,-559,-622,-555,-341,-319,-341,-194,164,146,-174,76,472,544,392,280,569,275,-456,-228,932,2837,2730,1312,-471,-411,444,174,177,387,425,388,381,390,344
2018-05-17,10:42:28.469,382,495,543,564,669,710,701,627,541,417,293,129,31,5,-34,-38,-59,-89,-90,-71,-119,-153,-124,-122,-187,-145,-149,-214,-220,-226,-321,-380,-446,-506,-494,-490,-478,-446,-468,-662,-1034,-879,115,504,-96,-1252,-1665,-1499,-1023,-737,-624,-618,-581,-578,-581,-605,-576,-541,-556,-588,-653,-617,-538,-295,73,141,94,142,428,570,546,664,752,766,970,1066,1020,874,645,627,690,719,598,514,547,557,432,367,332,259,200,250,264,253,238,-93,-269,477,1197,1039,54,-674,-665,-288,145,252,339,314,302,340,288,205,140,74,42,60,59,-3,-62,-121,-214,-320,-391,-508,-619,-708,-731,-754
2018-05-17,10:42:29.506,-832,-883,-829,-730,-747,-820,-842,-938,-1010,-1132,-1210,-1149,-1090,-1018,-954,-965,-970,-976,-981,-992,-1032,-1115,-1337,-1658,-1297,-322,94,-406,-925,-960,-579,-80,191,313,492,868,1080,1112,1209,1318,1264,1359,1280,967,862,842,647,542,698,586,454,422,349,310,214,355,330,197,156,152,176,194,201,201,219,198,174,209,236,261,242,191,161,119,89,84,78,-36,-395,-408,294,686,440,-533,-1085,-866,-550,-381,-341,-331,-317,-329,-260,-249,-257,-323,-434,-616,-712,-723,-711,-669,-630,-562,-503,-483,-470,-491,-547,-651,-735,-612,-515,-228,-43,-72,-98,-31,398,737,906,868,682,611,767,699,1152,1428
2018-05-17,10:42:30.543,1055,779,591,654,654,75,-405,722,1953,1900,663,-578,-608,-136,40,225,376,268,256,281,324,350,415,388,404,470,522,589,679,630,506,414,315,202,52,-70,-119,-177,-227,-249,-295,-357,-408,-486,-523,-530,-592,-537,-583,-512,-452,-532,-560,-620,-745,-844,-926,-966,-986,-1030,-1394,-1680,-1077,-222,-181,-1166,-2046,-2093,-1673,-1228,-868,-648,-503,-411,-302,-98,-33,-1,322,700,929,1186,1264,1353,1383,1314,1184,1085,903,776,782,702,721,641,418,481,464,387,296,355,287,217,263,350,322,370,250,162,181,180,171,171,91,22,-228,-360,288,939,798,-81,-803,-788,-462,-219,-58,-64,-6,66
2018-05-17,10:42:31.580,13,-65,-38,-45,-137,-111,-129,-123,-119,-187,-267,-258,-352,-477,-520,-535,-665,-766,-860,-908,-1019,-1138,-1234,-1277,-1349,-1433,-1466,-1541,-1722,-2042,-2166,-1910,-1581,-1490,-1394,-900,-539,-408,-279,-202,-244,184,1395,2557,2719,1705,1023,852,1446,2401,2546,1798,1860,1858,1481,894,1182,1589,1397,1184,1077,1000,906,739,782,648,623,536,409,351,307,232,211,225,181,60,41,114,172,214,160,98,47,-15,61,94,50,-50,-154,-163,-234,-295,-360,-478,-741,-1166,-938,18,414,-98,-1306,-1697,-1300,-892,-697,-547,-576,-605,-616,-711,-823,-895,-940,-952,-1026,-1090,-1048,-974,-1012,-1044,-1080,-1086,-1075,-998,-791,-643,-585,-623
2018-05-17,10:42:32.617,-567,-391,-1,169,468,752,768,819,1002,1034,1135,1170,1117,943,736,674,531,409,482,490,373,-26,-103,830,1372,962,-269,-829,-637,-100,176,265,424,437,359,415,387,444,500,448,470,550,510,542,486,361,245,156,33,-12,-54,-148,-115,-73,-123,-162,-185,-242,-245,-313,-321,-278,-288,-340,-282,-255,-261,-303,-329,-328,-332,-385,-360,-337,-449,-818,-921,-197,350,103,-856,-1345,-1236,-857,-644,-509,-438,-429,-422,-344,-249,-247,-222,-120,0,129,226,313,274,463,667,601,630,718,727,843,852,632,553,566,469,279,153,214,367,303,224,174,302,399,202,106,273,64,3,67,18,-18
2018-05-17,10:42:33.655,-31,-438,-131,1140,1713,775,-633,-1010,-578,7,344,451,473,400,428,484,392,358,348,331,349,414,434,339,284,252,148,57,-80,-212,-308,-380,-410,-417,-397,-386,-397,-402,-459,-491,-502,-520,-613,-710,-601,-715,-874,-909,-1028,-1076,-1097,-1052,-1008,-902,-1098,-1365,-809,180,430,-327,-1242,-1245,-813,-378,9,363,573,861,1195,1307,1404,1478,1373,1340,1316,1210,1116,1018,900,727,588,457,370,267,251,174,108,119,133,123,96,75,69,-17,-60,-43,-38,57,62,72,73,-25,-64,-95,-105,-84,-74,-213,-599,-747,-143,397,188,-682,-1276,-1319,-965,-687,-597,-612,-610,-623,-649,-649,-629,-592,-577,-520
2018-05-17,10:42:34.692,-590,-586,-698,-812,-1002,-1133,-1188,-1282,-1241,-1223,-1249,-1203,-1142,-1068,-1027,-1048,-1070,-1183,-1320,-1389,-1348,-1237,-1009,-708,-570,-534,-195,228,493,595,977,1249,1205,940,586,1116,2546,3013,2219,804,220,442,683,729,742,722,625,563,610,609,515,539,569,563,556,546,550,536,484,400,334,266,160,133,78,72,108,84,86,94,64,21,7,13,66,56,104,119,103,131,38,-75,-128,-98,-106,-159,-198,-382,-814,-701,249,780,404,-843,-1490,-1312,-973,-653,-463,-478,-500,-497,-462,-442,-402,-312,-413,-486,-411,-220,0,40,2,137,115,84,98,269,429,502,486,538,635,807,618,339,452,810
2018-05-17,10:42:35.729,443,996,1040,579,500,238,429,387,353,269,170,208,135,18,-322,-91,778,1200,630,-450,-681,-455,-96,134,361,415,384,367,366,344,367,350,263,297,279,333,290,329,302,200,164,77,-50,-121,-196,-340,-331,-400,-415,-340,-269,-341,-339,-311,-348,-445,-511,-644,-704,-777,-843,-884,-882,-813,-784,-761,-769,-1033,-1242,-706,117,341,-295,-1090,-1096,-726,-399,-179,-12,68,180,266,373,547,632,689,960,1113,1096,1208,1244,1160,1028,996,808,664,560,407,353,259,178,140,105,-8,-25,-78,-75,-28,-68,-7,110,137,143,151,186,181,162,120,90,130,-102,-458,137,1358,1609,568,-889,-1109
2018-05-17,10:42:36.766,-544,-2,251,246,205,145,158,108,24,-15,-18,-41,-20,10,-24,-7,-26,-73,-154,-256,-318,-395,-489,-537,-574,-698,-755,-800,-847,-956,-1049,-1016,-1037,-1018,-961,-957,-931,-1027,-1057,-934,-734,-499,-396,-511,-566,-506,-668,-585,367,1440,1582,712,-74,-28,543,835,981,1179,1258,1062,915,921,766,687,685,699,648,688,671,531,434,239,125,138,88,-5,-15,-88,-112,-128,-134,-74,42,-17,-38,44,122,146,183,271,266,184,113,17,-13,-9,-2,-21,88,-102,-458,-142,526,741,177,-700,-980,-782,-493,-316,-251,-220,-303,-383,-357,-389,-445,-528,-676,-781,-873,-918,-980,-981,-931,-886,-862,-844
2018-05-17,10:42:37.803,-875,-883,-821,-799,-799,-808,-664,-480,-437,-347,-257,-147,-37,83,144,256,582,599,687,915,1129,1285,1122,972,755,307,504,1544,2081,1450,2,-485,-190,134,356,404,258,288,283,130,157,145,168,177,236,353,353,329,364,357,351,262,192,155,74,44,41,-21,-38,-29,65,163,103,103,94,83,41,53,88,0,-143,-242,-256,-308,-406,-417,-389,-453,-761,-1079,-410,576,795,-114,-1214,-1376,-1073,-871,-864,-976,-1043,-1082,-1180,-1240,-1230,-1187,-1217,-1191,-1019,-915,-778,-654,-465,-283,-329,-484,-242,55,152,297,258,295,695,1051,977,778,812,984,944,782,686,678,643,543,442,345,308,210
2018-05-17,10:42:38.841,164,141,45,-174,-646,-434,766,1104,424,-801,-1090,-851,-426,-160,25,35,-27,43,9,-8,-49,-68,-99,-67,-93,-54,33,0,-40,-62,-103,-230,-259,-391,-385,-397,-420,-409,-405,-421,-446,-497,-486,-432,-458,-511,-455,-440,-455,-408,-433,-450,-421,-414,-475,-512,-610,-988,-1297,-834,-206,-142,-899,-1592,-1631,-1279,-916,-718,-615,-631,-611,-439,-291,-234,-270,-179,155,223,422,694,951,1217,1393,1376,1328,1277,1227,1195,1049,964,1032,913,692,668,616,458,474,532,521,459,609,533,533,609,475,317,347,308,366,324,125,-265,-15,1099,1720,1103,-310,-934,-598,-60,266,340,343,366,367,353,420,412
2018-05-17,10:42:39.878,368,388,393,383,358,358,364,319,240,161,43,-109,-212,-306,-333,-363,-375,-363,-348,-339,-356,-379,-415,-435,-433,-459,-489,-580,-719,-816,-869,-897,-842,-777,-731,-694,-948,-1299,-852,203,900,383,-775,-1009,-494,-189,178,530,698,582,583,614,553,679,472,430,701,896,814,568,500,445,265,160,176,101,-2,45,5,-127,-44,-94,-196,-213,88,-26,-205,-20,5,77,157,97,162,100,40,56,113,59,120,86,-260,-304,424,915,614,-369,-948,-871,-442,-110,-2,-19,-172,-259,-287,-264,-261,-297,-336,-247,-294,-401,-515,-585,-674,-782,-846,-870,-889,-898,-908,-928,-935,-979,-1060,-1148,-1162,-1189
2018-05-17,10:42:40.915,-1263,-1260,-1195,-1140,-984,-686,-432,-507,-413,-15,369,690,882,1028,1449,1604,1179,1337,2374,2741,1991,816,353,404,645,803,782,745,849,822,656,649,731,742,703,641,492,642,666,572,548,563,566,424,344,250,237,161,159,131,178,136,93,14,-11,-34,-31,-67,-28,-10,-42,-116,-197,-314,-398,-453,-494,-451,-492,-789,-1033,-378,572,706,-260,-1245,-1405,-1095,-868,-773,-833,-880,-900,-938,-975,-941,-870,-885,-1138,-1100,-983,-765,-738,-667,-533,-389,-285,-638,278,1377,723,418,992,721,380,1729,1883,1401,1094,932,774,577,551,652,696,604,380,311,396,456,334,265,77,-391,235,1407,1627,633
2018-05-17,10:42:41.952,-644,-882,-566,154,438,609,538,452,398,361,368,384,398,426,410,368,296,273,223,187,136,104,-22,26,-58,-152,-223,-362,-467,-516,-603,-526,-540,-600,-578,-499,-486,-541,-495,-558,-803,-1041,-1207,-1255,-1284,-1211,-1160,-1351,-1667,-1393,-597,-258,-852,-1834,-2122,-2027,-1742,-1467,-1323,-1184,-1005,-875,-622,-379,-240,30,301,488,725,1062,1427,1544,1807,2029,2027,1978,1907,1689,1601,1435,1176,1052,874,839,801,773,783,689,609,605,675,555,551,485,440,341,294,361,310,343,292,-254,-141,921,1498,903,-307,-882,-728,-175,226,378,326,255,231,197,212,187,205,149,68,94,29,-101,-133,-217,-185,-243
2018-05-17,10:42:42.989,-361,-403,-428,-584,-680,-747,-776,-811,-821,-863,-940,-1001,-1028,-1015,-1053,-1026,-1005,-996,-1041,-1093,-1158,-1210,-1230,-1209,-1142,-1122,-1289,-1324,-337,736,844,-120,-869,-891,-426,237,665,844,927,1063,1204,1325,1269,1126,1172,1125,999,879,828,788,718,696,634,555,400,343,359,203,112,138,79,124,117,72,57,154,153,88,188,290,229,143,107,117,133,89,55,39,-62,-400,-575,18,691,723,-6,-634,-762,-423,-94,65,66,18,-45,-114,-168,-173,-139,-156,-110,-17,-11,-26,-105,-145,-217,-317,-455,-599,-740,-866,-959,-989,-1041,-1074,-1073,-1012,-1016,-987,-914,-833,-834,-843,-781,-429,-443,-473,-259,1
2018-05-17,10:42:44.026,380,471,291,344,307,295,1018,2038,2499,1655,424,113,458,701,778,654,585,501,427,449,427,547,486,575,510,439,492,623,689,587,504,481,384,306,237,87,9,-31,-151,-219,-229,-157,-120,-22,36,51,115,234,200,191,153,64,-8,-86,-82,-141,-292,-751,-1062,-313,581,488,-744,-1788,-1739,-1188,-799,-657,-633,-643,-699,-791,-903,-989,-1005,-1054,-1027,-1090,-1076,-1039,-1182,-1131,-1092,-1058,-895,-569,-432,-352,-482,-550,-519,-575,-263,-18,61,691,793,557,644,805,588,964,681,41,690,948,378,34,110,-20,-515,-100,1051,1397,582,-704,-1092,-849,-362,-145,4,-111,-117,-108,28,-58,-62,-32
2018-05-17,10:42:45.064,27,101,159,229,291,330,342,294,220,197,96,-17,-65,-93,-67,-56,-106,-94,-99,-97,-219,-387,-472,-444,-508,-511,-500,-563,-582,-606,-613,-634,-689,-851,-1243,-1198,-539,-177,-525,-1372,-1675,-1473,-1107,-855,-724,-638,-595,-545,-561,-597,-557,-605,-353,20,179,198,299,364,470,869,1188,1239,1308,1237,1030,979,706,595,825,778,591,423,450,396,351,673,640,596,496,443,327,211,95,-17,59,73,-295,-135,1135,1877,1236,-195,-821,-557,22,340,428,428,443,382,321,379,441,446,465,565,571,514,475,392,429,354,225,71,-132,-251,-390,-474,-531,-554,-516,-475,-470,-463,-373,-342,-398,-357
2018-05-17,10:42:46.101,-361,-422,-509,-653,-767,-799,-840,-826,-768,-824,-1189,-1082,46,811,237,-988,-1545,-1136,-523,-9,119,371,663,661,563,228,-341,223,2058,1242,787,1965,2268,1213,838,974,914,606,609,645,506,418,355,327,295,261,240,266,232,162,137,227,280,306,249,232,192,195,163,161,210,65,-281,-53,676,910,380,-620,-891,-638,-217,4,108,83,-5,-24,-36,-67,-104,-119,-194,-211,-212,-255,-276,-240,-261,-289,-284,-275,-303,-326,-374,-477,-602,-748,-946,-1080,-1164,-1203,-1166,-1116,-1063,-983,-932,-910,-912,-923,-1099,-1330,-972,-612,-403,-337,-557,-194,987,2003,2194,1230,603,767,1031,1175,1315,1268,943,988
2018-05-17,10:42:47.138,1114,1029,828,649,648,713,678,662,634,636,602,593,463,356,270,189,173,164,172,178,102,45,37,-59,-38,-47,63,96,260,305,315,250,219,141,114,178,204,187,4,-371,-58,883,1113,348,-900,-1340,-1009,-602,-350,-288,-338,-350,-418,-444,-458,-496,-531,-600,-702,-796,-861,-859,-878,-900,-929,-941,-914,-860,-836,-778,-786,-930,-1080,-900,-515,-272,-31,205,67,-34,113,159,229,205,130,132,209,338,578,506,64,-476,-239,805,1244,610,-471,-1042,-928,-230,56,87,-11,-3,142,130,124,281,228,185,236,209,283,357,294,201,199,178,56,-5,10,-45,-65,-116,-186,-235,-288,-241
2018-05-17,10:42:48.175,-259,-231,-195,-224,-186,-147,-146,-172,-243,-292,-334,-371,-396,-399,-505,-794,-831,-103,521,391,-457,-1023,-1007,-694,-468,-418,-545,-674,-755,-713,-681,-616,-578,-421,-300,-270,-280,-292,-225,-134,-227,-76,212,363,424,348,267,448,616,734,835,848,655,844,817,460,508,758,587,342,237,243,215,302,363,361,360,118,-347,208,1530,1680,649,-719,-922,-252,92,540,616,446,524,504,556,522,491,513,611,591,523,563,538,481,402,368,373,398,237,-2,-156,-242,-340,-354,-444,-487,-528,-541,-501,-491,-446,-429,-353,-366,-419,-526,-639,-791,-965,-1110,-1216,-1305,-1524,-1789,-1320,-293,86,-558,-1466,-1589
2018-05-17,10:42:49.212,-1181,-789,-531,-466,-414,-199,-23,192,401,489,523,657,931,1104,1275,1383,1309,1248,1187,1100,971,841,744,640,576,436,412,403,360,299,307,208,160,206,260,343,294,198,158,151,163,113,104,140,86,69,-267,59,960,1109,388,-540,-693,-414,-17,124,177,214,204,257,207,165,184,172,91,69,37,-47,-120,-224,-246,-293,-303,-343,-365,-392,-417,-503,-497,-517,-584,-675,-787,-935,-1042,-1062,-1040,-972,-864,-825,-820,-847,-981,-1208,-1481,-1501,-1168,-1057,-1109,-1205,-541,663,1347,800,-106,-250,59,605,1242,1382,1472,1424,1359,1281,1478,1391,1103,945,947,909,919,896,729,694,691,589,368,359
2018-05-17,10:42:50.250,237,163,94,190,234,269,221,309,365,356,248,264,297,296,326,301,302,171,103,15,45,-49,-140,-140,-284,-791,-417,602,699,-245,-1385,-1672,-1263,-680,-408,-340,-316,-344,-399,-414,-485,-613,-769,-955,-1141,-1173,-1058,-1018,-1094,-1173,-1185,-1081,-1063,-1079,-1000,-1066,-1100,-1110,-972,-967,-796,-426,-270,-91,156,261,605,1203,1398,732,345,1469,2908,2204,1247,575,1570,1543,939,444,1107,1862,1799,678,-251,-354,-31,348,372,282,163,196,101,61,168,226,183,154,134,177,222,221,70,58,108,118,146,174,80,-7,-75,-66,-28,-40,-34,-33,-20,15,52,34,-60,-123,-189,-268,-403,-461,-510,-530
2018-05-17,10:42:51.287,-573,-592,-625,-749,-1106,-1166,-458,-15,-455,-1583,-2255,-2209,-1782,-1406,-1214,-1111,-1009,-962,-1080,-1025,-710,-362,-279,-243,255,867,1006,989,1375,1459,1088,1203,1214,1102,998,765,637,544,404,417,427,327,295,405,412,279,247,277,306,73,43,-94,-95,-71,-38,89,136,5,-394,174,1503,1685,541,-947,-1211,-509,172,578,666,511,473,433,477,447,299,325,329,361,333,233,257,185,84,-124,-273,-365,-461,-570,-673,-741,-780,-815,-856,-908,-950,-1055,-1144,-1249,-1356,-1493,-1564,-1517,-1487,-1390,-1317,-1301,-1290,-1206,-1155,-1121,-1029,-1099,-1402,-1157,-40,680,473,-515,-850,-353,270,506,797,1040,987,718,686,942
2018-05-17,10:42:52.324,912,630,617,629,492,440,450,407,367,285,296,353,213,130,-46,-22,-128,-220,-160,-171,85,156,-1,3,19,-96,-73,21,70,77,45,-23,-168,-152,-122,-175,-175,-185,-411,-624,-224,405,404,-342,-1132,-1284,-1007,-662,-464,-390,-432,-406,-366,-389,-394,-400,-453,-550,-653,-798,-949,-1074,-1074,-1068,-1040,-947,-934,-1001,-1036,-1128,-1147,-1083,-1040,-976,-801,-736,-590,-331,122,454,792,1095,1379,1459,1485,1427,1365,1382,1284,1024,911,830,435,-219,533,2032,2182,620,-630,-683,-148,331,612,486,596,560,574,597,607,607,538,458,562,593,619,692,606,543,562,441,309,151,13,-130,-208,-337,-300,-352
2018-05-17,10:42:53.361,-336,-273,-235,-204,-219,-218,-206,-324,-355,-306,-305,-339,-396,-397,-409,-385,-351,-337,-299,-485,-971,-947,-86,376,-84,-1171,-1577,-1282,-769,-408,-224,-126,-14,54,91,114,186,224,286,362,474,609,716,735,922,1076,1014,1051,1157,1019,856,878,810,590,536,506,451,340,336,333,405,344,440,577,461,500,449,313,232,240,210,233,201,306,231,-154,-143,744,1256,912,-225,-700,-578,-147,131,291,278,190,132,134,66,9,-10,-41,-21,26,15,-58,-166,-252,-288,-339,-338,-336,-351,-393,-416,-377,-371,-428,-427,-450,-522,-567,-614,-712,-787,-833,-871,-829,-743,-654,-614,-624,-665,-643,-571,-549
2018-05-17,10:42:54.398,-426,-356,-718,-776,-75,927,1255,635,-212,-295,186,485,580,724,742,689,563,685,697,655,615,348,351,561,489,382,341,427,335,244,114,126,244,190,32,63,161,180,264,72,100,171,52,3,111,128,153,19,24,6,-125,-235,-283,-275,-230,-136,-150,-154,-313,-738,-505,491,809,66,-1138,-1629,-1374,-831,-489,-377,-382,-366,-345,-303,-290,-318,-291,-322,-412,-490,-589,-619,-646,-645,-555,-477,-442,-348,-307,-388,-438,-536,-503,-342,-373,-224,63,200,202,196,278,486,568,749,1050,845,609,541,439,377,422,404,569,403,-199,-407,455,1563,1408,111,-576,-622,-198,238,513,508,524,282
2018-05-17,10:42:55.436,533,308,434,489,734,690,691,644,515,597,575,536,489,349,205,102,62,18,-50,-122,-89,-127,-230,-336,-370,-342,-382,-434,-400,-377,-395,-343,-337,-362,-315,-298,-350,-364,-375,-459,-567,-755,-1047,-1322,-977,-150,200,-337,-1292,-1549,-1167,-784,-667,-532,-508,-445,-408,-277,24,283,394,353,333,291,645,993,913,468,929,1447,973,1075,1183,969,1025,719,500,424,446,338,274,418,191,225,421,407,200,233,219,165,88,207,234,194,372,339,411,355,147,-42,804,1421,987,-108,-813,-746,-140,239,353,283,313,286,242,125,42,-24,-71,-186,-257,-266,-297,-273,-308,-371,-420,-421,-506,-613
2018-05-17,10:42:56.473,-734,-872,-960,-1051,-1115,-1109,-1096,-1064,-1000,-980,-964,-921,-850,-724,-633,-460,-417,-589,-285,-86,-83,228,395,380,528,651,161,-188,681,1849,1721,338,-715,-597,-220,-55,68,124,185,60,7,69,84,68,42,41,64,66,69,78,123,94,-9,-150,-287,-268,-331,-302,-318,-380,-435,-453,-403,-423,-450,-424,-359,-408,-400,-356,-333,-323,-236,-216,-199,-229,-274,-305,-326,-333,-341,-339,-409,-746,-742,111,674,323,-673,-1249,-1145,-681,-383,-216,-194,-212,-209,-207,-194,-174,-164,-159,-123,-103,-138,-154,-148,-149,-183,-177,-187,-213,-241,-259,-247,-252,-240,-211,-157,-104,-70,-41,-4,34,82,142,162,169
2018-05-17,10:42:57.510,203,245,290,292,247,166,153,142,143,163,166,7,-282,108,1147,1589,979,-84,-381,-191,104,278,410,439,444,441,445,450,436,457,475,459,456,462,445,430,381,349,336,297,241,159,116,93,64,42,16,8,0,17,29,6,7,12,29,34,10,46,96,101,86,27,-10,-13,-19,-16,-20,-35,-263,-659,-140,1100,1440,487,-901,-1120,-534,-91,127,164,129,119,114,82,156,190,161,156,128,192,203,272,220,220,215,67,9,-49,-104,-110,-169,-273,-267,-49,-99,-160,-154,-113,-88,-123,-113,-27,-37,-85,-116,-12,44,-29,-101,-19,23,-78,-13,-10,-46,-61,-176,-621
2018-05-17,10:42:58.547,60,1312,1247,-138,-1221,-1089,-535,-31,220,356,338,372,315,267,310,262,308,384,350,368,285,280,333,353,346,233,246,131,-3,-138,-69,18,-90,-176,-89,-39,-96,-102,-99,-82,-76,-70,-50,-20,-77,-37,-16,-8,-27,-66,-93,-119,-64,-49,-83,-152,-420,-449,325,791,397,-510,-978,-867,-443,-154,-15,1,-3,0,0,-5,6,6,5,15,7,2,-21,-32,-67,-96,-128,-152,-182,-228,-251,-261,-263,-244,-240,-218,-201,-178,-139,-91,-84,-96,-98,-70,-72,-82,-48,-38,-26,-33,-77,-112,-107,-86,-84,-83,-105,-344,-603,-13,928,1034,184,-808,-938,-539,-187,5,70,52,63,77
2018-05-17,10:42:59.584,75,90,103,113,137,168,188,190,204,180,163,138,103,62,6,-33,-72,-100,-139,-139,-130,-115,-116,-124,-93,-96,-105,-118,-104,-73,-68,-64,-13,28,29,-3,-71,-91,-91,-79,-67,-66,-113,-461,-591,329,1152,880,-291,-1139,-931,-369,-62,105,127,122,102,109,103,105,121,141,152,170,190,196,189,164,130,93,47,-11,-78,-127,-182,-213,-194,-184,-164,-150,-147,-147,-147,-126,-98,-98,-120,-77,-50,-60,-29,27,51,37,-4,-37,-53,-52,-62,-51,-47,-190,-550,-261,728,1032,338,-776,-1066,-721,-240,16,104,102,103,112,122,123,136,142,138,163,186,200,191,168,162,153
2018-05-17,10:43:00.621,116,75,10,-57,-104,-116,-143,-138,-155,-160,-136,-127,-114,-107,-98,-80,-79,-81,-85,-91,-43,-2,10,-2,-31,-67,-70,-74,-90,-92,-118,-341,-471,184,862,732,-147,-811,-813,-454,-121,50,96,82,85,79,105,127,109,116,136,167,162,161,156,133,117,85,74,34,-12,-56,-97,-109,-118,-141,-150,-133,-108,-95,-91,-77,-89,-104,-63,-41,-54,-32,7,24,17,0,-31,-48,-64,-69,-49,-52,-175,-462,-294,537,949,499,-492,-871,-589,-199,5,83,96,100,88,66,84,119,121,124,125,149,167,158,147,137,135,100,59,12,-34,-77,-108,-112,-98,-94,-91,-93,-83,-73
2018-05-17,10:43:01.659,-77,-90,-100,-88,-42,-37,-48,-1,38,72,55,1,-39,-42,-36,-43,-56,-130,-457,-511,370,1062,821,-354,-1127,-831,-291,-9,98,98,92,92,100,114,135,144,140,154,176,196,197,185,135,88,44,-24,-98,-170,-224,-262,-292,-312,-316,-317,-317,-329,-338,-343,-337,-347,-370,-362,-347,-368,-389,-347,-321,-328,-380,-427,-470,-477,-490,-511,-518,-558,-897,-1192,-334,698,625,-653,-1684,-1573,-987,-619,-427,-408,-407,-387,-376,-363,-336,-313,-284,-244,-206,-157,-142,-151,-172,-183,-176,-196,-246,-307,-350,-374,-375,-375,-366,-340,-318,-283,-265,-237,-220,-195,-170,-156,-106,-85,-83,-14,42,66,63,59
2018-05-17,10:43:02.696,39,48,67,71,69,58,-150,-392,220,1053,1059,172,-644,-669,-283,78,276,373,373,356,384,389,387,410,433,460,485,486,461,477,477,462,449,423,355,280,225,204,178,158,162,173,170,168,184,194,206,203,215,231,255,256,258,292,313,313,287,256,219,209,215,220,239,185,-74,-164,480,1062,941,99,-519,-463,-102,148,295,334,339,325,307,312,330,323,340,361,371,374,378,361,328,316,319,310,257,186,131,93,77,60,58,65,51,56,52,57,80,74,64,72,107,95,84,130,152,135,108,61,31,41,35,25,37,-13,-297,-373,401,1052,883,-144
2018-05-17,10:43:03.733,-841,-584,-154,65,155,168,162,155,143,155,173,186,179,195,214,238,226,219,201,163,133,104,72,17,-6,-39,-65,-55,-66,-51,-50,-59,-42,-24,-32,-40,-37,-27,-10,13,10,10,61,74,59,42,3,-15,-30,-36,-47,-37,-138,-508,-457,520,1116,697,-517,-1047,-702,-236,19,105,116,114,116,107,109,109,142,174,177,192,203,202,173,157,126,90,34,-14,-72,-113,-139,-156,-161,-157,-159,-148,-137,-128,-114,-102,-106,-102,-97,-85,-69,-76,-87,-26,-3,-20,-74,-113,-134,-132,-112,-101,-110,-197,-555,-594,356,1121,777,-561,-1268,-940,-403,-114,19,17,-10,-15,5,18
2018-05-17,10:43:04.770,40,62,55,71,71,85,99,69,23,0,-31,-81,-134,-186,-237,-284,-314,-329,-309,-281,-273,-278,-287,-280,-283,-270,-242,-254,-265,-257,-221,-223,-212,-165,-140,-154,-196,-210,-222,-238,-224,-203,-226,-281,-560,-603,209,805,514,-546,-1060,-912,-460,-187,-30,-8,-4,-3,4,19,31,29,43,68,84,88,100,82,73,59,42,-4,-54,-113,-168,-185,-215,-212,-192,-183,-184,-191,-179,-145,-122,-116,-115,-135,-110,-75,-75,-73,-22,11,27,11,-30,-57,-53,-49,-44,-56,-60,-215,-478,-77,716,879,215,-619,-744,-442,-115,61,114,108,105,123,136,124,139,159,185,207,210,208,222,197
2018-05-17,10:43:05.807,160,135,109,73,44,-7,-37,-63,-63,-52,-40,-35,-35,-37,-28,-12,-3,-9,-20,-12,25,34,15,63,111,116,123,85,44,48,43,42,55,47,-97,-403,-134,675,1008,491,-539,-807,-408,-36,114,174,182,190,192,204,222,218,234,239,244,275,297,271,237,212,182,162,123,68,1,-56,-88,-128,-142,-141,-145,-149,-148,-139,-149,-139,-121,-116,-137,-142,-119,-101,-120,-154,-113,-60,-65,-126,-181,-206,-213,-219,-228,-237,-313,-644,-685,219,890,588,-638,-1295,-933,-416,-174,-79,-55,-25,-28,-45,-53,-44,-14,0,17,43,49,77,83,68,30,-9,-59,-113,-155,-190,-207,-229
2018-05-17,10:43:06.845,-223,-204,-202,-194,-182,-165,-151,-138,-123,-123,-108,-95,-83,-79,-65,-53,-68,-35,21,48,51,23,-19,-6,3,9,47,47,-110,-480,-200,806,1199,538,-655,-942,-521,-85,146,243,240,240,238,224,208,237,273,299,300,316,328,308,285,279,264,226,184,130,62,24,-9,-24,-40,-61,-59,-28,-15,-11,-10,0,-5,-10,-14,-4,8,23,32,22,35,91,124,132,100,57,39,43,38,46,65,16,-226,-354,288,955,838,-88,-765,-706,-292,-2,136,181,162,179,181,164,163,177,192,204,214,205,214,207,193,189,177,130,70,23,-20,-40,-59,-78,-90,-84,-76,-69
2018-05-17,10:43:17.483,-145,-162,-149,-141,-160,-153,-108,-97,-126,-163,-197,-202,-199,-216,-246,-254,-297,-540,-725,-146,547,499,-338,-1080,-1100,-749,-439,-283,-250,-260,-273,-259,-241,-247,-264,-250,-218,-196,-174,-181,-201,-228,-246,-269,-304,-339,-384,-430,-467,-469,-455,-441,-441,-417,-381,-379,-366,-355,-327,-300,-302,-300,-290,-260,-214,-216,-199,-159,-134,-104,-99,-124,-131,-123,-108,-86,-82,-115,-273,-521,-105,699,878,284,-643,-822,-412,-30,156,223,248,257,274,284,284,299,315,339,368,384,420,433,413,399,377,326,275,206,156,129,112,124,108,108,126,121,155,173,169,172,196,217,219,220,238,250,255,255
2018-05-17,10:43:18.033,303,341,346,324,271,243,250,252,237,231,227,75,-179,132,900,1149,619,-381,-620,-197,156,303,347,363,350,339,336,334,345,345,334,362,399,408,393,389,374,332,291,247,199,148,118,97,80,56,49,57,55,63,70,78,88,88,88,89,77,86,112,104,83,120,156,152,104,61,27,13,11,-2,-16,-47,-313,-549,123,943,910,-114,-1006,-892,-347,-42,88,110,115,93,89,89,95,118,124,114,129,153,166,161,136,100,47,-2,-66,-114,-150,-203,-217,-245,-256,-245,-225,-203,-194,-192,-178,-168,-167,-159,-167,-163,-133,-133,-154,-91,-49,-67,-104,-149,-177,-162
2018-05-17,10:43:19.070,-176,-177,-155,-192,-458,-723,-44,868,908,-110,-1084,-1017,-482,-135,18,41,57,63,62,50,74,96,91,116,145,166,161,151,159,117,101,67,8,-72,-140,-157,-188,-203,-191,-187,-186,-177,-175,-164,-155,-130,-127,-110,-86,-87,-84,-94,-78,-27,27,22,-30,-80,-91,-83,-69,-47,-53,-96,-336,-422,237,809,678,-221,-831,-788,-423,-105,80,132,124,103,108,136,172,170,164,183,221,239,245,226,213,199,172,107,52,5,-34,-80,-90,-116,-110,-100,-84,-65,-55,-41,-31,-36,-38,-31,-17,26,25,15,50,83,96,77,28,-2,4,0,1,-6,-11,-153,-482,-230,658,1002
2018-05-17,10:43:20.107,447,-677,-929,-496,-108,58,100,112,96,75,55,43,38,42,63,81,81,83,75,71,47,12,-19,-77,-136,-189,-225,-242,-261,-276,-244,-253,-255,-256,-247,-226,-224,-235,-235,-229,-227,-198,-188,-190,-146,-112,-96,-114,-147,-190,-193,-188,-199,-177,-175,-370,-753,-354,679,1027,264,-989,-1219,-713,-253,-29,49,66,72,76,84,85,94,116,145,184,209,219,226,204,165,133,81,4,-62,-101,-132,-153,-168,-180,-145,-116,-120,-99,-89,-87,-63,-42,-40,-53,-39,-12,-3,-31,-34,21,55,77,71,35,20,15,-9,-1,23,-26,-322,-432,334,1026,848,-194,-885,-801,-333,-6,143,173
2018-05-17,10:43:21.144,189,184,185,188,177,180,192,224,267,294,286,268,253,236,196,140,79,28,-16,-43,-64,-88,-107,-129,-120,-81,-58,-58,-61,-39,-20,-32,-20,18,14,-2,46,96,99,71,52,46,31,0,-1,6,-4,-104,-396,-241,578,923,523,-465,-774,-551,-192,22,131,145,138,128,132,145,168,176,177,187,203,219,228,223,202,168,125,91,40,3,-31,-56,-77,-82,-85,-93,-77,-68,-82,-75,-47,-41,-30,-23,-6,13,6,0,41,76,90,59,-1,-35,-40,-21,-25,-10,-25,-228,-520,-74,786,986,297,-720,-873,-455,-112,47,106,109,79,86,94,113,135,127,143,165
2018-05-17,10:43:22.181,193,201,202,189,157,116,68,16,-45,-92,-122,-123,-120,-141,-152,-148,-132,-131,-136,-112,-113,-113,-108,-90,-82,-63,-41,-49,-60,-5,40,33,-19,-53,-64,-64,-58,-68,-71,-92,-345,-604,9,916,1011,88,-1015,-987,-429,-82,57,83,86,75,76,75,80,90,109,121,156,177,180,182,166,147,110,62,-14,-88,-130,-175,-179,-189,-187,-166,-144,-134,-145,-126,-114,-124,-131,-119,-105,-96,-89,-87,-101,-81,-66,-74,-70,-8,17,-12,-45,-72,-90,-87,-73,-94,-87,-182,-547,-443,569,1136,628,-655,-1152,-742,-261,-7,92,103,106,104,102,106,106,110,152,174,192,214,226,195
2018-05-17,10:43:23.219,160,145,128,94,28,-22,-55,-95,-106,-121,-109,-96,-90,-71,-58,-54,-43,-42,-51,-54,-45,-38,-46,-47,-23,-25,-33,-38,-28,15,19,-21,-53,-75,-97,-125,-131,-144,-166,-265,-546,-520,248,700,355,-632,-1061,-924,-553,-332,-212,-191,-198,-225,-222,-197,-196,-202,-210,-226,-189,-157,-163,-178,-190,-221,-253,-290,-344,-393,-432,-451,-460,-462,-464,-469,-478,-471,-455,-402,-374,-370,-359,-340,-309,-288,-275,-264,-253,-226,-213,-164,-128,-124,-124,-137,-153,-125,-127,-134,-123,-130,-280,-546,-104,731,939,259,-724,-829,-385,-67,84,135,144,144,138,146,150,165,198,223,238,246,257,264,265,241
2018-05-17,10:43:24.256,225,198,155,95,75,50,36,16,20,20,43,41,43,42,53,60,78,89,108,113,115,119,106,117,110,108,122,180,217,217,184,152,127,109,121,111,102,50,-257,-415,398,1253,1082,-99,-955,-896,-377,-15,206,276,285,279,280,282,282,279,332,344,357,397,421,417,410,342,250,185,114,44,-33,-75,-94,-103,-110,-126,-129,-130,-102,-75,-64,-49,-52,-49,-53,-40,-27,-19,-24,-28,6,23,0,28,75,68,43,51,-32,-74,-53,-56,-25,-24,-245,-657,-311,818,1205,550,-773,-1050,-709,-212,134,364,279,161,123,256,358,361,321,327,381,376,373,404,408,365
2018-05-17,10:43:25.293,310,238,136,49,0,-47,-135,-172,-178,-165,-164,-189,-163,-157,-141,-122,-113,-105,-99,-68,-62,-72,-71,-72,-81,-25,49,70,50,13,-14,-32,-22,-11,-4,10,2,-240,-427,221,996,815,-124,-879,-908,-627,-227,8,113,119,104,82,34,6,-42,-51,61,-37,-35,-59,67,281,271,217,166,136,139,70,-62,-145,-115,11,31,-31,11,116,177,101,80,-20,28,80,41,34,65,18,23,28,36,32,-1,-56,-92,-127,-169,-189,-204,-233,-370,-661,-359,628,864,214,-800,-1063,-874,-404,-50,128,166,177,176,195,168,153,170,215,271,324,352,388,429,412,349,264,132,24
