2018-05-17,14:37:57.458,-1587,-1562,-1493,-1356,-1134,-840,-485,-106,235,505,693,790,814,790,723,651,597,555,509,448,398,343,295,293,276,276,272,273,277,270,259,270,282,273,265,262,248,223,197,172,124,98,94,70,36,26,22,6,-24,-35,-22,-31,-60,-74,-109,-128,-121,-130,-149,-178,-175,-157,-159,-163,-153,-146,-136,-128,-110,-106,-123,-135,-127,-106,-95,-75,-38,-16,-14,-74,-197,-257,-182,-142,-119,19,54,149,302,356,395,422,431,421,260,-432,-1066,-1329,1020,2794,3407,3143,1996,695,27,-176,-159,-137,-155,-127,-121,-123,-96,-105,-115,-140,-190,-260,-360,-486,-603,-723,-819,-854,-836,-730,-590,-370
2018-05-17,14:37:58.732,-67,280,650,974,1227,1412,1485,1508,1483,1413,1345,1253,1158,1064,973,918,857,803,774,722,694,683,654,632,635,614,598,556,505,490,460,418,409,380,355,320,279,234,223,176,120,99,83,76,12,-6,6,-51,-109,-120,-147,-166,-168,-187,-211,-223,-235,-253,-326,-501,-556,-498,-513,-537,-434,-415,-300,-184,-174,-204,-216,-218,-260,-363,-1012,-1735,-2414,-827,1157,1915,2201,1523,313,-484,-886,-974,-977,-1012,-1038,-1051,-1042,-1011,-1007,-1039,-1083,-1141,-1208,-1288,-1390,-1523,-1641,-1689,-1707,-1688,-1593,-1456,-1242,-993,-714,-393,-69,195,362,479,523,498,471,412,356,291,220,170,139,106,91,94,96,113
2018-05-17,14:37:59.770,120,125,150,151,175,189,202,239,286,297,306,320,350,371,373,380,395,410,405,389,405,409,422,440,469,469,485,509,503,476,397,326,363,397,368,438,510,570,728,792,798,826,847,849,820,440,-399,-877,-937,1260,2187,2724,2918,2296,1247,649,350,269,243,212,189,174,153,131,109,80,25,-71,-174,-291,-413,-560,-701,-777,-831,-832,-759,-671,-525,-301,-20,254,465,611,685,697,663,609,509,406,313,220,157,119,76,9,-73,-126,-142,-145,-156,-180,-161,-178,-194,-193,-213,-242,-237,-247,-258,-254,-272,-314,-347,-374,-395,-402,-410,-448,-481,-490,-507,-551,-549,-556,-679,-896
2018-05-17,14:38:00.807,-959,-875,-820,-837,-694,-661,-572,-446,-400,-381,-350,-370,-411,-624,-1377,-2010,-2300,-255,1557,2258,2090,1038,-167,-792,-1065,-1079,-1069,-1049,-1053,-1037,-1032,-1068,-1060,-1063,-1091,-1149,-1225,-1309,-1449,-1610,-1749,-1832,-1863,-1803,-1714,-1545,-1272,-911,-519,-115,224,479,643,720,730,708,680,611,527,453,405,355,288,232,194,184,184,168,159,155,142,133,141,158,167,148,142,129,127,125,103,62,56,39,37,41,23,17,21,-40,-222,-394,-399,-319,-310,-268,-115,-69,49,125,134,152,157,134,85,-203,-1093,-1699,-1720,752,2224,2836,2390,1210,107,-443,-618,-608,-637,-658,-654,-645,-650,-676,-688,-676,-704,-774
2018-05-17,14:38:01.844,-862,-968,-1104,-1260,-1358,-1415,-1439,-1368,-1224,-1015,-718,-344,59,457,763,978,1104,1152,1144,1101,1026,971,922,843,779,696,645,617,581,565,550,529,527,518,488,493,521,529,515,508,501,489,462,440,437,409,371,367,351,347,329,292,192,13,-68,-30,-16,-63,21,135,193,272,312,313,305,305,271,207,-241,-1102,-1654,-1514,732,1679,2245,2149,1351,349,-169,-384,-402,-396,-415,-441,-458,-477,-484,-514,-537,-572,-629,-720,-816,-889,-980,-1077,-1131,-1113,-1069,-990,-860,-673,-406,-107,171,406,609,707,735,734,702,653,581,507,440,369,315,283,243,185,151,149,158,165,170,169,169,168
2018-05-17,14:38:02.881,176,182,185,191,166,133,127,114,89,54,33,16,-62,-218,-311,-258,-225,-265,-215,-112,-90,4,47,66,92,82,58,14,-302,-1175,-1668,-1820,222,1353,1838,1872,1272,323,-255,-525,-558,-574,-586,-592,-601,-618,-634,-632,-652,-688,-746,-809,-892,-1019,-1134,-1206,-1255,-1275,-1261,-1188,-1048,-845,-559,-272,40,328,512,622,668,674,662,613,546,468,381,314,260,206,154,122,115,102,99,105,95,79,87,80,84,117,119,115,130,125,121,110,83,68,76,87,84,61,60,46,5,-105,-259,-305,-223,-138,-109,26,94,181,309,381,406,422,415,420,380,-152,-1004,-1378,-401,2024,2921,3102
2018-05-17,14:38:03.918,2275,1152,373,-20,-85,-58,-24,-23,-42,-55,-39,-34,-63,-69,-122,-221,-315,-409,-522,-639,-746,-805,-793,-713,-599,-378,-65,298,674,1008,1280,1476,1533,1543,1530,1468,1395,1303,1226,1144,1067,981,882,816,782,757,708,660,656,633,586,570,540,532,513,478,462,453,432,389,343,340,314,280,239,200,155,117,92,87,67,52,-5,-51,-64,-100,-151,-293,-459,-515,-489,-461,-476,-347,-322,-258,-149,-114,-123,-128,-137,-173,-326,-1026,-1789,-2189,-363,1721,2402,2286,1281,17,-666,-979,-990,-993,-1008,-1011,-1032,-1038,-1055,-1085,-1099,-1142,-1194,-1250,-1334,-1468,-1628,-1764,-1852,-1866,-1833,-1745,-1623,-1415,-1096,-732
2018-05-17,14:38:04.956,-342,30,311,495,573,607,587,536,496,449,362,292,242,182,139,90,53,51,49,59,80,92,78,75,67,82,72,53,44,49,34,60,60,44,14,-11,-32,-50,-69,-87,-102,-93,-90,-95,-107,-127,-151,-148,-147,-155,-185,-266,-414,-488,-429,-379,-425,-322,-207,-148,-58,14,25,20,23,18,-63,-640,-1444,-1961,-1122,1120,1894,2295,1864,832,-62,-505,-607,-577,-610,-621,-627,-659,-659,-638,-654,-688,-737,-795,-874,-980,-1088,-1180,-1252,-1294,-1296,-1235,-1133,-968,-735,-477,-175,159,435,629,755,821,815,789,725,634,574,522,457,398,327,283,273,247,232,213,223,230,222,215,204,210
2018-05-17,14:38:05.993,211,209,211,201,189,183,145,126,106,84,81,88,68,62,55,34,28,21,27,35,12,-5,-1,-101,-249,-258,-211,-179,-212,-84,0,89,147,188,211,217,216,188,42,-616,-1325,-1726,-584,1302,1863,2209,1931,1046,240,-192,-287,-290,-309,-328,-329,-322,-336,-350,-363,-392,-425,-474,-549,-639,-739,-846,-940,-980,-986,-950,-851,-672,-434,-143,152,429,674,838,936,984,996,946,892,828,758,691,628,554,502,460,412,387,374,372,352,339,338,338,356,360,350,359,348,311,310,291,267,255,227,200,201,176,152,138,117,109,103,83,42,43,49,30,0,-24,-39,-55,-202,-387
2018-05-17,14:38:07.030,-399,-335,-299,-278,-128,-112,-32,89,121,122,137,118,92,-128,-928,-1565,-1773,305,1957,2503,2343,1385,227,-389,-679,-685,-671,-702,-719,-703,-690,-708,-705,-722,-771,-852,-924,-993,-1121,-1266,-1400,-1495,-1529,-1512,-1428,-1288,-1065,-750,-372,10,356,646,821,913,947,922,886,837,748,661,593,537,464,396,351,318,301,282,263,247,247,251,247,246,246,229,233,251,252,243,207,173,140,138,125,115,99,82,64,52,22,-16,-23,-20,-18,-46,-66,-65,-69,-56,-44,-78,-247,-437,-467,-412,-376,-336,-165,-127,-28,66,124,146,155,148,121,-126,-937,-1544,-1676,690,2287,2859,2479,1320,150,-450
2018-05-17,14:38:08.067,-665,-659,-668,-700,-702,-699,-701,-718,-738,-735,-757,-839,-931,-1045,-1173,-1303,-1424,-1511,-1550,-1509,-1434,-1282,-1033,-702,-327,71,425,692,867,953,970,934,880,816,731,664,592,522,496,473,412,383,371,345,338,341,357,362,352,345,357,375,365,365,362,366,354,340,352,347,324,318,320,308,295,271,275,233,111,-13,11,83,57,74,243,302,410,485,531,552,547,533,536,394,-350,-1029,-1532,-17,1691,2364,2641,2147,1157,439,62,-26,-19,-33,-73,-103,-126,-141,-155,-163,-207,-257,-337,-419,-530,-672,-797,-881,-913,-921,-884,-789,-630,-406,-123,175,467,695,838,908,923,897,847,757
2018-05-17,14:38:09.104,682,588,502,438,414,360,308,270,215,180,150,151,143,126,134,152,137,102,74,78,49,27,14,-25,-47,-68,-98,-114,-124,-151,-183,-272,-414,-495,-464,-427,-464,-409,-299,-273,-165,-112,-105,-91,-95,-144,-193,-459,-1312,-1853,-2169,-249,918,1323,1566,1203,325,-287,-627,-681,-669,-706,-705,-705,-721,-728,-737,-753,-768,-816,-865,-933,-1048,-1145,-1240,-1301,-1333,-1291,-1210,-1105,-936,-706,-446,-146,131,358,499,559,581,584,546,480,418,365,297,250,216,166,130,114,85,96,93,70,73,72,86,106,128,127,119,122,115,118,119,117,106,103,105,99,60,-28,-187,-270,-225,-195,-212,-162
2018-05-17,14:38:10.141,-40,-2,130,177,171,170,188,186,142,-190,-1032,-1553,-1664,318,1567,2035,2029,1395,429,-170,-434,-462,-451,-472,-497,-498,-522,-548,-562,-593,-625,-647,-714,-823,-941,-1060,-1165,-1216,-1255,-1230,-1159,-1012,-791,-543,-241,99,400,614,764,836,851,845,782,722,654,580,502,450,400,341,311,269,248,224,198,187,189,195,201,199,197,191,169,165,157,116,78,74,44,30,5,-32,-43,-45,-139,-327,-449,-423,-345,-332,-273,-169,-133,-1,85,111,122,138,128,120,-114,-1012,-1580,-1691,744,2231,2724,2326,1334,306,-231,-425,-399,-369,-356,-339,-341,-330,-318,-318,-335,-347,-387,-459,-554,-669,-795,-926
2018-05-17,14:38:11.179,-977,-1003,-953,-860,-689,-423,-69,318,708,1058,1314,1474,1544,1543,1520,1482,1409,1338,1259,1189,1128,1074,1009,959,919,885,858,836,811,811,783,762,750,724,712,693,679,662,617,576,561,527,498,480,452,418,379,350,268,73,-110,-119,-60,-72,-79,38,43,154,219,217,204,207,178,146,-59,-835,-1524,-1854,140,2068,2745,2423,1254,62,-577,-839,-840,-863,-905,-931,-949,-948,-950,-968,-1007,-1044,-1104,-1182,-1280,-1413,-1560,-1690,-1801,-1878,-1870,-1785,-1630,-1406,-1066,-669,-269,101,374,554,653,674,630,591,512,425,326,253,188,135,89,38,-7,-17,-13,-52,-100,-96,-74,-70,-95,-99,-80,-75
2018-05-17,14:38:12.216,-86,-101,-114,-126,-158,-172,-168,-187,-194,-217,-228,-238,-259,-260,-257,-280,-298,-300,-304,-309,-302,-319,-355,-499,-662,-623,-571,-587,-567,-379,-316,-216,-126,-91,-74,-65,-85,-114,-431,-1275,-1871,-1906,416,1698,2282,2109,1157,65,-480,-688,-683,-672,-685,-685,-696,-692,-682,-684,-693,-730,-794,-875,-960,-1067,-1182,-1286,-1346,-1346,-1329,-1238,-1077,-877,-617,-291,22,335,607,776,859,867,864,832,771,697,620,552,506,459,424,404,371,339,313,307,310,314,326,345,343,333,329,325,333,322,306,291,270,238,109,-28,-85,-28,-18,-99,-10,90,171,274,291,269,267,243,220,186,-136,-1016,-1525,-1806
2018-05-17,14:38:13.253,369,1334,1779,1945,1445,527,-32,-329,-369,-363,-372,-399,-406,-402,-415,-438,-469,-508,-549,-606,-698,-813,-922,-1017,-1052,-1071,-1054,-978,-839,-662,-441,-169,104,347,544,700,765,766,737,685,633,576,492,432,376,320,272,242,241,214,189,190,199,207,222,243,259,273,264,258,243,234,213,199,191,165,160,146,118,105,107,104,92,67,37,-11,-170,-306,-267,-193,-197,-196,-58,-27,74,157,171,178,176,162,142,-24,-754,-1431,-1754,-207,1475,1969,2120,1585,600,-90,-440,-505,-526,-541,-551,-570,-582,-586,-586,-576,-605,-646,-703,-803,-896,-1014,-1144,-1238,-1287,-1292,-1240,-1127,-951,-704,-408,-71
2018-05-17,14:38:14.290,266,517,723,842,873,831,801,749,686,618,555,495,427,388,347,312,301,297,291,295,298,278,266,280,289,281,265,251,266,271,265,232,207,189,187,167,145,144,130,95,89,55,-81,-227,-289,-232,-191,-194,-70,-21,66,178,215,194,194,186,166,78,-497,-1337,-1757,-732,1599,2503,2562,1771,670,-149,-573,-651,-640,-645,-668,-694,-704,-717,-725,-750,-784,-817,-883,-971,-1096,-1245,-1364,-1476,-1550,-1560,-1501,-1385,-1204,-952,-598,-201,182,493,710,832,863,851,819,778,715,645,574,512,443,394,352,317,309,300,275,262,276,275,296,306,302,315,331,327,331,355,358,349,352,384
2018-05-17,14:38:15.327,401,392,394,387,379,373,388,396,408,424,460,479,477,494,513,530,548,520,395,257,246,338,376,413,609,663,781,873,910,940,962,956,925,677,-153,-746,-774,1576,3099,3597,3207,2062,910,292,72,65,51,21,-13,-28,-43,-47,-71,-100,-151,-231,-332,-455,-595,-744,-916,-1051,-1108,-1112,-1061,-946,-755,-463,-108,254,593,883,1058,1133,1154,1127,1044,944,836,749,655,573,487,389,330,268,215,164,106,90,68,50,19,5,-18,-46,-80,-99,-132,-165,-191,-225,-359,-537,-626,-555,-553,-654,-549,-419,-359,-269,-241,-243,-226,-234,-272,-323,-591,-1387,-2001,-2393,-464,929,1530,1683,1068,39
2018-05-17,14:38:16.365,-562,-856,-917,-949,-958,-956,-963,-996,-1007,-1005,-1019,-1043,-1091,-1143,-1219,-1317,-1433,-1536,-1597,-1620,-1600,-1542,-1386,-1171,-923,-623,-299,5,229,364,447,453,441,425,358,287,234,177,117,67,18,-5,-24,-18,-3,6,0,4,24,39,56,49,43,40,34,42,45,44,33,-1,-12,-8,-9,-15,-9,-35,-41,-55,-75,-96,-97,-117,-112,-104,-114,-114,-123,-124,-124,-153,-200,-320,-409,-372,-307,-326,-255,-146,-113,-14,23,18,45,55,27,-25,-519,-1332,-1782,-1372,789,1403,1865,1883,1216,287,-221,-430,-436,-434,-464,-489,-516,-522,-505,-511,-543,-570,-603,-678,-754,-828,-940,-1050,-1133,-1148,-1130,-1073
2018-05-17,14:38:17.402,-961,-779,-543,-272,17,304,548,708,794,847,845,802,727,645,584,525,484,443,409,360,318,309,297,270,272,274,282,286,291,303,305,307,296,277,265,256,233,221,211,195,187,171,97,-83,-222,-199,-145,-179,-169,-52,-13,105,156,185,179,179,155,119,-67,-870,-1532,-1794,50,1760,2359,2227,1391,349,-277,-545,-569,-560,-570,-590,-608,-617,-625,-655,-690,-710,-754,-829,-922,-1031,-1181,-1312,-1411,-1453,-1442,-1367,-1215,-986,-669,-292,74,405,674,866,961,971,949,902,829,759,661,584,522,465,385,310,261,235,211,206,189,175,187,205,201,181,188,164,127,120,126,106,112,106
2018-05-17,14:38:18.439,75,61,46,16,0,-1,-12,-40,-52,-50,-55,-63,-61,-44,-28,-30,-32,-35,-26,-24,-16,-1,17,33,27,41,25,18,40,21,-120,-228,-173,-98,-71,45,154,255,377,438,459,497,504,522,443,-206,-985,-1382,367,2534,3251,3190,2259,1025,272,-48,-69,-80,-92,-105,-114,-123,-141,-156,-180,-214,-255,-312,-410,-533,-685,-844,-978,-1070,-1087,-1047,-954,-816,-596,-282,107,498,847,1077,1207,1281,1304,1264,1196,1113,1008,917,849,798,721,622,554,490,443,418,399,396,384,355,362,341,309,298,274,264,256,237,202,170,141,98,87,54,0,-9,-27,-57,-105,-124,-146,-187,-222,-230
2018-05-17,14:38:19.476,-242,-243,-252,-266,-282,-306,-326,-337,-338,-338,-332,-355,-460,-620,-651,-571,-558,-550,-401,-356,-295,-220,-171,-175,-167,-164,-210,-417,-1201,-1789,-2206,-222,1191,1766,1943,1338,297,-361,-699,-772,-764,-757,-759,-780,-801,-802,-791,-788,-823,-871,-935,-1029,-1118,-1212,-1332,-1425,-1471,-1465,-1418,-1300,-1139,-914,-623,-307,0,251,473,595,656,663,621,562,505,434,370,289,215,152,116,82,53,29,13,8,3,3,2,4,19,13,9,27,29,36,30,31,14,-11,-40,-36,-48,-71,-70,-65,-74,-95,-90,-78,-78,-130,-259,-366,-344,-262,-218,-186,-69,-34,73,155,184,200,230,244,227,-22,-869,-1382
2018-05-17,14:38:20.513,-1669,501,1680,2133,2268,1753,797,210,-82,-115,-82,-81,-87,-84,-90,-66,-71,-75,-92,-136,-182,-246,-326,-423,-553,-665,-712,-697,-634,-510,-314,-54,272,619,941,1188,1338,1424,1474,1464,1414,1339,1248,1168,1118,1067,999,938,855,793,760,733,705,677,677,675,655,627,600,598,587,559,541,536,502,476,459,432,413,392,352,300,252,235,213,155,117,89,-53,-269,-349,-313,-282,-303,-176,-139,-57,28,56,35,6,-20,-56,-213,-951,-1732,-2155,-543,1511,2190,2205,1320,140,-549,-879,-923,-922,-957,-993,-984,-998,-1014,-1038,-1059,-1097,-1123,-1175,-1254,-1374,-1501,-1644,-1749,-1809,-1815,-1768,-1623,-1442,-1164
2018-05-17,14:38:21.550,-781,-377,30,359,568,689,744,738,699,644,571,475,404,339,252,175,138,118,72,25,-11,-25,-33,-37,-34,-29,-28,-34,-45,-55,-53,-63,-74,-105,-144,-159,-154,-145,-154,-169,-201,-224,-213,-214,-231,-351,-524,-628,-585,-488,-523,-372,-296,-220,-99,-63,-47,-37,-43,-68,-124,-637,-1479,-2019,-1083,1317,2293,2496,1705,519,-329,-718,-780,-757,-766,-789,-784,-768,-772,-790,-811,-827,-858,-901,-982,-1096,-1214,-1363,-1508,-1594,-1602,-1555,-1442,-1270,-1009,-652,-273,123,458,732,878,921,929,897,857,814,719,612,552,483,412,373,332,316,296,269,247,237,237,246,262,282,271,272,289,303,306,292
2018-05-17,14:38:22.588,284,276,281,270,271,276,273,269,267,275,264,168,32,-20,56,90,54,186,290,365,460,511,534,536,526,522,487,58,-770,-1290,-1113,1074,1890,2345,2393,1764,829,308,85,57,61,34,1,-40,-64,-46,-42,-68,-113,-182,-273,-356,-446,-584,-698,-779,-809,-795,-754,-672,-524,-282,7,281,541,764,898,961,988,989,956,874,773,698,614,549,501,430,377,344,314,288,268,251,240,234,208,187,185,174,156,143,143,128,88,79,82,77,45,33,37,-2,-41,-41,-60,-90,-124,-216,-382,-503,-472,-447,-448,-379,-265,-243,-126,-68,-64,-61,-63,-68,-93,-354,-1242,-1812,-1915,473
2018-05-17,14:38:23.625,1783,2217,1895,995,-29,-577,-784,-792,-782,-792,-800,-805,-821,-839,-862,-878,-902,-966,-1039,-1127,-1234,-1370,-1505,-1597,-1684,-1695,-1613,-1474,-1220,-916,-568,-177,200,479,657,759,811,797,762,711,639,555,487,409,365,310,252,232,223,180,147,137,145,136,141,156,159,150,139,152,168,154,135,127,125,123,92,76,67,56,46,12,5,5,-9,-18,8,-6,-40,-55,-64,-76,-75,-158,-343,-467,-429,-365,-369,-284,-159,-111,2,64,94,114,102,85,37,-409,-1334,-1822,-1203,1419,2422,2684,1973,775,-125,-567,-657,-649,-667,-683,-686,-703,-708,-714,-723,-733,-750,-788,-881,-992,-1102,-1232,-1361,-1468
2018-05-17,14:38:24.662,-1504,-1487,-1402,-1254,-1001,-680,-293,113,465,772,952,1034,1056,1035,989,921,850,765,677,615,573,506,446,412,381,346,333,331,330,343,334,350,354,308,269,260,265,257,236,223,211,177,142,121,101,85,56,27,21,0,-23,-47,-52,-79,-100,-126,-139,-138,-138,-142,-210,-366,-432,-388,-359,-375,-266,-153,-77,38,106,127,140,150,138,97,-398,-1219,-1749,-1185,1084,1895,2365,2166,1307,439,-20,-181,-154,-142,-147,-160,-146,-109,-95,-89,-98,-110,-120,-169,-246,-335,-440,-533,-589,-596,-570,-497,-355,-162,91,398,717,1030,1281,1439,1534,1567,1546,1510,1460,1364,1288,1235,1176,1098,1039,994
2018-05-17,14:38:25.699,954,909,864,832,788,764,764,735,689,690,690,674,638,616,605,583,544,482,450,432,384,319,293,296,248,216,211,162,138,90,-39,-216,-256,-209,-220,-295,-195,-137,-111,-34,-18,-25,-31,-68,-97,-176,-696,-1571,-2000,-1547,732,1401,1741,1552,733,-182,-661,-836,-861,-888,-918,-940,-966,-1005,-1036,-1045,-1063,-1113,-1156,-1220,-1313,-1433,-1574,-1701,-1786,-1827,-1795,-1709,-1591,-1388,-1092,-724,-374,-56,204,382,492,512,487,449,381,326,252,189,148,92,32,-5,-26,-56,-77,-95,-70,-62,-75,-57,-48,-50,-54,-31,-23,-48,-35,-31,-50,-77,-84,-102,-109,-108,-131,-152,-166,-185,-212,-249,-349,-483
2018-05-17,14:38:26.736,-587,-517,-428,-433,-334,-257,-189,-82,-21,-9,-11,-27,-31,-78,-482,-1350,-1904,-1507,1040,2285,2657,2000,821,-151,-648,-740,-730,-741,-761,-763,-769,-774,-790,-797,-800,-816,-863,-947,-1054,-1187,-1328,-1454,-1547,-1612,-1597,-1524,-1369,-1092,-730,-314,121,493,790,985,1075,1103,1093,1057,981,889,806,749,672,602,563,511,457,429,414,393,382,367,349,347,320,301,294,298,304,277,263,280,265,243,202,200,189,178,144,117,107,19,-143,-216,-150,-146,-202,-144,-33,12,119,177,193,190,181,162,136,-161,-989,-1548,-1757,282,1545,2137,2164,1495,497,-109,-394,-422,-418,-431,-460,-467,-484,-468,-448,-472
2018-05-17,14:38:27.774,-525,-580,-639,-714,-810,-918,-1004,-1093,-1145,-1143,-1082,-961,-781,-516,-223,99,403,669,859,959,987,984,931,864,802,729,650,585,530,485,449,418,369,347,333,305,294,288,290,293,286,286,282,285,274,247,242,225,208,192,173,174,89,-73,-181,-134,-78,-114,-87,19,34,144,192,182,191,187,181,138,-81,-830,-1453,-1832,-347,1198,1682,1973,1616,695,25,-354,-428,-422,-440,-470,-487,-504,-508,-530,-547,-577,-609,-660,-748,-827,-937,-1067,-1180,-1257,-1255,-1204,-1106,-942,-704,-414,-85,238,520,710,818,863,853,795,735,673,598,548,483,425,368,322,294,276,241,222,203,205,209,197
2018-05-17,14:38:28.811,201,214,220,211,207,193,179,171,161,142,98,75,70,4,-156,-316,-335,-253,-227,-228,-93,-83,14,118,133,119,105,103,85,4,-645,-1472,-1963,-695,1497,2354,2389,1540,413,-332,-673,-713,-706,-716,-733,-732,-725,-740,-756,-773,-788,-815,-876,-942,-1032,-1143,-1265,-1367,-1424,-1431,-1401,-1266,-1043,-753,-377,54,484,841,1108,1264,1338,1345,1328,1277,1244,1197,1141,1096,1066,1032,987,987,976,949,951,954,958,969,973,989,996,996,996,1001,1006,995,991,964,935,927,908,875,871,866,836,790,629,451,364,413,461,424,536,587,656,749,760,738,722,690,668,607,117,-809,-1367,-839,1776,2888
2018-05-17,14:38:45.583,-606,-646,-690,-739,-819,-914,-1022,-1107,-1177,-1186,-1152,-1069,-920,-716,-444,-132,181,491,735,881,931,938,904,842,755,682,601,537,482,422,384,376,334,312,318,312,310,325,341,355,313,215,98,73,121,65,64,203,207,252,337,361,353,330,291,261,222,-104,-824,-1648,-1943,391,1902,2853,2801,1820,539,-238,-637,-696,-691,-705,-714,-706,-704,-698,-689,-707,-728,-760,-811,-868,-961,-1043,-1124,-1183,-1158,-1110,-1031,-901,-699,-452,-162,135,412,618,741,796,788,761,716,647,569,517,477,406,346,312,299,282,256,239,234,247,260,269,246,164,64,25,75,5,-23,127,167,200,295,316
2018-05-17,14:38:46.508,307,297,278,239,198,-72,-806,-1465,-1972,-64,1308,2238,2518,1939,725,-59,-430,-494,-499,-512,-522,-532,-548,-564,-566,-577,-601,-610,-653,-728,-810,-873,-941,-967,-953,-921,-868,-768,-620,-413,-190,67,311,488,587,641,659,620,571,511,441,378,314,293,266,212,182,169,164,164,139,125,125,81,-7,-97,-82,-60,-103,-94,64,78,136,212,251,251,254,227,214,177,-272,-1041,-1615,-1544,425,1427,2187,2329,1680,598,-96,-428,-503,-509,-518,-528,-526,-505,-510,-520,-543,-584,-618,-664,-745,-812,-866,-918,-976,-986,-985,-963,-902,-755,-519,-246,50,327,505,606,654,647,606,560,517,450,395,339
2018-05-17,14:38:47.545,301,251,213,192,188,185,184,198,214,222,247,243,181,71,-57,-32,-18,-35,-4,133,130,212,287,293,276,271,246,222,137,-397,-1112,-1870,-1185,748,1780,2490,2315,1288,198,-409,-611,-634,-673,-699,-685,-675,-707,-716,-729,-767,-813,-856,-945,-1064,-1188,-1303,-1403,-1459,-1455,-1407,-1307,-1147,-871,-547,-202,142,443,644,765,800,800,772,701,630,558,481,419,375,340,328,311,310,302,318,345,391,420,427,418,365,270,237,307,305,335,511,605,646,766,835,846,854,857,878,859,699,45,-552,-1271,393,1994,2976,3429,3009,1892,1011,565,465,491,514,536,550,563,568,572,575,549,510
2018-05-17,14:38:48.582,459,389,288,171,79,21,-12,-3,24,88,219,389,596,831,1054,1234,1353,1376,1343,1272,1198,1081,989,900,786,686,597,515,431,352,292,238,175,139,95,35,-56,-176,-311,-331,-357,-421,-431,-346,-393,-358,-331,-361,-395,-409,-462,-531,-622,-1174,-1906,-2507,-2071,-368,428,1004,1069,399,-603,-1177,-1407,-1455,-1459,-1490,-1497,-1486,-1501,-1541,-1585,-1615,-1647,-1667,-1698,-1738,-1783,-1820,-1875,-1888,-1866,-1804,-1712,-1552,-1349,-1116,-857,-574,-322,-125,-18,22,20,10,-27,-80,-122,-164,-208,-242,-269,-272,-290,-298,-302,-288,-270,-251,-218,-195,-217,-294,-402,-433,-365,-364,-347,-220,-170,-111,-14,43,40,23,10,-5
2018-05-17,14:38:49.619,-42,-316,-1142,-1672,-2040,-103,1130,1809,2037,1551,511,-201,-588,-645,-636,-664,-675,-682,-681,-695,-710,-694,-696,-715,-770,-840,-936,-1032,-1130,-1200,-1210,-1177,-1110,-997,-796,-515,-176,175,483,714,870,951,965,924,870,813,732,662,582,531,494,439,415,399,386,391,393,399,394,382,353,266,156,116,161,136,138,252,296,326,438,475,452,455,429,405,365,157,-493,-1077,-1922,28,1636,2707,3021,2341,981,48,-436,-550,-551,-549,-545,-557,-557,-558,-572,-601,-641,-708,-781,-839,-901,-982,-1042,-1105,-1111,-1075,-984,-845,-682,-442,-160,149,439,638,791,870,865,835,793,739,692,605,508,457,402,364
2018-05-17,14:38:50.656,327,289,279,296,305,289,232,160,102,144,138,100,191,297,268,344,398,402,392,373,349,319,208,-375,-1048,-1585,-942,808,1573,2174,2163,1353,338,-194,-418,-456,-467,-481,-496,-520,-528,-545,-568,-580,-640,-692,-765,-854,-916,-989,-1066,-1106,-1111,-1034,-947,-818,-616,-366,-89,196,424,579,662,706,698,655,588,529,466,406,359,299,258,239,226,191,184,178,192,209,234,253,215,145,28,-27,9,22,28,155,191,245,337,367,361,331,313,270,216,-52,-793,-1378,-1890,255,1529,2386,2550,1841,625,-137,-515,-565,-560,-575,-572,-580,-592,-604,-623,-629,-657,-731,-781,-866,-988,-1107,-1170,-1221
2018-05-17,14:38:51.694,-1233,-1191,-1098,-960,-765,-501,-165,173,471,690,843,897,895,849,793,728,668,605,549,477,426,401,366,341,314,325,334,332,327,326,294,196,71,0,24,-6,-22,102,178,203,304,338,339,336,306,276,235,110,-494,-1160,-1940,-509,1258,2200,2710,2256,1019,53,-496,-671,-668,-684,-702,-697,-709,-718,-734,-748,-760,-797,-850,-932,-1004,-1086,-1169,-1218,-1243,-1206,-1127,-995,-832,-571,-223,118,445,729,898,967,983,955,885,810,740,675,602,538,485,437,406,351,312,298,321,345,362,347,304,201,91,76,76,14,6,138,155,211,286,321,314,300,276,243,213,-34,-719,-1251,-1860,29
2018-05-17,14:38:52.731,1320,2167,2510,1993,720,-130,-550,-646,-654,-656,-661,-655,-648,-655,-664,-666,-677,-710,-737,-792,-841,-913,-976,-1007,-1014,-982,-924,-828,-713,-558,-357,-121,113,282,388,456,451,408,365,292,223,173,112,52,-6,-28,-57,-84,-85,-72,-61,-57,-52,-91,-199,-271,-232,-205,-218,-160,-32,-15,86,165,194,220,221,227,244,200,-197,-901,-1328,-1310,700,1773,2617,2719,1947,759,107,-175,-209,-200,-177,-138,-105,-89,-75,-55,-60,-73,-92,-136,-199,-273,-346,-379,-386,-364,-287,-165,0,222,491,773,1069,1325,1518,1597,1627,1622,1570,1497,1423,1316,1234,1165,1101,1034,988,936,913,902,883,876,857,847
2018-05-17,14:38:53.768,829,799,746,648,484,348,351,284,180,227,350,385,412,411,397,376,345,288,222,126,-374,-1072,-1947,-1365,1003,2283,2950,2463,1154,-123,-851,-1129,-1167,-1207,-1225,-1228,-1233,-1235,-1246,-1276,-1291,-1324,-1361,-1442,-1522,-1621,-1710,-1774,-1820,-1796,-1743,-1662,-1516,-1271,-954,-631,-294,9,205,321,364,347,300,237,203,139,79,25,-21,-47,-70,-104,-115,-109,-79,-56,-40,-32,-14,14,12,-48,-170,-285,-243,-250,-282,-199,-36,43,118,201,239,253,259,242,227,209,-89,-747,-1458,-1752,692,1971,2857,2758,1802,449,-308,-627,-656,-650,-651,-638,-638,-638,-620,-614,-637,-659,-694,-755,-805,-884,-965,-1033,-1070,-1047
2018-05-17,14:38:54.805,-980,-881,-770,-604,-364,-64,219,486,705,820,849,826,779,731,665,595,540,493,428,340,290,258,221,194,195,204,202,208,214,213,129,25,-59,-51,-89,-161,-136,10,-7,32,74,73,57,27,-8,-49,-94,-467,-1184,-1750,-1820,305,1256,1930,2077,1436,268,-408,-702,-737,-751,-774,-767,-776,-777,-770,-778,-793,-791,-811,-852,-891,-959,-1000,-1066,-1111,-1100,-1057,-1006,-931,-781,-594,-372,-138,84,270,389,461,496,469,408,349,292,236,211,185,159,146,140,153,155,153,157,175,200,220,246,240,158,31,-33,-7,-47,-53,76,172,255,337,393,391,375,356,319,281,166,-390,-1024,-1934
2018-05-17,14:38:55.842,-287,1468,2493,2865,2207,867,-66,-543,-612,-606,-622,-616,-598,-594,-602,-621,-643,-637,-672,-750,-828,-901,-984,-1092,-1188,-1202,-1156,-1120,-1051,-840,-541,-195,145,453,708,871,958,987,953,895,823,734,680,600,527,471,438,419,377,374,376,379,365,335,317,317,308,266,159,22,-39,-7,-70,-94,66,128,161,235,259,258,232,193,192,150,-47,-737,-1401,-2275,-246,1352,2357,2680,2060,763,-171,-670,-780,-765,-755,-750,-740,-752,-770,-781,-775,-776,-810,-871,-948,-1037,-1126,-1201,-1276,-1330,-1334,-1252,-1135,-950,-685,-379,-65,229,434,581,680,694,643,582,524,469,415,365,309,258,209,176,134,100
2018-05-17,14:38:56.880,112,123,105,108,119,120,42,-66,-128,-82,-108,-170,-82,-8,38,159,219,211,199,188,157,127,-2,-584,-1121,-1833,-834,797,1695,2212,2069,1147,216,-244,-391,-367,-333,-336,-337,-345,-353,-370,-388,-390,-407,-413,-439,-508,-552,-584,-634,-654,-617,-558,-459,-310,-125,105,381,652,851,986,1067,1113,1106,1058,1005,955,889,829,790,753,702,659,629,630,627,624,610,604,614,624,624,544,407,313,346,348,306,370,455,429,477,539,568,559,519,455,416,296,-350,-1107,-1624,-770,942,1634,2149,2027,1242,295,-263,-486,-501,-512,-555,-550,-552,-594,-603,-619,-672,-727,-816,-892,-991,-1106,-1185,-1235
2018-05-17,14:38:57.917,-1265,-1262,-1240,-1146,-998,-767,-480,-184,100,370,537,609,637,658,628,526,415,339,293,234,183,140,108,46,26,43,37,59,49,58,76,58,-55,-190,-246,-206,-255,-281,-172,-81,-49,42,64,51,42,48,51,0,-170,-822,-1445,-2190,-835,839,1733,2315,2029,912,-113,-716,-892,-894,-896,-880,-890,-890,-900,-915,-917,-921,-949,-1007,-1080,-1166,-1289,-1385,-1461,-1494,-1473,-1378,-1257,-1056,-797,-479,-121,186,441,642,739,772,758,704,648,574,490,413,371,306,262,246,243,229,196,194,208,239,189,79,-1,-11,7,-2,-36,87,116,141,229,249,249,238,210,182,145,-55,-763,-1259,-1916,-410
2018-05-17,14:38:58.954,1090,1880,2296,2022,950,-28,-526,-664,-685,-679,-670,-670,-685,-678,-672,-676,-697,-741,-766,-829,-902,-953,-1010,-1045,-1051,-1021,-954,-855,-720,-541,-316,-68,189,389,534,628,629,600,558,495,428,386,344,297,248,224,224,216,200,192,204,220,201,176,131,43,0,48,40,2,85,141,149,262,324,294,277,247,194,150,-18,-626,-1220,-1852,-807,924,1687,2165,1995,1112,124,-408,-556,-540,-535,-537,-527,-542,-551,-555,-553,-565,-598,-636,-705,-808,-869,-949,-1005,-1008,-1009,-977,-870,-718,-510,-274,6,302,551,729,809,810,785,746,690,634,575,496,434,390,374,344,316,304,291,296,323,337
2018-05-17,14:38:59.991,341,365,342,229,140,34,79,66,31,170,232,277,388,417,393,370,366,332,282,55,-704,-1282,-1729,-106,1393,2116,2503,2043,901,17,-477,-599,-593,-596,-603,-636,-642,-638,-661,-693,-755,-806,-841,-918,-1040,-1136,-1224,-1308,-1307,-1261,-1139,-1037,-877,-569,-224,138,495,766,926,987,983,965,924,844,756,678,613,536,467,444,420,393,395,405,391,381,375,364,363,335,261,163,98,147,97,51,157,221,256,340,377,384,378,378,344,297,123,-528,-1146,-1866,-431,1309,2207,2714,2351,1130,50,-495,-634,-649,-685,-691,-671,-665,-677,-674,-699,-709,-744,-784,-835,-913,-982,-1047,-1102,-1124,-1110,-1023
2018-05-17,14:39:01.028,-901,-760,-565,-314,-60,216,445,591,678,678,672,642,570,489,422,362,327,273,214,194,154,129,116,122,123,143,96,-6,-99,-107,-92,-149,-142,14,19,59,120,134,146,152,132,92,49,-238,-944,-1395,-1805,47,1353,2162,2389,1819,585,-194,-586,-650,-636,-612,-599,-596,-590,-558,-522,-521,-542,-564,-590,-625,-688,-729,-763,-770,-748,-682,-579,-453,-266,-12,275,561,826,1035,1173,1244,1232,1224,1185,1128,1083,1015,977,955,931,915,895,877,856,849,858,848,875,879,861,827,727,587,555,581,559,536,651,679,729,784,796,778,752,724,683,630,300,-425,-1162,-1368,1030,2390,3268,3090
2018-05-17,14:39:02.065,2009,598,-170,-512,-563,-591,-622,-652,-673,-681,-712,-734,-765,-801,-848,-904,-991,-1106,-1205,-1274,-1315,-1333,-1331,-1263,-1131,-927,-629,-315,22,320,502,613,678,674,608,534,453,375,308,253,198,156,101,66,72,68,60,51,63,71,68,0,-132,-256,-231,-215,-230,-193,-114,-104,-4,49,51,29,36,25,-19,-54,-411,-1085,-1970,-1630,720,1894,2641,2329,1157,-116,-784,-1034,-1041,-1039,-1038,-1027,-1027,-1018,-1007,-1019,-1033,-1053,-1098,-1167,-1222,-1286,-1354,-1405,-1419,-1392,-1308,-1188,-1015,-788,-499,-183,80,333,527,655,704,679,607,511,447,372,295,247,210,173,149,125,111,106,108,119,120,75,-23,-103
2018-05-17,14:39:03.103,-66,-93,-130,-4,64,75,174,215,201,208,177,143,105,-57,-649,-1185,-1844,-824,904,1704,2179,2002,1055,46,-480,-655,-661,-672,-694,-688,-682,-680,-658,-652,-654,-681,-728,-748,-790,-844,-890,-898,-918,-915,-869,-803,-724,-585,-408,-172,60,244,364,432,466,438,404,365,319,262,209,148,114,94,92,106,108,109,135,158,159,90,-6,-55,11,3,-20,90,179,196,282,319,315,310,291,254,219,95,-427,-1031,-1883,-754,1093,2094,2571,2192,1054,36,-486,-627,-636,-639,-656,-635,-625,-638,-658,-675,-694,-700,-746,-817,-915,-958,-1018,-1060,-1080,-1066,-1006,-886,-720,-490,-223,88,354,580,714,774
2018-05-17,14:39:04.140,788,806,746,660,590,541,480,406,356,327,305,280,274,269,274,285,251,149,36,21,84,17,15,183,213,234,312,347,344,335,302,275,230,20,-621,-1416,-2113,161,1925,2982,2993,2026,593,-320,-776,-843,-835,-845,-840,-807,-808,-831,-836,-826,-865,-910,-975,-1041,-1123,-1196,-1260,-1262,-1244,-1200,-1101,-942,-708,-418,-90,245,529,743,872,925,910,890,817,760,710,627,559,499,450,418,385,367,355,342,346,344,267,180,98,128,94,42,111,221,200,285,343,336,317,281,244,206,133,-331,-959,-1964,-1246,825,1993,2631,2349,1235,83,-516,-710,-711,-705,-711,-697,-679,-664,-661,-653,-645
2018-05-17,14:39:05.177,-669,-692,-736,-820,-893,-928,-926,-941,-904,-841,-770,-653,-459,-220,38,297,511,645,718,726,697,652,593,519,448,401,344,307,294,267,233,213,209,153,54,-36,-17,1,-46,-19,119,159,180,241,256,240,220,195,142,71,-279,-1042,-1482,-1784,106,1128,1798,2001,1520,476,-214,-561,-612,-606,-609,-595,-590,-585,-575,-568,-561,-563,-586,-623,-656,-666,-701,-721,-730,-701,-668,-605,-520,-383,-175,78,344,585,765,881,919,928,916,895,868,807,770,751,743,730,704,711,739,754,758,756,726,642,574,646,672,641,683,794,813,895,948,967,949,914,892,853,711,128,-490,-1311,-100,1615
2018-05-17,14:39:06.214,2535,2955,2520,1386,539,71,-37,-38,-48,-89,-113,-135,-154,-159,-206,-259,-324,-410,-497,-598,-704,-838,-946,-1005,-1010,-974,-876,-694,-447,-134,168,417,616,748,778,763,711,630,540,468,380,306,243,178,135,108,90,64,54,25,-75,-212,-261,-196,-246,-276,-155,-104,-83,19,48,40,18,-23,-55,-98,-295,-969,-1657,-2419,-515,1212,2173,2322,1538,244,-581,-1017,-1079,-1066,-1069,-1079,-1065,-1048,-1061,-1070,-1093,-1118,-1130,-1178,-1250,-1334,-1407,-1494,-1539,-1539,-1519,-1474,-1334,-1091,-771,-428,-99,187,389,518,571,571,535,500,441,370,301,249,212,194,167,136,113,120,131,96,40,-45,-80,-41,-104,-123
2018-05-17,14:39:07.251,17,50,83,178,187,205,196,173,136,85,-166,-827,-1481,-2114,-265,1262,2223,2422,1769,530,-249,-608,-673,-673,-696,-691,-677,-676,-670,-669,-677,-696,-721,-756,-807,-883,-965,-1010,-1025,-1029,-1005,-954,-822,-637,-410,-153,109,346,528,649,691,674,616,564,494,424,377,336,283,236,204,184,167,146,139,92,0,-36,6,-24,-38,86,145,153,238,270,239,213,205,181,140,-107,-834,-1340,-1864,-270,1072,1834,2131,1702,617,-192,-564,-652,-658,-656,-650,-631,-620,-610,-579,-567,-614,-678,-704,-737,-805,-874,-925,-975,-1004,-1000,-942,-856,-723,-503,-246,0,230,409,511,557,562,528,475,426,382,342
2018-05-17,14:39:08.289,299,255,191,152,145,162,177,189,180,145,58,-44,-16,11,-33,-18,120,149,213,286,290,277,249,215,197,130,-371,-1033,-1927,-1037,948,2006,2555,2130,979,26,-486,-635,-614,-608,-592,-622,-652,-636,-611,-608,-624,-687,-699,-754,-816,-914,-990,-1041,-1075,-1056,-992,-875,-684,-411,-98,228,556,806,954,1046,1078,1053,994,935,870,800,744,693,653,620,596,610,604,584,566,496,364,294,341,298,273,355,418,444,544,606,621,606,588,536,492,389,-171,-841,-1971,-413,1632,2900,3226,2540,1124,127,-403,-552,-540,-554,-576,-565,-566,-577,-554,-537,-594,-637,-662,-716,-776,-837,-905,-930,-952,-973
2018-05-17,14:39:09.326,-958,-876,-700,-455,-169,147,440,638,769,829,835,786,728,674,575,516,453,399,387,363,327,314,322,334,300,208,105,51,106,55,27,136,181,186,274,324,332,326,284,231,207,18,-612,-1395,-2166,-25,1585,2700,2812,1890,443,-360,-753,-803,-816,-824,-803,-812,-823,-802,-795,-828,-855,-882,-943,-1000,-1056,-1141,-1204,-1223,-1228,-1187,-1112,-981,-765,-465,-112,191,469,680,793,811,759,699,662,601,509,441,383,324,295,259,223,200,166,147,72,-56,-100,-66,-153,-177,-27,21,42,129,148,152,132,112,96,54,-188,-826,-1637,-2253,-23,1694,2767,2784,1897,513,-334,-765,-819,-784,-753,-718
2018-05-17,14:39:10.363,-714,-679,-650,-630,-602,-607,-624,-635,-656,-701,-743,-795,-827,-826,-795,-711,-564,-326,-32,315,661,955,1145,1233,1267,1251,1230,1182,1113,1059,1008,968,926,881,854,816,800,774,697,611,504,529,519,476,531,643,667,748,776,792,758,727,689,639,487,-136,-815,-1871,-292,1607,2815,3144,2359,987,75,-427,-517,-526,-549,-587,-574,-609,-623,-650,-687,-722,-774,-845,-956,-1073,-1204,-1327,-1389,-1391,-1374,-1335,-1229,-1046,-778,-444,-130,128,310,442,472,434,382,292,200,131,50,-49,-104,-142,-183,-215,-229,-287,-421,-533,-497,-521,-549,-446,-315,-333,-245,-168,-148,-168,-170,-184,-218,-312,-898,-1627,-2624,-1458
2018-05-17,14:39:11.400,742,1982,2508,1962,640,-371,-946,-1065,-1031,-1020,-1026,-1011,-983,-970,-944,-902,-912,-934,-956,-980,-1039,-1110,-1144,-1185,-1220,-1205,-1147,-1074,-903,-623,-333,-55,218,449,560,616,619,601,555,493,432,372,320,291,262,248,231,174,105,6,14,45,14,9,136,173,237,314,348,363,351,307,287,228,-209,-1000,-1744,-1767,267,1576,2328,2321,1504,345,-221,-452,-457,-466,-444,-456,-464,-460,-473,-496,-520,-522,-534,-604,-665,-688,-737,-765,-771,-766,-739,-691,-587,-431,-224,-2,239,442,544,578,588,568,525,458,388,322,294,284,240,189,165,136,57,-30,-41,13,-17,-16,108,189,218,316,386,385
2018-05-17,14:39:12.437,377,349,310,271,-47,-862,-1481,-1736,296,1603,2368,2356,1563,454,-170,-466,-517,-530,-563,-568,-567,-566,-559,-576,-575,-610,-653,-701,-769,-838,-874,-957,-1008,-1015,-976,-942,-858,-682,-450,-177,111,353,484,553,589,574,507,438,382,334,289,257,247,238,245,263,227,149,43,84,153,168,231,375,448,508,601,652,654,652,637,620,600,171,-577,-1597,-1024,1341,2646,3364,2948,1712,634,49,-101,-89,-119,-123,-87,-60,-47,-48,-47,-67,-89,-121,-193,-261,-318,-337,-367,-379,-356,-310,-232,-87,149,444,735,988,1187,1299,1341,1329,1278,1185,1060,962,890,818,765,708,642,605,583,520,401,301
2018-05-17,14:39:13.474,348,316,272,345,448,441,497,544,524,480,436,396,345,184,-483,-1214,-2061,-687,1179,2184,2569,2076,894,-41,-548,-682,-697,-712,-734,-750,-760,-749,-757,-778,-798,-833,-896,-950,-1009,-1051,-1078,-1102,-1085,-1052,-1027,-944,-804,-637,-429,-180,56,206,293,331,328,268,201,156,107,43,-12,-42,-72,-88,-87,-146,-247,-315,-269,-264,-273,-214,-70,-66,-6,92,104,96,90,38,-14,-128,-734,-1377,-2139,-1218,641,1582,2008,1783,836,-81,-539,-710,-712,-702,-695,-692,-699,-687,-695,-698,-705,-703,-734,-804,-884,-929,-935,-948,-936,-909,-870,-819,-704,-531,-341,-152,49,221,302,344,349,316,255,179,131,106
2018-05-17,14:39:14.512,58,21,14,-7,-24,-44,-89,-167,-186,-152,-151,-131,-1,69,134,240,271,262,250,226,209,147,-271,-1023,-1758,-1506,853,1969,2563,2226,1174,142,-451,-626,-634,-643,-666,-672,-674,-694,-697,-714,-706,-719,-774,-822,-886,-959,-1033,-1049,-1040,-1021,-968,-885,-734,-491,-258,-4,252,460,597,655,658,631,609,558,485,437,364,310,301,274,231,213,178,85,-16,24,84,59,65,214,263,324,419,450,443,413,398,379,288,-82,-760,-1759,-1305,1228,2565,3244,2680,1284,69,-605,-807,-811,-797,-776,-783,-772,-752,-742,-773,-790,-792,-846,-926,-994,-1055,-1109,-1125,-1081,-1035,-959,-827,-655,-403,-98,234,528
2018-05-17,14:39:15.549,770,895,928,903,859,811,757,678,597,522,459,399,356,350,355,303,211,125,156,170,125,157,302,315,339,410,452,458,447,406,362,287,-193,-843,-1875,-1195,1084,2390,2914,2586,1416,192,-427,-647,-658,-673,-682,-670,-647,-646,-640,-653,-664,-700,-733,-783,-816,-852,-876,-906,-911,-874,-824,-740,-600,-437,-220,17,234,407,528,587,592,587,536,481,430,372,316,283,275,219,168,127,34,-59,-72,-8,-4,-10,120,188,200,271,301,296,282,264,243,182,-228,-1019,-1504,-1524,497,1570,2217,2234,1495,334,-335,-603,-634,-638,-652,-658,-646,-619,-607,-615,-645,-670,-703,-724,-783,-866,-912,-929
2018-05-17,14:39:16.586,-922,-892,-827,-748,-616,-434,-209,34,286,469,575,655,671,639,581,518,444,412,393,376,372,314,278,263,272,214,107,-18,13,62,57,94,226,234,317,402,426,410,403,376,342,181,-485,-1137,-1761,-279,1365,2196,2524,1968,760,-88,-530,-593,-612,-630,-639,-638,-629,-653,-662,-672,-724,-780,-838,-902,-979,-1045,-1076,-1119,-1130,-1081,-1026,-907,-726,-482,-181,117,406,594,711,766,743,684,604,537,482,427,368,313,293,276,238,229,216,116,-10,-104,-26,-29,-43,66,170,180,302,369,364,352,312,278,244,-11,-742,-1376,-1703,295,1650,2507,2557,1701,466,-260,-611,-649,-665,-659,-645,-636
2018-05-17,14:39:17.623,-643,-620,-630,-646,-674,-693,-754,-797,-855,-886,-901,-885,-842,-761,-642,-473,-252,11,333,646,909,1097,1202,1237,1227,1191,1137,1096,1036,979,959,940,906,887,890,854,774,679,705,753,724,717,843,881,928,989,1008,998,996,970,935,854,282,-407,-1145,-485,1318,2200,2713,2664,1816,794,249,65,45,15,-21,-48,-53,-79,-93,-111,-149,-196,-245,-292,-344,-391,-435,-448,-473,-465,-410,-361,-297,-193,-65,110,288,442,515,538,514,460,412,363,296,217,156,126,74,50,20,-45,-136,-216,-155,-156,-177,-100,43,65,130,169,166,172,153,98,48,-177,-962,-1569,-1982,-666,786,1535,1960,1752
2018-05-17,14:39:18.660,679,-168,-618,-709,-710,-754,-774,-774,-769,-752,-770,-819,-851,-889,-948,-993,-1044,-1119,-1182,-1193,-1201,-1177,-1122,-1022,-893,-681,-434,-193,46,205,283,310,277,238,203,147,115,85,36,26,7,-28,-2,-10,-108,-185,-265,-211,-190,-231,-144,-18,26,115,201,200,213,191,156,90,-276,-1070,-1576,-1757,144,1378,2123,2148,1350,260,-397,-694,-706,-689,-713,-727,-700,-694,-691,-707,-733,-774,-829,-903,-984,-1068,-1139,-1201,-1240,-1230,-1172,-1080,-955,-752,-475,-165,128,355,553,641,648,630,576,506,454,392,334,285,251,204,196,158,59,-59,-89,-35,-50,-30,108,180,195,304,365,372,376,364,323,250
2018-05-17,14:39:19.698,-224,-1081,-1614,-1414,564,1507,2114,2112,1412,399,-215,-453,-480,-483,-495,-518,-529,-524,-542,-565,-575,-614,-686,-748,-826,-889,-939,-963,-976,-941,-880,-799,-695,-525,-298,-50,178,364,488,552,545,515,460,390,363,323,275,251,215,198,153,76,-24,9,45,34,58,181,237,292,359,396,379,363,333,312,175,-453,-1143,-1710,-840,741,1421,1875,1823,1081,225,-237,-385,-397,-417,-434,-453,-439,-434,-464,-490,-519,-550,-579,-630,-690,-770,-830,-845,-844,-826,-786,-708,-604,-471,-288,-65,154,327,403,425,415,387,348,300,253,206,169,144,135,125,99,13,-96,-119,-53,-37,-7,146,202,261,377
2018-05-17,14:39:20.735,433,447,444,411,398,288,-368,-1136,-1628,-803,888,1498,1813,1691,1055,278,-181,-325,-331,-364,-389,-399,-398,-428,-451,-472,-495,-527,-569,-630,-698,-757,-823,-864,-881,-879,-840,-736,-598,-423,-186,79,345,547,655,696,664,629,556,483,427,360,338,292,277,286,248,178,86,26,80,76,81,172,247,251,351,406,417,414,372,332,264,-49,-857,-1554,-1974,257,1521,2258,2269,1489,423,-200,-488,-520,-538,-563,-577,-595,-593,-597,-624,-643,-664,-705,-763,-816,-877,-937,-984,-987,-965,-930,-866,-758,-584,-329,-59,198,411,546,622,640,608,541,481,420,358,313,295,268,244,213,113,-9,4,56
2018-05-17,14:39:33.433,486,485,464,443,414,375,20,-629,-1342,-1536,624,1929,2631,2616,1875,626,-154,-499,-518,-495,-513,-501,-517,-493,-481,-485,-484,-449,-488,-525,-537,-542,-562,-587,-611,-594,-532,-477,-452,-435,-369,-254,-117,5,95,159,152,149,142,123,67,8,-25,-15,-12,9,0,-99,-169,-118,-98,-119,-52,124,178,255,318,343,336,342,321,285,69,-613,-1069,-1657,-77,1152,1811,2031,1738,803,45,-318,-384,-421,-443,-425,-410,-428,-452,-475,-517,-562,-572,-594,-618,-645,-670,-676,-656,-635,-619,-614,-625,-599,-555,-466,-328,-190,-73,6,23,2,-22,-35,-55,-57,-91,-107,-71,-53,-30,-38,-89,-173,-141,-86
2018-05-17,14:39:34.582,-36,37,199,234,335,454,489,475,497,515,495,326,-308,-969,-1438,-189,1363,2062,2408,2180,1408,574,75,-18,6,5,-23,-44,-44,-58,-42,-13,-19,-3,-30,-33,-57,-85,-103,-103,-121,-85,-72,-8,95,157,257,443,643,811,889,902,881,805,736,675,654,610,561,531,533,561,515,404,318,320,339,333,379,476,481,537,640,645,614,562,514,444,339,-235,-881,-1826,-573,1266,2374,2800,2379,1220,156,-503,-671,-658,-660,-650,-647,-644,-632,-628,-641,-667,-697,-748,-802,-859,-893,-878,-861,-826,-776,-726,-678,-652,-601,-480,-321,-155,-8,89,137,131,113,99,61,36,-4,1,7,-29
2018-05-17,14:39:35.620,-20,-72,-173,-232,-225,-211,-177,-77,10,7,95,167,171,149,103,60,13,-239,-973,-1455,-1838,-95,1111,1793,2105,1688,544,-243,-629,-714,-701,-704,-708,-678,-662,-671,-685,-716,-741,-762,-768,-782,-757,-740,-724,-691,-640,-559,-525,-503,-479,-409,-322,-203,-33,72,132,171,167,141,110,84,56,16,-17,-41,-49,-60,-106,-164,-145,-105,-97,-75,30,38,76,153,209,208,188,152,118,13,-551,-1144,-1719,-932,838,1782,2330,2168,1124,47,-441,-604,-606,-597,-587,-574,-558,-541,-530,-512,-533,-566,-565,-568,-567,-555,-561,-536,-464,-404,-353,-273,-190,-123,-21,139,333,495,593,626,639,645,635,606
2018-05-17,14:39:36.657,578,504,472,459,479,492,482,385,278,205,278,319,391,532,627,689,793,853,908,916,891,870,872,557,-151,-680,-1316,978,2523,3562,3546,2685,1105,72,-400,-502,-482,-470,-478,-455,-479,-483,-481,-499,-550,-585,-617,-648,-692,-749,-722,-685,-642,-563,-536,-487,-415,-279,-122,45,216,363,435,413,348,245,164,116,80,30,-2,-30,-22,-21,-28,-87,-176,-231,-185,-180,-177,-102,4,12,94,140,121,96,76,64,17,-124,-665,-1299,-2213,-417,1467,2354,2557,2012,657,-425,-981,-1097,-1074,-1057,-1037,-989,-973,-943,-939,-924,-878,-867,-868,-859,-853,-862,-817,-768,-736,-636,-583,-574,-563,-557,-504,-413
2018-05-17,14:39:37.694,-299,-180,-110,-69,-68,-61,-88,-112,-104,-123,-121,-145,-105,-116,-125,-127,-192,-232,-180,-196,-168,11,47,64,128,186,176,175,192,151,92,-306,-891,-1534,-1385,582,1648,2183,2113,1314,200,-353,-545,-537,-494,-463,-438,-445,-408,-418,-456,-469,-478,-487,-486,-465,-460,-467,-485,-497,-450,-400,-357,-322,-294,-225,-139,-38,85,161,192,212,206,189,184,168,136,121,122,118,114,127,114,69,-17,-18,20,6,52,200,245,311,383,410,409,412,390,324,265,-205,-906,-1617,-1012,1028,2062,2537,2250,1303,289,-264,-457,-455,-464,-475,-457,-415,-419,-428,-429,-434,-456,-480,-534,-608,-672,-690,-674,-654
2018-05-17,14:39:38.731,-642,-599,-521,-434,-320,-148,59,239,406,516,590,580,531,468,432,396,359,331,312,283,238,252,271,202,112,77,123,35,37,172,227,273,381,449,458,412,371,353,312,-4,-692,-1461,-1514,628,1997,2810,2594,1681,423,-291,-586,-597,-586,-587,-555,-557,-537,-501,-486,-484,-501,-533,-564,-580,-599,-620,-599,-562,-503,-460,-392,-366,-306,-131,22,159,310,434,494,479,427,369,320,277,231,213,216,218,225,193,130,41,21,73,70,127,290,371,358,421,496,478,448,430,377,299,-68,-852,-1295,-1478,227,1263,2020,2291,1794,675,-103,-460,-501,-503,-510,-517,-499,-494,-470,-514,-579,-550
2018-05-17,14:39:39.768,-580,-622,-619,-602,-608,-612,-537,-510,-464,-450,-416,-407,-361,-279,-154,-44,40,77,105,113,107,77,69,50,47,82,96,86,89,60,22,0,38,18,22,141,185,185,258,288,284,268,237,210,145,-190,-906,-1324,-1549,248,1080,1648,1922,1528,468,-207,-495,-542,-541,-556,-563,-557,-564,-604,-640,-665,-706,-744,-778,-799,-807,-816,-806,-768,-709,-651,-589,-522,-462,-350,-209,-76,68,169,214,241,246,245,211,174,168,155,166,163,170,181,121,46,-44,-56,-11,28,79,238,280,361,497,555,600,603,557,525,429,-8,-706,-1191,-606,1361,2471,3126,2861,1818,621,-26,-266,-262,-223,-272
2018-05-17,14:39:40.806,-251,-207,-247,-263,-242,-272,-271,-326,-398,-425,-443,-461,-414,-355,-321,-254,-142,-25,109,307,510,731,958,1063,1044,1018,956,870,823,773,718,682,639,635,638,623,618,564,461,343,348,341,291,371,524,551,597,686,709,665,631,573,533,479,56,-564,-1714,-548,1771,2840,3138,2764,1530,144,-586,-804,-806,-774,-769,-754,-738,-732,-696,-700,-718,-729,-757,-771,-738,-717,-730,-688,-644,-567,-484,-505,-485,-420,-316,-205,-97,8,39,8,-18,-65,-116,-151,-194,-220,-224,-217,-223,-207,-174,-225,-295,-326,-289,-273,-280,-198,-49,-47,17,72,77,86,58,11,-16,-111,-615,-1189,-2031,-1070,932,1893
2018-05-17,14:39:41.843,2304,1962,827,-165,-622,-743,-697,-636,-605,-564,-527,-471,-449,-450,-460,-485,-496,-469,-483,-477,-457,-426,-371,-318,-266,-222,-181,-120,-28,95,239,320,348,370,369,338,331,305,268,248,225,221,223,215,201,164,86,33,82,54,49,189,299,334,426,497,524,518,507,475,431,184,-493,-1124,-1665,148,1571,2390,2514,1936,773,-34,-414,-468,-458,-441,-459,-433,-432,-457,-472,-514,-560,-600,-647,-712,-766,-777,-787,-772,-735,-687,-633,-566,-447,-282,-105,-48,144,296,338,319,276,234,171,107,64,18,-4,-34,-29,-17,-15,-32,-87,-148,-137,-154,-238,-171,-5,26,78,174,206,237,176,121
2018-05-17,14:39:42.880,87,-4,-487,-1137,-2206,-1181,823,2161,2645,2122,890,-180,-816,-996,-967,-965,-943,-916,-889,-866,-859,-833,-839,-866,-890,-935,-982,-1015,-1030,-1023,-983,-900,-824,-787,-710,-572,-394,-181,19,169,238,286,275,214,148,125,94,89,86,66,75,118,88,31,-53,-119,-86,-86,-41,66,132,157,244,319,310,294,248,173,121,-170,-915,-1443,-1934,-128,1207,2016,2257,1815,629,-212,-582,-651,-600,-700,-635,-589,-615,-626,-555,-630,-733,-759,-682,-712,-760,-745,-720,-671,-604,-538,-483,-438,-364,-316,-150,35,170,255,317,327,343,342,318,281,256,257,290,276,276,245,170,125,79,122,153,160,204,334
2018-05-17,14:39:43.917,299,340,384,366,337,311,270,210,62,-555,-1093,-1624,-449,913,1567,1899,1719,856,39,-374,-481,-468,-455,-446,-429,-421,-438,-460,-476,-488,-509,-544,-578,-608,-618,-616,-590,-536,-476,-408,-350,-295,-205,-62,97,256,395,458,438,398,398,356,313,285,230,197,177,170,201,171,71,-50,-103,-70,-63,-53,60,132,159,256,327,342,333,345,379,299,-38,-844,-1259,-1482,510,1733,2608,2651,1817,557,-266,-656,-711,-717,-711,-725,-717,-721,-732,-724,-758,-788,-824,-880,-942,-980,-999,-979,-915,-828,-733,-638,-542,-392,-153,90,321,542,656,688,641,583,539,451,396,359,324,292,295,302,270,182
2018-05-17,14:39:44.954,73,33,63,48,61,179,254,298,378,411,427,416,398,384,333,67,-589,-1227,-1606,644,2100,2890,2834,1938,442,-421,-788,-819,-798,-778,-743,-721,-712,-708,-720,-737,-733,-737,-771,-787,-769,-748,-721,-660,-568,-486,-392,-333,-213,-112,25,167,322,410,405,397,352,298,219,136,89,74,45,37,44,-11,-97,-114,-49,-23,-3,101,175,184,278,343,352,345,327,302,252,2,-643,-1143,-1668,155,1552,2227,2326,1711,586,-137,-463,-521,-533,-526,-503,-468,-452,-432,-437,-442,-442,-429,-465,-486,-496,-487,-466,-444,-396,-365,-355,-329,-289,-239,-128,0,98,137,140,145,116,69,38,-25,-55,-87
2018-05-17,14:39:45.991,-116,-138,-181,-217,-302,-361,-324,-330,-316,-204,-99,-37,71,135,164,178,172,178,167,-38,-656,-1198,-1762,328,1746,2570,2588,1956,760,4,-327,-336,-263,-238,-208,-154,-135,-118,-100,-60,-22,-2,-22,-35,-58,-77,-90,-87,-94,-52,3,111,268,475,782,945,1062,1189,1240,1302,1257,1158,1096,1130,1118,1056,1018,987,946,922,809,756,792,722,679,806,954,1014,1054,1113,1105,1047,979,930,853,636,17,-822,-1469,604,2143,3088,3019,2139,821,58,-243,-296,-326,-352,-383,-376,-388,-433,-456,-497,-532,-565,-594,-621,-637,-643,-658,-644,-595,-555,-520,-474,-396,-272,-92,83,212,278,273,202,154,102
2018-05-17,14:39:47.029,40,-39,-98,-123,-163,-193,-263,-325,-307,-326,-358,-288,-90,-5,33,104,133,156,151,125,101,25,-439,-1231,-1850,-1673,235,1190,1786,1788,1129,175,-365,-541,-573,-590,-590,-603,-627,-646,-641,-624,-615,-613,-640,-656,-663,-641,-583,-633,-614,-604,-546,-555,-466,-361,-328,-109,4,87,101,126,98,74,31,-24,-65,-93,-123,-112,-137,-232,-275,-227,-201,-163,-72,62,114,188,276,299,282,272,251,140,-206,-975,-1450,-1664,-66,908,1459,1725,1423,479,-182,-485,-527,-530,-527,-530,-518,-535,-539,-545,-569,-600,-630,-646,-669,-710,-760,-804,-821,-798,-750,-707,-648,-558,-399,-226,-77,47,115,162,164,91
2018-05-17,14:39:48.066,15,6,-27,-51,-83,-116,-175,-268,-367,-371,-339,-297,-209,-43,24,44,96,174,198,184,155,159,-12,-720,-1506,-1866,-899,762,1543,2011,1852,875,-56,-545,-671,-661,-624,-619,-620,-521,-598,-628,-689,-687,-691,-761,-875,-924,-959,-982,-994,-984,-927,-815,-747,-660,-531,-335,-103,93,272,385,403,337,272,219,182,125,91,81,58,19,-70,-113,-63,0,18,114,205,242,338,386,384,365,331,297,220,-169,-894,-1682,-1700,508,1896,2722,2634,1690,433,-305,-587,-590,-578,-588,-596,-584,-594,-628,-616,-632,-673,-711,-742,-755,-753,-755,-721,-646,-584,-540,-495,-398,-304,-148,40,215,368,464,479,446
2018-05-17,14:39:49.103,420,392,367,323,282,227,161,83,10,51,82,103,213,311,281,335,392,395,363,337,329,284,47,-715,-1304,-1859,99,1459,2225,2463,1880,618,-173,-523,-494,-493,-544,-558,-566,-580,-596,-592,-627,-654,-669,-679,-683,-679,-657,-625,-572,-556,-488,-436,-388,-294,-153,16,170,291,359,386,405,374,335,315,281,253,198,88,0,-42,-29,-26,-6,104,158,165,242,308,325,311,267,228,184,-270,-1045,-1549,-1351,418,1428,2085,2182,1404,321,-219,-419,-398,-414,-465,-455,-438,-460,-475,-493,-516,-510,-525,-530,-530,-554,-562,-547,-529,-469,-409,-370,-291,-178,-22,162,336,461,503,494,471,441,417
2018-05-17,14:39:50.140,376,319,274,234,148,20,-87,-67,-77,-74,67,223,297,366,433,483,489,507,496,366,155,-564,-1067,-1597,172,1741,2772,2907,2127,731,-79,-520,-569,-578,-580,-577,-602,-596,-619,-652,-650,-645,-721,-791,-794,-792,-822,-794,-727,-673,-593,-518,-432,-240,-7,338,521,641,705,693,648,618,562,515,481,427,387,323,208,98,76,79,62,138,321,416,462,525,593,608,565,510,453,359,-125,-737,-1706,-818,1389,2559,2955,2524,1264,51,-528,-706,-704,-683,-677,-648,-629,-621,-582,-596,-621,-623,-633,-640,-625,-612,-570,-530,-449,-370,-312,-301,-272,-179,-51,83,220,276,309,323,297,239,175,117
2018-05-17,14:39:51.177,74,25,-27,-105,-186,-215,-162,-142,-68,65,145,181,264,331,358,328,292,267,208,-195,-923,-1506,-1689,551,1725,2249,2194,1401,250,-316,-568,-577,-539,-547,-539,-502,-521,-526,-531,-523,-523,-528,-535,-548,-551,-539,-533,-523,-494,-465,-423,-391,-350,-268,-194,-109,-20,33,52,51,29,2,-10,-21,-47,-55,-105,-192,-243,-230,-176,-116,-42,147,270,393,493,596,638,650,678,684,619,74,-502,-1153,119,2146,3108,3413,2981,1877,836,311,194,246,292,343,383,449,486,494,520,520,519,480,475,471,465,476,468,528,546,509,477,504,573,693,810,937,1026,1079,1090,1050,1018,996,934,848
2018-05-17,14:39:52.215,774,734,682,578,468,483,457,466,591,710,762,810,830,813,777,734,676,585,362,-319,-1207,-2081,424,2102,3012,2898,1922,401,-492,-883,-918,-899,-911,-936,-916,-910,-924,-945,-972,-1016,-1048,-1068,-1092,-1127,-1114,-1118,-1114,-1095,-1089,-1059,-1015,-925,-797,-647,-469,-335,-251,-216,-248,-284,-321,-371,-447,-496,-492,-544,-609,-656,-671,-701,-731,-692,-501,-401,-328,-260,-199,-189,-193,-191,-187,-298,-978,-1622,-2508,-1001,890,1814,2132,1734,607,-329,-785,-850,-814,-844,-818,-775,-781,-783,-744,-737,-728,-738,-769,-808,-853,-886,-887,-874,-867,-845,-815,-777,-720,-619,-490,-339,-176,-85,-70,-76,-99,-116,-123,-180,-192,-199
2018-05-17,14:39:53.252,-236,-340,-392,-367,-398,-373,-249,-91,-27,71,150,183,200,207,202,169,-140,-897,-1469,-1712,171,1385,2036,2174,1630,523,-80,-338,-371,-372,-338,-319,-321,-342,-365,-372,-399,-430,-463,-498,-522,-544,-556,-541,-533,-496,-479,-471,-448,-376,-278,-138,-2,84,138,152,122,78,51,27,15,-13,-79,-149,-234,-254,-190,-197,-166,-43,98,171,266,352,383,365,368,333,285,-188,-989,-1675,-1332,682,1691,2135,1960,1242,364,-155,-349,-359,-357,-373,-385,-408,-406,-450,-478,-492,-517,-555,-550,-522,-533,-510,-464,-531,-503,-427,-413,-347,-232,-57,114,243,368,470,475,383,311,276,214,170,139,110,61,-47
2018-05-17,14:39:54.289,-74,-11,-16,50,199,307,376,485,545,594,618,577,540,496,-67,-866,-1661,-760,1127,2159,2579,2239,1192,303,-165,-282,-309,-334,-348,-349,-367,-373,-386,-398,-429,-456,-479,-512,-513,-529,-539,-534,-503,-462,-443,-408,-384,-304,-166,-32,105,212,266,248,216,181,152,122,120,91,38,-56,-155,-117,-100,-23,94,243,322,446,522,591,558,539,551,445,45,-896,-1333,-1402,358,1030,1483,1804,1624,699,-8,-336,-392,-393,-394,-364,-339,-340,-335,-316,-317,-355,-377,-400,-450,-449,-474,-491,-493,-455,-460,-461,-431,-388,-346,-251,-123,-20,28,47,56,46,34,35,34,23,1,-41,-137,-133,-58,-33
2018-05-17,14:39:55.326,-2,110,221,266,381,458,477,457,438,402,297,-335,-1126,-1522,-585,909,1301,1578,1532,1002,297,-141,-262,-250,-250,-244,-256,-256,-258,-274,-291,-312,-375,-443,-483,-515,-558,-584,-576,-541,-490,-450,-421,-362,-275,-145,18,173,296,322,350,324,246,208,193,182,164,116,56,-38,-70,-25,50,149,287,326,333,427,475,528,535,496,463,325,-395,-1146,-1804,-576,1176,2177,2602,2216,1074,142,-335,-415,-416,-417,-362,-401,-418,-494,-470,-469,-454,-530,-621,-603,-628,-659,-667,-619,-581,-531,-484,-465,-412,-320,-123,74,209,363,431,412,407,388,371,337,346,323,271,206,155,199,223,282,399,454
2018-05-17,14:39:56.363,447,534,597,568,511,463,396,326,-154,-901,-1719,-1284,693,1789,2432,2368,1458,326,-233,-424,-442,-450,-470,-464,-466,-498,-518,-520,-520,-542,-571,-575,-563,-546,-502,-434,-395,-338,-313,-316,-326,-279,-173,-67,69,136,204,269,266,223,254,240,188,79,-30,-117,-124,-70,-22,45,155,216,231,280,329,333,316,307,301,206,-367,-1116,-1495,-734,740,1236,1802,1909,1186,233,-273,-441,-471,-506,-536,-555,-553,-559,-585,-587,-595,-627,-650,-665,-669,-660,-631,-581,-510,-491,-457,-404,-339,-193,-82,115,262,372,392,406,395,348,289,243,237,204,116,44,-65,-100,-76,-24,43,159,197,275,374,421
2018-05-17,14:39:57.401,407,367,336,296,5,-728,-1281,-1490,422,1754,2658,2688,1815,512,-209,-511,-539,-527,-527,-523,-498,-487,-509,-492,-489,-532,-570,-578,-592,-614,-600,-597,-536,-457,-425,-389,-307,-221,-122,69,233,323,385,408,390,346,273,211,141,103,55,-34,-157,-284,-246,-231,-175,-33,169,289,388,478,523,507,487,483,475,248,-409,-1064,-1653,620,2305,3298,3175,2120,564,-301,-634,-648,-625,-619,-608,-620,-622,-613,-608,-619,-642,-655,-674,-683,-655,-618,-553,-469,-383,-313,-273,-220,-119,-1,142,287,433,505,475,449,397,317,233,163,148,105,18,-62,-63,-58,-45,16,174,247,311,365,413,419,389,348
2018-05-17,14:39:58.438,326,205,-393,-956,-1856,-445,1379,2250,2559,2148,1006,41,-387,-501,-489,-468,-469,-446,-426,-405,-383,-391,-376,-358,-340,-349,-321,-297,-252,-174,-134,-145,-160,-184,-206,-187,-110,-37,27,45,50,34,10,-27,-65,-84,-103,-165,-259,-309,-309,-268,-285,-209,-69,-10,34,80,198,261,314,227,151,155,-240,-909,-1839,-1516,872,2161,2788,2527,1430,143,-481,-651,-609,-630,-638,-575,-554,-543,-531,-513,-503,-525,-536,-553,-525,-486,-482,-434,-356,-325,-319,-336,-330,-299,-219,-111,1,69,95,94,64,27,-3,-30,-38,-47,-62,-142,-224,-248,-224,-208,-147,33,215,286,387,481,505,507,510,516,468,122
2018-05-17,14:39:59.475,-543,-1578,-642,1740,2851,3410,3085,1974,637,-127,-347,-300,-244,-172,-122,-95,-60,-21,-23,-17,44,31,35,65,75,112,113,122,162,179,194,249,387,570,769,953,1072,1130,1142,1099,1065,1014,953,943,933,896,811,685,667,670,596,584,750,863,916,962,999,1005,964,926,852,775,343,-413,-1520,-867,1306,2436,2964,2673,1566,403,-200,-388,-404,-437,-461,-484,-505,-517,-544,-570,-629,-681,-735,-803,-842,-841,-832,-808,-742,-690,-662,-653,-636,-590,-518,-437,-365,-323,-325,-342,-380,-449,-504,-568,-622,-686,-731,-793,-845,-856,-875,-856,-691,-528,-439,-362,-251,-210,-226,-221,-233,-297,-699,-1552,-2042,-1981
2018-05-17,14:40:00.512,-28,625,1144,1322,954,78,-532,-774,-778,-773,-732,-730,-761,-768,-769,-779,-816,-853,-879,-902,-913,-942,-948,-943,-914,-872,-841,-843,-800,-681,-602,-502,-302,-218,-135,-153,-206,-217,-246,-264,-292,-331,-373,-465,-561,-517,-514,-509,-367,-167,-27,49,146,213,222,206,203,189,28,-667,-1393,-1931,-6,1414,2193,2268,1596,469,-173,-437,-459,-428,-425,-422,-400,-408,-427,-472,-514,-550,-593,-622,-627,-630,-631,-600,-552,-504,-443,-423,-380,-302,-159,-9,123,247,311,298,261,227,155,128,91,86,28,-41,-144,-151,-140,-168,-127,71,180,248,357,423,439,420,393,361,307,-198,-1049,-1997,-826,1184,2253,2601
2018-05-17,14:40:01.549,2064,948,141,-317,-426,-442,-449,-467,-476,-465,-470,-495,-504,-507,-523,-531,-554,-544,-537,-516,-473,-450,-409,-328,-281,-262,-221,44,256,380,499,479,418,356,308,238,196,149,82,-1,-79,-21,6,41,149,315,389,465,533,604,611,607,568,513,289,-522,-1272,-1686,146,1436,2204,2400,1866,778,79,-242,-305,-310,-325,-325,-338,-342,-359,-349,-359,-391,-391,-389,-397,-418,-412,-380,-368,-347,-331,-336,-346,-309,-216,-120,-13,66,118,124,109,93,41,9,0,-15,-109,-191,-209,-170,-149,-39,101,249,315,386,462,531,526,483,439,391,-68,-894,-1356,-1118,514,1057,1589,1897,1585,590,-54,-318
2018-05-17,14:40:02.586,-332,-312,-307,-286,-181,-341,-379,-304,-344,-353,-477,-586,-566,-546,-566,-608,-618,-581,-553,-568,-565,-486,-373,-233,-112,-16,33,24,40,16,5,2,0,-9,-56,-126,-174,-123,-78,10,138,235,326,459,502,528,535,524,489,362,-226,-1080,-1491,-636,980,1450,1744,1680,1101,345,-118,-232,-230,-237,-245,-269,-276,-246,-281,-321,-350,-382,-448,-514,-564,-583,-610,-611,-557,-498,-455,-430,-359,-257,-95,70,215,311,327,322,296,249,189,185,183,144,84,-30,-49,-9,56,153,316,391,393,465,509,520,521,479,424,270,-494,-1278,-1747,-384,1146,2078,2531,2260,1241,261,-247,-359,-403,-375,-353,-364
2018-05-17,14:40:03.624,-356,-425,-383,-413,-488,-503,-558,-590,-563,-540,-521,-464,-411,-375,-332,-329,-296,-204,-72,99,245,335,366,360,313,284,255,257,248,171,103,33,69,124,181,282,353,369,440,478,457,435,402,332,227,-207,-987,-1633,-1250,613,1480,2050,2068,1301,258,-235,-403,-408,-412,-418,-442,-480,-508,-536,-568,-592,-586,-589,-607,-604,-583,-535,-496,-457,-413,-397,-397,-406,-357,-297,-233,-170,-103,-40,-71,-73,-82,-95,-94,-132,-249,-343,-390,-353,-322,-168,-44,62,108,131,200,261,263,256,241,220,-146,-1000,-1387,-1011,625,1080,1549,1805,1538,692,135,-71,-37,-17,-37,-36,-23,-14,-17,-23,-33,-56
2018-05-17,14:40:04.661,-79,-90,-71,-53,-44,20,99,180,248,318,376,484,630,807,980,1114,1158,1182,1166,1126,1096,1053,995,931,873,781,745,752,748,784,848,886,898,961,1042,1050,1013,966,951,875,473,-315,-1035,-909,1022,2161,2885,2838,1956,733,17,-258,-301,-332,-373,-402,-454,-487,-517,-572,-616,-648,-691,-723,-777,-824,-837,-801,-806,-755,-720,-750,-717,-631,-446,-244,-77,58,68,61,7,-34,-98,-180,-245,-318,-403,-510,-541,-518,-471,-389,-266,-210,-153,-28,67,65,77,47,34,-111,-630,-1352,-2201,-949,924,2013,2549,2122,836,-243,-866,-1000,-1040,-1002,-1008,-1007,-1027,-1044,-1026,-1006,-1034,-1081,-1077,-1062,-1048,-1003
2018-05-17,14:40:05.698,-945,-865,-803,-731,-710,-676,-584,-405,-242,-101,-3,55,74,75,13,-26,-78,-138,-180,-260,-355,-437,-372,-342,-297,-195,-100,-85,10,79,121,150,144,124,80,-268,-977,-1563,-1584,295,1423,2074,2112,1358,193,-408,-623,-632,-622,-605,-572,-599,-587,-546,-529,-534,-553,-546,-538,-524,-471,-446,-433,-397,-322,-320,-342,-280,-248,-176,-100,-16,37,78,89,88,78,-46,-145,-185,-240,-346,-464,-499,-453,-405,-327,-176,-21,109,192,177,245,278,309,229,150,-433,-1120,-1696,-694,1262,2192,2632,2220,1032,-23,-554,-691,-636,-625,-607,-590,-585,-562,-553,-564,-580,-612,-641,-661,-607,-588,-563,-511,-435,-369,-334
2018-05-17,14:40:06.735,-315,-275,-156,-9,155,278,351,315,285,234,112,13,-29,-54,-86,-151,-229,-312,-303,-247,-175,-101,39,97,147,219,278,283,250,217,200,49,-529,-1141,-1865,269,1884,2665,2723,2060,670,-389,-904,-935,-870,-867,-829,-808,-812,-778,-764,-762,-737,-728,-712,-643,-590,-520,-422,-337,-246,-195,-165,-88,31,169,346,517,577,631,686,720,696,625,590,589,610,630,612,591,580,656,692,758,875,1023,1055,1171,1235,1264,1247,1218,1198,1156,949,295,-542,-1259,1174,2677,3559,3599,2894,1413,461,24,-41,-19,-13,3,-7,5,8,16,13,-9,-55,-45,-29,-42,-27,25,60,64,61,33,12,32
2018-05-17,14:40:07.772,111,198,270,324,345,343,310,286,263,212,156,93,23,-48,-140,-137,-145,-165,-91,50,99,155,217,264,268,246,206,165,25,-658,-1243,-1898,-410,1105,1821,2123,1799,759,-123,-502,-597,-546,-523,-530,-538,-548,-561,-575,-576,-603,-602,-588,-603,-628,-661,-688,-707,-710,-721,-737,-736,-693,-610,-490,-378,-264,-179,-220,-224,-246,-290,-337,-401,-403,-445,-493,-608,-591,-530,-543,-485,-385,-266,-179,-48,15,15,20,41,29,-35,-421,-1061,-1881,-1256,799,1861,2422,2093,1013,-43,-567,-659,-622,-597,-638,-641,-634,-618,-637,-635,-629,-701,-763,-834,-889,-891,-862,-836,-808,-735,-697,-642,-569,-453,-326,-166,-40
2018-05-17,14:40:08.809,33,65,53,36,-37,-102,-116,-141,-203,-281,-366,-409,-326,-345,-326,-183,-37,19,157,235,248,265,255,214,189,-43,-771,-1569,-1896,490,1981,2874,2687,1692,422,-354,-687,-724,-700,-698,-689,-680,-698,-691,-663,-667,-692,-732,-772,-817,-839,-824,-800,-726,-625,-556,-506,-410,-257,-81,110,283,439,442,347,320,323,255,206,175,163,98,-3,-91,-50,-43,-53,50,220,280,368,468,503,497,479,455,410,218,-453,-1166,-1762,38,1514,2356,2568,2080,901,99,-271,-326,-357,-356,-350,-355,-374,-396,-441,-480,-525,-538,-543,-549,-559,-548,-497,-436,-384,-351,-322,-288,-241,-151,-42,44,116,146,149,111
2018-05-17,14:40:17.233,-166,-252,-247,-291,-257,-268,-307,-226,-157,-77,-25,-18,169,-16,-182,-233,-203,-310,-325,-342,-454,-584,-795,-840,-748,-275,-53,-152,-80,38,5,-4,66,86,69,-339,-1003,-1248,-1020,508,859,933,1026,963,665,466,287,185,147,199,65,-24,-8,-11,-32,-60,-75,-113,-143,-155,-185,-167,-272,-260,-192,-230,-266,-277,-226,-192,-238,-170,-88,-30,-79,-92,-129,-142,-97,-129,-240,-308,-308,-331,-313,-303,-190,41,138,148,195,244,280,300,393,371,-49,-810,-1005,-643,825,869,805,1010,1077,579,154,48,32,-15,-105,-158,-86,-126,-359,-267,-202,-316,-444,-478,-508,-463,-521,-492,-472,-338,-286,-312
2018-05-17,14:40:17.807,-300,-233,-220,-141,-25,32,23,4,19,27,24,0,-16,9,17,20,-28,52,65,-9,35,194,319,362,394,501,473,429,413,314,-145,-1047,-1301,-827,787,1222,1583,1595,1035,179,-311,-495,-453,-398,-386,-401,-344,-389,-357,-262,-343,-298,-346,-393,-421,-368,-426,-431,-381,-340,-321,-315,-245,-185,-4,189,373,545,546,411,326,268,215,159,145,105,-29,-230,-328,-110,105,-173,-29,192,392,437,347,247,126,3,-40,-177,-765,-1349,-1493,577,1648,1994,2101,1615,415,-398,-789,-865,-816,-793,-783,-742,-771,-756,-778,-735,-688,-649,-611,-655,-720,-709,-587,-390,-227,-127,-78,-67,-32,72,169,272
2018-05-17,14:40:18.844,391,435,399,387,310,261,204,178,139,93,36,-35,-24,33,179,352,564,753,880,1011,1100,1118,1158,1197,1127,957,282,-432,-1085,1598,3154,4024,4156,3452,1867,722,221,202,168,153,240,298,308,308,192,63,184,421,304,138,97,-47,140,90,-21,-60,39,118,233,404,537,554,960,880,769,661,565,589,556,473,529,508,245,139,125,102,143,441,595,733,832,905,929,871,832,697,467,-316,-1065,-1651,-433,1070,1755,2245,2035,1169,252,-303,-516,-533,-645,-713,-764,-847,-887,-952,-981,-954,-998,-1007,-1005,-966,-959,-941,-872,-770,-728,-759,-755,-740,-662,-538,-495,-471,-382,-353,-331,-361
2018-05-17,14:40:19.881,-381,-371,-319,-238,-238,-362,-502,-559,-521,-459,-383,-233,-166,-20,55,-17,-11,-247,-387,-104,-117,-649,-1390,-1832,-1345,712,1340,1637,1460,724,-156,-733,-787,-855,-874,-941,-851,-796,-805,-719,-783,-751,-741,-814,-842,-891,-855,-798,-757,-630,-429,-279,-179,-188,-203,-126,89,226,246,203,156,93,-12,-119,-71,-101,-258,-406,-550,-559,-518,-440,-254,-117,-44,46,154,131,180,143,46,-51,-632,-1252,-1725,-135,1648,2396,2801,2515,1397,32,-676,-911,-938,-897,-897,-859,-822,-690,-566,-561,-669,-750,-741,-676,-640,-588,-552,-533,-516,-494,-532,-509,-540,-141,83,55,178,179,132,55,-54,-222,-315,-65,-100,-216
2018-05-17,14:40:20.919,-187,-432,-534,-385,-357,-332,-115,155,268,286,289,413,400,352,301,317,-124,-848,-2231,-917,1424,2698,3188,2619,1226,-28,-464,-575,-621,-484,-445,-513,-533,-444,-464,-592,-612,-588,-684,-780,-833,-819,-781,-713,-615,-537,-452,-441,-400,-303,-255,-125,33,81,84,99,117,77,26,32,32,-50,-168,-247,-176,-206,-176,40,383,664,717,716,643,563,541,649,586,-106,-840,-1247,-450,830,1428,2077,2150,1335,357,-188,-354,-399,-522,-608,-559,-649,-767,-547,-325,-424,-660,-675,-639,-774,-786,-746,-560,-593,-551,-329,-369,-405,-352,-109,10,116,270,225,128,150,223,306,231,50,-79,-197,-225,-226,-202,-5
2018-05-17,14:40:21.956,132,366,349,330,410,469,472,416,339,309,161,-474,-1158,-1722,462,2105,2715,2728,2163,919,-194,-744,-746,-708,-696,-606,-571,-583,-711,-737,-679,-664,-727,-729,-815,-854,-836,-747,-575,-385,-146,-103,-123,-52,123,339,435,472,489,507,468,308,162,154,-55,-87,-76,-43,-127,-257,-278,99,97,79,288,334,477,526,504,310,22,-588,-1132,-1910,474,1894,2504,2853,2484,1121,62,-472,-594,-572,-467,-421,-420,-335,-191,-156,-209,-236,-253,-230,-137,-27,126,212,276,299,209,-1,-149,-209,-207,-232,-226,-194,-179,-226,-215,-285,-352,-358,-364,-444,-542,-627,-611,-579,-506,-343,-80,72,167,274,406,404
2018-05-17,14:40:22.993,457,464,418,219,-536,-1073,-1558,131,1502,2187,2617,2411,1453,547,-18,-188,-141,-91,-74,-152,-161,-188,-258,-346,-394,-368,-626,-527,-383,-627,-663,-641,-688,-575,-578,-411,-375,-362,-308,-63,30,0,-45,-45,-169,-234,-191,-152,-249,-245,-405,-496,-493,-473,-259,-6,112,216,410,529,522,478,372,121,-458,-1267,-1672,-714,921,1198,1586,1717,1387,619,14,-201,-164,-239,-289,-298,-324,-326,-372,-348,-372,-408,-411,-361,-319,-285,-179,-123,-80,8,163,266,304,423,571,714,834,949,997,974,1002,1001,1081,1141,1160,1073,939,921,998,1075,1052,1048,1167,1371,1557,1648,1743,1693,1666,1330,1547,1630,1093,296
2018-05-17,14:40:24.030,-478,109,2217,3055,3559,3404,2498,1122,180,162,355,267,122,147,93,31,49,126,41,-1,-4,-37,-96,-118,-59,32,155,339,432,255,176,176,269,371,396,366,260,150,30,-71,-172,-204,-344,-565,-677,-756,-771,-696,-546,-462,-432,-322,-297,-277,-231,-244,-308,-572,-1271,-1670,-1944,-525,600,1072,1465,1284,457,-418,-820,-881,-877,-928,-896,-860,-864,-885,-843,-706,-565,-582,-673,-714,-689,-668,-798,-816,-693,-523,-594,-937,-767,-760,-782,-675,-545,-585,-574,-676,-770,-818,-833,-1001,-1053,-922,-842,-915,-991,-999,-809,-490,-341,-210,-225,-166,-102,-130,-121,-174,-737,-1423,-2354,-1007,972,2206,2658,2119,933,-178
2018-05-17,14:40:25.067,-780,-819,-695,-644,-629,-588,-605,-649,-658,-672,-667,-683,-770,-880,-959,-991,-967,-924,-846,-778,-734,-700,-563,-420,-344,-252,-160,-152,-85,-77,-130,-142,-155,-157,-243,-361,-421,-429,-456,-440,-292,-126,36,298,578,688,610,400,302,319,-46,-1017,-1523,-768,811,1310,1981,2226,1592,482,-224,-359,-429,-627,-494,-495,-560,-597,-662,-606,-417,-534,-563,-623,-722,-650,-531,-489,-393,-322,-397,-213,-119,-59,-16,76,147,295,289,277,293,187,285,354,274,74,-141,-234,-174,-128,60,214,345,379,461,498,484,429,417,354,267,-21,-718,-1296,-1417,658,1767,2148,2080,1552,460,-290,-555,-609,-569,-468,-399,-373
2018-05-17,14:40:26.105,-407,-445,-419,-418,-397,-436,-525,-474,-432,-435,-427,-348,-212,-238,-134,48,99,152,132,147,173,233,288,269,210,116,91,-81,-307,-536,-567,-358,1,-12,99,206,181,156,194,84,110,177,-78,-847,-1546,-1666,643,1796,2223,2403,1881,459,-358,-681,-532,-445,-537,-590,-608,-602,-655,-655,-626,-425,-313,-263,-278,-329,-301,-129,37,121,166,173,160,120,113,68,141,293,318,198,-7,-171,-209,-311,-400,-499,-595,-575,-603,-424,-249,-31,129,307,426,450,475,486,582,485,301,-443,-1242,-1530,1039,2362,3184,3286,2560,1098,102,-295,-422,-443,-364,-334,-349,-349,-380,-419,-390,-266,-484,-640,-592,-564
2018-05-17,14:40:27.142,-623,-509,-550,-504,-425,-417,-367,-385,-299,9,181,20,-126,4,46,-47,-109,-67,-229,-326,-208,-171,-268,-245,45,264,255,310,461,557,633,731,720,644,-146,-1098,-1617,-651,811,1366,1889,1968,1365,518,-19,-162,-136,-141,-210,-307,-360,-363,-375,-421,-483,-535,-470,-438,-383,-379,-363,-365,-347,-264,-230,-206,-215,-203,-36,-25,-15,86,174,250,107,12,-16,18,3,-76,3,126,35,-116,-176,3,294,399,428,504,560,474,281,253,435,23,-1039,-1413,-1044,950,1976,2871,2722,1617,141,-602,-731,-614,-738,-798,-822,-792,-924,-779,-734,-809,-875,-917,-932,-900,-896,-639,-507,-658,-624,-662,-692,-459
2018-05-17,14:40:28.179,-142,203,346,396,423,328,336,424,466,482,345,112,-119,-188,-176,-145,56,292,368,420,511,564,574,536,522,488,437,-110,-776,-1415,492,2004,2482,2775,2561,1494,296,-338,-545,-581,-541,-506,-493,-510,-550,-551,-531,-559,-534,-549,-351,-221,-120,-168,-163,-111,-140,-95,-17,-36,-22,142,239,368,168,17,40,-69,111,-24,-355,-527,-587,-581,-648,-772,-572,-130,215,121,-31,34,-76,188,190,-49,-643,-1266,-1965,-505,1309,2058,2441,2108,1020,-4,-427,-500,-374,-218,-175,-290,-446,-541,-530,-352,-213,-191,-182,-108,-59,-69,-73,-70,-131,-154,-230,-233,-196,-88,61,139,224,301,294,337,339,320
2018-05-17,14:40:29.216,288,286,265,252,269,359,437,650,902,1085,1136,1239,1235,1264,1351,1381,1304,811,55,-763,232,2197,3101,3406,3126,2510,1698,1264,1103,973,675,936,1050,759,673,401,180,435,272,73,130,-51,-37,1,276,179,63,8,92,176,141,330,310,176,525,441,306,272,164,153,140,-35,-218,-332,-310,-83,65,205,349,417,453,497,495,399,300,261,-66,-910,-1619,-1862,-366,619,1112,1706,1585,646,-379,-945,-1128,-1152,-1162,-1134,-1152,-1166,-1114,-1086,-1115,-1191,-1217,-1183,-1204,-1163,-1043,-1084,-1161,-1030,-910,-943,-919,-805,-668,-549,-375,-284,-214,-93,-10,-180,-378,-417,-475,-765,-622,-214,-404,-478,-467,-222
2018-05-17,14:40:30.253,-74,30,111,87,111,162,55,-79,-432,-755,-1232,-1744,233,1356,1668,1750,1500,534,-247,-568,-684,-524,-481,-575,-599,-559,-510,-515,-610,-628,-552,-507,-328,-199,-224,-180,-199,-288,-285,-190,-177,-186,-177,-208,-274,-231,-132,-194,-332,-411,-563,-701,-854,-940,-974,-959,-843,-633,-502,-371,-163,-18,3,-13,-9,11,-85,-591,-1240,-1973,-768,1478,2380,2783,2648,1463,84,-623,-851,-672,-414,-438,-493,-460,-433,-434,-452,-406,-356,-409,-505,-381,-295,-399,-580,-668,-289,-141,-124,-150,-98,22,108,145,171,8,22,216,70,83,-14,-213,-225,-155,-120,-49,226,419,446,528,660,711,652,611,568,366,-470,-1504
2018-05-17,14:40:31.290,-1272,1137,2175,2369,1964,1391,631,137,-39,21,34,-17,-34,-66,-134,-181,-273,-317,-366,-432,-443,-428,-381,-324,-268,-191,-127,-82,-95,-133,-145,-121,-74,7,80,78,50,-9,-43,-114,-201,-342,-393,-396,-384,-225,-15,145,333,572,676,701,545,418,257,22,-770,-1453,-1958,-219,972,1450,1668,1540,984,221,-316,-540,-540,-585,-659,-821,-994,-794,-613,-581,-607,-530,-645,-545,-662,-624,-527,-436,-341,-335,-348,-443,-389,-275,-216,-220,-119,-174,-155,-75,-13,93,-2,-248,-517,-629,-600,-401,-243,-46,63,109,145,102,60,39,72,34,-255,-1046,-1627,-1721,161,1523,2266,2311,1659,417,-435,-786,-776,-729
2018-05-17,14:40:32.328,-693,-685,-675,-654,-571,-596,-641,-617,-633,-646,-691,-723,-673,-685,-642,-553,-480,-419,-294,-72,37,-20,63,254,319,271,175,-213,-85,201,-85,-392,-414,-181,126,212,268,344,257,210,377,210,156,339,-90,-874,-1661,-270,1706,2371,2741,2640,1541,237,-476,-489,-548,-602,-625,-566,-616,-593,-589,-572,-602,-562,-393,-349,-298,-323,-381,-420,-180,36,91,122,158,153,157,239,178,222,187,98,-48,-235,-402,-536,-570,-587,-533,-351,-108,58,252,353,424,434,404,401,451,238,-631,-1283,-1312,1033,2154,2676,2771,2150,959,164,-172,-150,49,162,37,-124,-218,-174,-95,-73,-107,-135,-196,-147,-110,-196
2018-05-17,14:40:33.365,-347,-371,-471,-387,-256,-324,-383,-374,-423,-358,-107,-198,-326,-365,-367,-612,-573,-565,-611,-501,-394,-196,6,78,162,406,461,362,348,335,62,-713,-1219,-1327,464,1509,2098,2269,1782,803,166,-81,-119,-154,-188,-177,-233,-328,-399,-431,-458,-472,-548,-568,-622,-654,-698,-712,-702,-678,-667,-596,-475,-327,-254,-159,-77,-73,-42,-22,30,36,-41,-115,-296,-364,-388,-352,-183,93,230,381,457,535,630,766,845,699,197,-747,-1277,-641,990,1188,1475,1790,1603,834,536,283,238,158,144,96,9,-134,-336,-280,-156,-290,-175,-234,-342,-277,-125,-134,-118,-95,88,21,-49,61,275,439,464,509,509,401
2018-05-17,14:40:34.402,442,445,412,340,280,325,269,248,324,550,683,783,938,986,898,893,885,738,461,-372,-1055,-1332,869,2435,3236,3080,2337,924,-128,-582,-580,-544,-511,-462,-452,-467,-476,-446,-428,-487,-488,-407,-356,-378,-298,-240,-257,-266,-231,-269,-252,-222,-49,138,349,318,188,79,46,-13,-173,-316,-321,-185,-237,-29,195,122,35,264,178,135,235,139,-332,-1240,-1674,-1735,223,1060,1280,1627,1220,227,-268,-470,-522,-422,-433,-414,-297,-356,-367,-358,-364,-347,-321,-317,-254,-192,-117,85,291,219,20,-71,-116,-72,46,130,76,31,-20,-219,-414,-553,-690,-743,-809,-788,-590,-500,-472,-348,-243,-224,-232,-220
2018-05-17,14:40:35.439,-245,-756,-1535,-1876,-1132,713,1408,1947,2008,1469,408,-226,-412,-403,-435,-340,-290,-267,-214,-174,-148,-93,26,194,224,215,211,301,366,380,334,217,166,512,561,502,545,864,974,777,692,609,377,182,82,-5,271,529,607,836,951,1151,1033,1181,1224,1107,917,152,-881,-850,1797,3103,3663,3722,2919,1404,436,78,71,120,186,244,249,164,-87,-118,-119,-35,46,99,86,84,179,130,24,-79,-231,-442,-592,-616,-597,-509,-439,-408,-450,-505,-574,-658,-832,-873,-931,-892,-650,-490,-341,-205,-95,89,121,146,97,4,-554,-1375,-2167,-1047,1024,2140,2692,2358,1191,23,-598,-731,-670,-696,-805,-933
2018-05-17,14:40:36.476,-1142,-669,-667,-917,-930,-900,-979,-988,-970,-1034,-1086,-1005,-1004,-1106,-1065,-845,-783,-922,-905,-798,-849,-817,-664,-850,-889,-838,-952,-966,-931,-675,-442,-244,-173,-102,13,81,174,242,130,-546,-1195,-1522,-146,747,1259,1645,1484,770,172,-138,-199,-192,-282,-388,-338,-308,-381,-393,-419,-468,-470,-474,-474,-495,-481,-483,-461,-409,-432,-459,-468,-457,-417,-374,-262,-266,-209,-111,-127,-296,-431,-453,-456,-438,-284,-86,83,243,265,361,592,655,592,419,-320,-1146,-1347,-40,584,1000,1733,1706,973,298,81,-37,133,89,49,-108,-256,-420,-322,-302,-420,-426,-354,-291,-259,-390,-337,-428,-400,-313,-294,-409,-489,-459
2018-05-17,14:40:37.514,-389,-341,-183,-203,-225,-227,-299,-316,-225,-200,-310,-349,-85,121,254,510,675,707,681,634,518,271,-478,-1148,-1521,450,1898,2998,3083,2355,992,-41,-588,-647,-586,-586,-581,-607,-511,-426,-429,-434,-401,-446,-365,-412,-314,-332,-278,-275,-288,-337,-338,-383,-494,-473,-389,-169,6,6,-123,-264,-337,-261,-210,-229,38,57,73,490,336,356,436,176,379,31,-868,-1329,-1733,250,1414,1875,1900,1422,639,-42,-285,-547,-523,-263,-211,-256,-282,-352,-310,-323,-285,-275,-224,-128,-208,-200,-135,-27,157,284,109,-210,-359,-254,-209,-158,-142,-240,-450,-611,-646,-579,-452,-277,-124,-68,0,73,123,136,150,69
2018-05-17,14:40:38.551,-373,-1141,-1596,-1134,851,1550,1886,1922,1395,413,-138,-309,-284,-315,-390,-391,-374,-378,-388,-382,-367,-426,-433,-356,-348,-209,-63,-2,-88,-191,-176,-214,-283,-286,-235,-142,-109,-203,-197,-369,-421,-166,-114,-59,123,215,321,398,439,543,505,502,520,-370,-1203,-932,1425,2643,3359,3184,2690,1176,198,-26,-13,99,54,3,31,2,54,84,226,322,395,494,551,539,438,477,617,689,730,574,377,301,279,257,215,177,7,-184,-288,-382,-385,-255,10,220,343,558,671,637,611,601,549,93,-853,-1404,-483,1534,2310,2670,2571,1864,691,26,-258,-269,-281,-301,-280,-268,-222,-257,-122,-41,-86,-194
2018-05-17,14:40:39.588,-238,-206,-209,-228,-259,-265,-355,-434,-593,-706,-682,-689,-582,-636,-549,-718,-907,-993,-1153,-1244,-792,-489,-362,-302,-141,-71,-5,12,-42,-130,-675,-1274,-1750,-328,1147,1660,1754,1535,822,46,-248,-244,-179,-137,-50,12,-98,-336,-462,-350,-305,-318,-303,-306,-236,-275,-291,-355,-525,-664,-841,-977,-982,-982,-939,-892,-848,-844,-932,-1066,-1045,-940,-883,-733,-492,-340,-129,27,86,188,177,252,52,-751,-1444,-1779,405,1972,2794,2873,2178,851,-83,-406,-384,-428,-560,-582,-527,-498,-558,-645,-769,-420,-228,-328,-554,-497,-511,-612,-595,-611,-591,-595,-612,-635,-342,-244,-321,-271,-370,-260,-415,-597,-472,-425,-96,80
2018-05-17,14:40:40.625,100,195,579,627,542,593,610,318,-237,-1509,-1721,1026,2859,3733,3440,2236,657,-309,-623,-549,-416,-368,-445,-481,-453,-432,-424,-494,-516,-548,-563,-597,-641,-617,-557,-473,-424,-396,-393,-381,-286,-210,-190,-169,-214,-283,-364,-374,-428,-221,-35,85,355,523,578,627,669,729,717,661,139,-656,-1340,-444,1351,2118,2382,2175,1555,722,298,61,51,21,-90,85,-106,-223,-119,-53,-284,-367,-357,-398,-521,-582,-562,-582,-355,-107,-179,-363,-457,-370,-511,-510,-391,-342,-363,-432,-410,-451,-407,-213,102,149,233,439,538,615,731,809,547,-436,-1013,-1147,208,1161,1396,1597,1461,987,445,102,-7,-64,-83,-148
2018-05-17,14:40:41.662,-288,-323,-375,-416,-493,-539,-532,-557,-593,-613,-575,-597,-547,-412,-392,-431,-513,-490,-410,-406,-342,-300,-337,-410,-465,-520,-488,-413,-321,-38,237,429,547,606,463,455,525,315,-522,-1360,-1396,407,1349,1653,2116,1798,1097,643,310,122,-31,-61,-121,-298,-136,-154,-186,-225,-160,-171,-131,-204,-240,-290,-245,6,-87,-134,-100,47,161,225,327,470,550,540,517,478,551,607,655,699,900,1054,1217,1316,1424,1478,1450,1414,1272,641,-233,-787,1,2045,3396,4052,3657,2526,1079,193,-77,-74,-108,-135,-177,-243,-204,-218,-250,-307,-320,-368,-448,-381,-377,-416,-428,-367,-337,-418,-488,-560,-509,-409,-345,-225
2018-05-17,14:40:42.700,-159,-257,-479,-500,-413,-247,-37,174,91,101,447,528,422,240,182,144,-812,-1480,-1577,268,1509,1861,1735,1378,248,-406,-812,-874,-857,-760,-951,-869,-800,-790,-792,-823,-913,-968,-1024,-956,-813,-813,-771,-642,-639,-616,-604,-510,-395,-364,-518,-577,-580,-617,-619,-542,-490,-356,-110,-84,-98,28,124,91,56,9,-112,-615,-1343,-1812,-1109,861,1616,1883,1612,833,-117,-514,-662,-633,-582,-541,-539,-522,-530,-601,-643,-757,-800,-697,-734,-811,-772,-710,-698,-659,-563,-424,-396,-333,-377,-327,-196,-204,-323,-446,-547,-381,131,354,89,347,623,724,771,618,565,483,9,-735,-1197,-1146,1189,2435,2754,2413,1726,475
2018-05-17,14:40:43.737,-301,-599,-428,-440,-512,-588,-636,-563,-728,-774,-714,-832,-913,-957,-980,-961,-814,-659,-529,-506,-537,-402,-162,-9,-26,54,-27,-191,-371,-445,-348,-267,-73,203,331,428,557,621,639,597,516,371,-288,-937,-1173,1004,2310,2694,2797,2427,1239,230,-344,-404,-389,-439,-436,-383,-461,-530,-559,-541,-675,-724,-667,-508,-405,-395,-406,-384,-350,-327,-296,-232,-271,-174,-37,-85,-46,-364,-269,-147,-127,-116,16,161,204,195,447,407,326,424,392,-194,-798,-1171,-611,1242,2041,2235,2181,1525,542,287,38,-47,111,71,66,55,36,139,258,279,211,112,46,199,325,387,426,287,199,193,96,-8,-70,-79
2018-05-17,14:40:44.774,-129,-178,-380,-547,-557,-544,-424,-253,-25,148,258,353,465,502,508,503,259,-513,-1081,-1247,189,1789,2332,2594,2224,1291,293,-265,-339,-299,-321,-395,-474,-349,-239,-227,-339,-542,-585,-562,-539,-550,-623,-667,-490,-335,-423,-296,-316,-432,-178,-14,-61,-242,-393,-536,-610,-688,-833,-366,130,114,178,284,277,452,295,325,397,-277,-1063,-1717,-263,1737,2556,2948,2625,1404,122,-624,-758,-702,-616,-642,-598,-735,-894,-873,-850,-768,-640,-634,-650,-659,-629,-595,-573,-610,-650,-715,-698,-578,-467,-383,-343,-389,-451,-493,-548,-548,-495,-366,-135,114,288,399,571,685,623,576,550,375,-319,-1013,-1537,546,2008,2793
2018-05-17,14:40:45.811,2942,2339,1136,246,-231,-324,-393,-424,-430,-467,-523,-569,-740,-738,-523,-623,-708,-839,-874,-821,-583,-549,-555,-510,-509,-487,-314,-447,-556,-3,-30,-278,-414,-494,-386,-278,-69,151,220,336,586,615,570,581,586,495,-19,-793,-1197,-737,1101,1996,2536,2378,1682,704,181,18,14,-1,-54,-91,-215,-326,-391,-483,-612,-687,-749,-811,-896,-876,-847,-819,-729,-680,-582,-502,-355,-270,-283,-253,-157,-171,-251,-295,-325,-297,-243,-223,-8,225,383,467,569,637,596,490,423,142,-572,-1294,-929,988,1750,2055,2027,1554,541,-218,-167,141,-158,-386,-220,-269,-351,-514,-699,-737,-793,-819,-993,-1105,-1017,-860,-942,-574
2018-05-17,14:40:46.848,-409,-490,-85,-217,-139,-83,-44,-37,-33,-50,-142,-150,-105,-82,-16,184,418,525,674,744,779,866,821,695,274,-733,-1446,-883,1175,1890,2224,2088,1597,682,82,-178,-192,-185,-300,-394,-439,-494,-556,-612,-709,-753,-723,-722,-605,-549,-491,-329,-143,-200,-178,-35,109,45,164,244,217,292,320,302,256,287,314,387,582,981,1237,1243,1213,1167,1102,1077,911,647,-34,-447,-734,673,1692,1996,2290,2159,1464,755,197,-9,-87,-188,-202,-267,-347,-275,-187,-144,-300,-378,-547,-509,-373,-334,-277,-81,-42,-100,-228,-136,-18,-23,55,2,-1,46,58,62,145,205,266,301,405,420,581,700,702,678
2018-05-17,14:40:47.885,566,477,321,-333,-1157,-1454,-494,901,1541,1946,1702,854,-44,-542,-687,-656,-661,-702,-713,-734,-787,-776,-800,-829,-885,-917,-879,-826,-716,-647,-626,-625,-681,-671,-593,-535,-443,-328,-142,-34,-32,-81,-94,-131,-204,-58,75,211,312,573,524,489,221,212,469,271,-475,-1044,-1584,-256,1548,2434,2609,1919,739,-356,-644,-745,-874,-696,-836,-835,-952,-821,-935,-1086,-1169,-1150,-1308,-1210,-1122,-1205,-1100,-1003,-934,-904,-759,-486,-268,-98,-18,39,128,128,130,22,-12,45,148,229,429,435,475,593,710,667,579,514,421,-92,-805,-1408,968,2516,2873,2838,2224,957,-160,-630,-675,-706,-708,-758,-804,-843,-859,-891
2018-05-17,14:40:48.923,-959,-1040,-1101,-1099,-1087,-1052,-848,-566,-342,-249,-243,-203,-81,85,141,71,40,157,94,-61,-148,-236,-97,265,441,456,449,502,431,341,342,337,351,-167,-868,-1492,-335,1203,1481,1904,1851,1145,290,-68,-246,-340,-331,-294,-299,-390,-472,-538,-478,-457,-417,-283,-187,-122,-116,-179,-214,-126,-76,-82,-76,-59,-67,-153,-222,-342,-464,-496,-583,-624,-580,-473,-225,-121,-81,126,225,206,292,274,197,-337,-1046,-1374,-712,1085,1813,2161,2081,1430,402,-158,-426,-461,-467,-440,-445,-462,-589,-592,-496,-365,-397,-549,-588,-487,-396,-255,-196,-231,-262,-60,69,34,222,128,59,-51,-7,-125,-377,-579,-556,-404
2018-05-17,14:40:49.960,-197,24,433,387,356,335,546,588,343,413,-204,-1019,-1692,298,2026,2823,3153,2613,1151,-49,-625,-726,-700,-641,-615,-649,-750,-917,-1057,-978,-787,-658,-606,-512,-469,-432,-449,-513,-483,-491,-516,-364,-213,-183,-197,-217,-263,-287,-263,-212,-258,-216,-139,54,267,471,599,659,781,864,778,734,640,299,-419,-1229,-318,1996,2926,3389,3127,1973,593,-140,-290,-367,-481,-541,-593,-565,-538,-640,-797,-795,-599,-794,-869,-860,-776,-583,-548,-540,-537,-488,-402,-299,-206,-271,-217,-100,-110,-112,-203,-294,-357,-134,-26,204,412,454,563,657,661,549,602,535,-121,-780,-1200,-164,1497,2272,2510,2139,1285,444,58,20
2018-05-17,14:40:50.997,-42,-88,-147,-311,-417,-494,-558,-673,-802,-897,-930,-927,-914,-856,-801,-699,-617,-596,-496,-426,-379,-366,-286,-243,-224,-298,-383,-425,-380,-436,-408,-254,-40,194,369,417,461,497,467,486,495,83,-711,-1246,-444,896,1314,1654,1696,1218,447,40,-176,-112,-99,-369,-223,-211,-342,-411,-632,-778,-869,-961,-970,-796,-640,-455,-343,-279,-118,18,58,101,96,147,222,267,350,307,260,267,272,146,270,550,757,861,1027,1108,1099,1044,906,797,486,-273,-808,-523,1505,2355,2833,2889,2412,1349,583,236,170,123,47,-1,-36,-76,-198,-208,-210,-278,-309,-289,-293,-197,-55,-7,37,117,226,218,228,277
2018-05-17,14:40:52.034,373,487,401,370,408,376,218,191,245,328,508,666,691,675,700,764,832,824,736,564,58,-549,-986,-469,1104,1854,2269,2317,1726,539,-226,-516,-532,-593,-634,-679,-509,-676,-854,-816,-787,-682,-907,-901,-936,-864,-759,-680,-611,-593,-595,-463,-312,-219,-293,-326,-256,-240,-152,-133,-206,-297,-304,-255,-50,206,315,303,321,199,106,110,37,-270,-1106,-1596,-1692,229,1446,2096,1955,1175,24,-618,-905,-870,-800,-808,-895,-936,-908,-972,-1078,-1118,-1142,-1190,-1181,-1147,-1112,-1055,-921,-900,-905,-812,-732,-544,-376,-206,-106,-184,-225,-323,-395,-409,-373,-173,-98,-102,251,532,354,381,554,513,449,469,32,-848
2018-05-17,14:40:53.071,-1655,-590,1612,2352,2756,2225,1128,72,-534,-715,-792,-788,-795,-870,-889,-841,-960,-1005,-1057,-1171,-1278,-1192,-1074,-972,-826,-616,-453,-385,-257,-92,65,307,402,437,432,309,65,-148,-138,-41,82,256,447,464,527,606,608,611,572,497,254,-507,-986,-1109,943,1908,2262,2246,1737,605,-147,-420,-434,-429,-507,-455,-524,-658,-693,-700,-754,-753,-840,-857,-739,-570,-315,-122,-242,-254,-194,-90,33,-2,-177,140,180,-20,-159,-160,-241,-434,-310,57,17,163,237,242,219,199,219,213,43,-663,-1215,-1599,-168,1195,1661,1767,1471,622,200,-107,-247,-275,-210,-211,-190,-339,-360,-322,-381,-326,-303,-266,-210,-228
2018-05-17,14:40:54.109,-230,-93,4,50,-15,17,73,4,-74,-72,-156,-302,-378,-529,-626,-684,-641,-572,-370,-217,-103,56,150,154,226,225,155,-336,-1103,-1392,-779,1118,1889,2338,2156,1496,447,-196,-457,-499,-488,-470,-521,-632,-709,-658,-565,-515,-576,-822,-832,-649,-485,-372,-265,-194,-107,72,204,210,104,113,129,248,110,-185,-184,-327,-359,-309,-357,86,244,373,532,556,599,618,462,255,-164,-646,-1426,-68,1831,2648,2954,2698,1508,219,-517,-567,-451,-508,-415,-410,-472,-563,-652,-706,-645,-554,-400,-326,-227,-145,-106,-152,-255,-318,-283,-238,-184,-169,-156,-176,-191,-228,-344,-460,-470,-427,-356,-257,-27,209,337,391
2018-05-17,14:40:55.146,485,493,502,534,481,49,-715,-1206,-569,1305,2080,2420,2244,1503,490,-37,-183,-100,17,94,-44,-126,-257,-393,-454,-662,-648,-467,-478,-620,-610,-473,-465,-561,-449,-362,-209,28,-34,-198,-318,-321,-257,-514,-560,-488,-488,-398,-294,-178,153,311,396,363,434,454,415,386,-251,-915,-1239,-135,1345,1854,2012,1803,1165,540,198,53,-62,-218,-275,-225,-151,-202,-296,-271,-401,-424,-467,-530,-594,-617,-635,-650,-619,-569,-410,-257,-191,-160,-165,-188,-252,-277,-332,-448,-535,-536,-455,-338,-51,197,348,416,509,559,508,454,419,-43,-798,-1380,-736,1153,2111,2526,2334,1493,354,-258,-359,-293,-298,-415,-496,-403
2018-05-17,14:40:56.183,-203,-356,-479,-776,-941,-872,-879,-941,-700,-636,-594,-553,-455,-346,-164,39,141,165,113,31,75,-92,-201,-228,-276,-256,-108,146,416,599,701,685,621,662,665,619,288,-508,-1278,-762,1256,2250,2543,2268,1510,564,148,-4,-32,-36,-123,-127,-226,-322,-429,-531,-632,-774,-855,-923,-916,-842,-697,-611,-523,-404,-349,-170,-105,-43,12,-25,-85,-103,-103,-179,-231,-210,-143,-154,18,245,368,473,581,637,667,655,654,521,-182,-765,-850,553,1176,1589,1862,1662,853,243,62,128,18,-139,-225,-305,-372,-589,-666,-585,-749,-988,-1035,-1016,-978,-943,-889,-603,-504,-500,-291,-196,-128,-112,-214,-127,-55,-110
2018-05-17,14:40:57.220,-255,-303,-337,-267,-193,-109,199,393,452,588,715,764,700,537,313,-451,-1141,-1234,295,1117,1264,1398,1375,887,262,-75,-131,-150,-210,-316,-408,-470,-563,-707,-843,-932,-1003,-1019,-986,-897,-774,-620,-483,-425,-360,-179,-54,41,55,37,90,172,183,228,72,-110,-111,-62,-41,45,300,538,688,767,757,624,586,570,478,-124,-946,-1294,80,1361,2075,2489,2262,1287,409,-106,-235,-261,-277,-368,-471,-555,-593,-657,-771,-895,-968,-929,-920,-860,-760,-625,-558,-371,-218,-64,86,242,302,294,312,353,316,260,259,186,227,353,443,509,671,760,847,916,938,991,940,892,646,-199,-944,-1163,352,1380
2018-05-17,14:40:58.257,2039,2418,2006,916,47,-359,-386,-416,-467,-534,-569,-615,-638,-680,-734,-780,-810,-831,-799,-694,-572,-499,-425,-389,-371,-314,-242,-198,-169,-178,-121,-80,-114,-120,-79,-52,-123,-132,-18,163,302,350,424,454,452,461,438,370,-95,-901,-1221,-668,898,1434,1908,1907,1209,304,-119,-288,-310,-309,-349,-400,-438,-467,-502,-553,-599,-667,-711,-720,-625,-495,-376,-240,-100,21,164,324,480,564,637,655,630,613,569,455,388,374,478,619,796,968,1021,1078,1118,1143,1110,1062,1029,699,-162,-693,-621,1272,2504,3265,3109,2112,840,112,-154,-186,-238,-308,-378,-440,-500,-595,-705,-841,-1001,-1109,-1109,-1075,-962,-837
2018-05-17,14:40:59.294,-712,-610,-473,-299,-94,94,215,237,223,185,152,135,44,-123,-177,-173,-103,-3,156,273,346,435,459,435,395,361,283,-161,-1013,-1860,-373,1294,2382,2599,2005,796,-203,-683,-770,-783,-787,-798,-836,-906,-988,-1086,-1178,-1291,-1350,-1380,-1343,-1231,-1103,-975,-888,-822,-709,-533,-362,-233,-191,-204,-215,-194,-164,-171,-253,-273,-267,-218,-117,35,186,288,349,404,406,395,371,289,-233,-1004,-1682,-791,839,1655,2016,1819,924,114,-234,-326,-332,-343,-397,-455,-494,-534,-605,-667,-743,-788,-785,-729,-648,-563,-467,-383,-336,-279,-217,-138,-58,-41,-51,-58,-77,-102,-153,-234,-295,-293,-263,-202,-36,158,238,296
2018-05-17,14:41:00.332,380,416,387,353,313,0,-867,-1422,-1199,418,1205,1650,1770,1303,409,-82,-258,-300,-318,-343,-398,-460,-540,-612,-676,-782,-863,-946,-982,-966,-914,-833,-740,-665,-573,-438,-285,-164,-81,-57,-50,-71,-78,-125,-279,-410,-385,-337,-224,-88,152,293,392,491,523,499,489,454,212,-632,-1346,-1207,792,2186,2752,2315,1283,316,-173,-323,-322,-331,-349,-364,-409,-512,-617,-728,-837,-960,-1054,-1059,-1009,-879,-776,-687,-617,-498,-269,-46,103,186,239,301,291,331,388,396,280,135,114,168,201,308,459,573,653,735,752,697,638,573,381,-409,-1309,-1453,779,2488,3409,2984,1687,430,-311,-539,-528,-538,-573,-614
2018-05-17,14:41:01.369,-680,-750,-830,-935,-1045,-1141,-1185,-1157,-1069,-952,-841,-765,-678,-535,-305,-66,92,164,198,227,242,277,317,292,184,89,58,55,86,267,484,587,643,682,680,645,591,557,240,-568,-1268,-964,906,1802,2220,2140,1385,450,-10,-138,-158,-145,-154,-189,-260,-318,-344,-385,-473,-545,-588,-563,-492,-382,-312,-285,-246,-187,-143,-67,11,65,99,114,106,102,116,56,-30,-26,-39,-47,68,297,437,499,547,552,538,530,489,244,-511,-1078,-1112,454,1196,1553,1639,1228,434,-16,-196,-226,-234,-274,-333,-388,-455,-555,-650,-747,-832,-906,-924,-894,-826,-734,-663,-627,-545,-385,-230,-119,-59,10,37,29
2018-05-17,14:41:02.406,29,41,14,-123,-221,-221,-205,-148,0,172,271,341,390,403,388,365,318,-55,-872,-1629,-918,1400,2495,2560,1653,413,-243,-490,-538,-552,-583,-619,-663,-708,-784,-881,-989,-1126,-1256,-1333,-1314,-1250,-1167,-1109,-1047,-940,-728,-473,-262,-99,19,111,191,266,324,417,370,241,177,155,101,119,282,494,604,664,690,690,648,612,596,393,-499,-2094,-1022,1804,3408,3667,2672,1017,-72,-635,-705,-678,-679,-702,-731,-769,-819,-895,-1009,-1117,-1182,-1198,-1167,-1053,-940,-847,-755,-638,-452,-226,-49,97,189,245,293,322,353,345,256,186,175,146,153,328,516,602,647,684,680,645,624,605,467,-274,-1139,-1532
2018-05-17,14:41:03.443,569,1730,2339,2404,1589,478,-74,-255,-281,-311,-317,-348,-399,-444,-534,-615,-676,-749,-788,-757,-684,-585,-464,-424,-390,-333,-258,-156,-64,11,76,113,140,144,86,-28,-99,-116,-104,-57,119,322,417,450,494,498,475,447,402,146,-671,-1303,-1283,494,1282,1716,1819,1275,360,-154,-317,-343,-354,-372,-425,-492,-568,-629,-725,-834,-919,-981,-990,-932,-818,-712,-647,-582,-444,-286,-144,-10,78,118,146,171,195,175,73,-42,-19,46,96,255,491,667,778,854,891,883,872,870,778,52,-787,-1156,847,2274,2850,2581,1828,910,414,209,191,178,156,109,36,-62,-152,-278,-403,-530,-630,-678,-671,-593
2018-05-17,14:41:04.480,-491,-430,-361,-212,48,287,426,508,522,529,534,547,561,558,438,247,230,258,263,413,597,690,740,769,765,733,687,638,510,-244,-1373,-1562,989,2657,3231,2474,1062,-12,-558,-702,-719,-747,-767,-810,-872,-956,-1050,-1163,-1302,-1440,-1536,-1534,-1477,-1399,-1306,-1209,-1088,-888,-623,-376,-203,-94,-19,20,50,88,117,79,4,-87,-114,-124,-150,-17,185,278,352,376,394,371,306,274,137,-561,-1354,-1671,157,1420,1956,1982,1271,212,-367,-564,-574,-579,-616,-648,-672,-725,-796,-900,-990,-1047,-1096,-1067,-990,-902,-809,-756,-705,-622,-515,-377,-261,-167,-120,-98,-73,-49,-30,-93,-203,-229,-232,-228,-147,78
2018-05-17,14:41:05.518,260,347,390,441,452,439,425,351,-130,-858,-1388,-600,948,1427,1651,1496,841,148,-190,-260,-245,-259,-312,-359,-402,-429,-509,-613,-689,-789,-827,-796,-712,-624,-554,-485,-391,-245,-81,34,128,203,266,302,313,328,344,314,173,108,152,169,229,448,620,719,807,872,876,840,785,716,272,-558,-1285,-169,1831,2678,2583,1853,861,233,-60,-127,-146,-179,-214,-261,-327,-437,-551,-682,-814,-911,-984,-991,-932,-854,-783,-708,-575,-374,-122,76,184,255,296,301,315,318,346,323,174,27,60,91,136,277,484,604,656,699,664,609,556,523,324,-468,-1580,-1015,1552,2849,3118,2211,761,-126,-573,-638
2018-05-17,14:41:06.555,-613,-608,-655,-701,-752,-824,-929,-1051,-1182,-1282,-1350,-1345,-1248,-1136,-1048,-941,-768,-518,-242,-6,156,221,292,354,379,415,443,436,394,261,192,159,121,202,375,486,579,617,634,609,547,492,439,-16,-779,-1548,-485,1146,1872,2186,1818,722,-52,-387,-429,-450,-474,-496,-519,-583,-684,-766,-846,-948,-1017,-1036,-989,-907,-788,-698,-613,-530,-398,-270,-178,-85,-29,6,29,56,89,88,31,-63,-116,-115,-128,-100,95,235,315,346,399,423,395,376,327,-62,-826,-1237,-703,956,1289,1452,1348,756,87,-254,-360,-377,-375,-391,-449,-509,-579,-665,-772,-878,-964,-1009,-1004,-939,-824,-728,-657,-551,-409,-267
2018-05-17,14:41:07.592,-121,-33,14,58,89,80,96,118,115,33,-80,-77,-35,-27,63,247,360,434,517,555,524,502,475,366,-277,-1097,-1780,56,1702,2409,2222,1459,459,-130,-356,-400,-403,-408,-449,-491,-573,-676,-791,-909,-1039,-1146,-1195,-1149,-1047,-955,-856,-734,-545,-294,-46,133,251,313,312,300,303,337,374,361,207,75,70,76,80,237,461,574,641,715,721,663,638,625,617,-2,-1183,-1909,631,2569,3468,2905,1485,267,-373,-610,-607,-607,-637,-670,-702,-761,-864,-974,-1127,-1250,-1348,-1384,-1303,-1169,-1035,-912,-742,-503,-194,87,289,374,388,394,408,419,447,478,473,363,242,237,224,164,284,511,622,679
2018-05-17,14:41:08.629,748,747,699,661,616,525,-80,-914,-1636,-57,1465,2151,2302,1723,656,-8,-283,-310,-326,-360,-400,-450,-505,-575,-676,-770,-893,-974,-969,-912,-812,-708,-601,-508,-420,-281,-154,-59,25,94,114,139,143,138,164,133,25,-77,-65,-49,-43,121,323,424,455,520,513,475,448,392,112,-639,-1226,-1158,510,1246,1518,1525,1075,299,-142,-337,-378,-407,-413,-468,-519,-573,-664,-761,-876,-990,-1095,-1097,-1017,-906,-793,-702,-594,-461,-304,-149,-43,16,64,88,90,96,100,132,108,3,-79,-52,-1,49,225,432,582,657,724,741,711,709,697,469,-299,-964,-749,1347,2498,2750,2214,1326,596,243,185,203
2018-05-17,14:41:09.666,176,178,149,119,77,-19,-114,-240,-389,-496,-502,-411,-311,-210,-82,91,336,603,855,1004,1046,1073,1089,1117,1124,1117,1132,1097,938,771,736,739,704,787,975,1075,1115,1148,1128,1076,994,896,818,251,-763,-1557,499,2399,3248,2812,1521,312,-297,-561,-627,-666,-719,-767,-841,-955,-1089,-1225,-1404,-1602,-1750,-1831,-1805,-1731,-1624,-1507,-1346,-1048,-703,-424,-225,-154,-99,-42,-30,-28,-7,27,44,-42,-170,-280,-271,-314,-368,-215,-6,103,130,173,163,138,106,70,-75,-797,-1673,-2061,134,1366,1846,1637,788,-137,-636,-785,-792,-815,-834,-850,-884,-958,-1053,-1147,-1244,-1332,-1384,-1376,-1265,-1121,-1016,-963,-884,-712
2018-05-17,14:41:10.704,-517,-327,-200,-110,-88,-78,-70,-53,-3,23,-19,-101,-161,-127,-111,-139,-31,150,289,343,398,416,386,387,357,275,-343,-1011,-1466,47,1202,1463,1553,1260,540,-2,-263,-291,-301,-329,-337,-381,-442,-506,-583,-684,-790,-884,-906,-849,-777,-660,-571,-484,-334,-174,5,136,221,267,304,298,283,300,324,327,269,142,73,124,164,186,359,530,612,674,717,707,662,636,596,185,-634,-1256,-365,1504,2210,2160,1595,760,198,-122,-204,-207,-221,-257,-321,-386,-467,-594,-737,-865,-999,-1075,-1059,-978,-874,-791,-683,-491,-245,14,227,346,374,374,371,407,447,451,466,425,284,152,138,148,114,245
2018-05-17,14:41:11.741,475,563,591,654,662,647,582,557,463,-187,-1098,-1486,600,2245,2806,2266,1078,68,-410,-560,-590,-588,-624,-695,-749,-808,-923,-1056,-1192,-1350,-1480,-1506,-1453,-1341,-1222,-1097,-884,-571,-256,16,210,323,368,379,388,428,454,461,468,383,237,135,164,136,73,253,453,527,591,659,652,605,554,557,510,-154,-1278,-1601,727,2260,2889,2384,1137,132,-387,-554,-546,-579,-605,-613,-650,-723,-823,-947,-1072,-1171,-1251,-1233,-1147,-1047,-934,-847,-713,-482,-237,-48,95,185,235,255,264,259,296,322,338,242,121,68,94,35,7,205,399,477,502,533,508,477,459,406,160,-591,-1230,-1146,734,1377,1703,1639
2018-05-17,14:41:12.778,1007,205,-197,-319,-326,-342,-360,-371,-427,-505,-577,-665,-756,-827,-859,-843,-763,-675,-583,-520,-446,-324,-210,-93,-36,8,61,65,43,43,46,71,28,-80,-148,-108,-90,-135,-38,180,290,333,406,422,396,384,368,287,-234,-968,-1472,-244,1141,1487,1583,1283,560,15,-262,-322,-337,-339,-365,-417,-469,-569,-667,-798,-965,-1075,-1100,-1074,-986,-883,-763,-660,-528,-313,-85,106,247,303,322,304,291,309,315,314,265,133,8,3,7,16,183,405,515,543,609,620,595,550,512,420,-309,-1170,-1497,712,2304,2784,2182,1053,117,-319,-457,-476,-492,-531,-580,-618,-697,-820,-960,-1106,-1250,-1385,-1446,-1390
2018-05-17,14:41:13.815,-1274,-1149,-1013,-803,-449,-108,185,370,447,484,509,515,523,558,572,581,542,426,301,288,285,225,311,481,570,645,707,741,689,634,600,605,150,-783,-1836,-97,1791,2695,2684,1804,594,-91,-378,-419,-425,-432,-449,-503,-591,-689,-789,-928,-1083,-1170,-1185,-1115,-978,-853,-749,-617,-433,-181,23,182,291,341,358,356,365,344,328,332,310,240,159,175,151,111,211,374,444,479,526,549,542,480,448,358,-176,-835,-1333,-248,1052,1472,1797,1610,768,62,-274,-313,-307,-319,-335,-390,-453,-529,-639,-740,-813,-879,-921,-895,-804,-681,-575,-471,-350,-210,-84,28,112,139,122,90,58,73,51,60
2018-05-17,14:41:20.370,-582,-634,-464,-244,-168,-120,73,168,150,180,186,142,-64,-797,-1470,-1759,161,1572,2111,2154,1552,595,149,-129,-156,-99,-76,-9,-73,-127,-178,-378,-603,-716,-792,-821,-843,-823,-764,-553,-316,-80,174,372,565,697,797,863,1033,1174,900,1056,1172,1081,802,899,765,232,-285,69,626,283,-451,-238,-101,-226,-178,-585,-830,-1305,-1924,-2079,-112,1283,2014,1927,1099,-98,-663,-881,-880,-823,-809,-802,-797,-807,-884,-992,-1089,-1189,-1241,-1183,-1123,-926,-728,-570,-408,-206,-82,155,404,596,631,530,449,386,271,268,216,153,229,350,529,648,675,728,717,739,761,804,747,691,704,515,-266,-757,-575,1001
2018-05-17,14:41:21.545,1875,1814,1941,1962,1377,865,565,363,368,295,30,-309,-555,-869,-1115,-1150,-1333,-1686,-1757,-1762,-1738,-1593,-1431,-1217,-1021,-803,-692,-642,-557,-535,-503,-464,-414,-386,-431,-441,-459,-581,-542,-433,-423,-320,-150,-23,56,165,283,298,282,376,381,88,-838,-1225,-875,1068,1491,1538,1602,1297,597,176,38,74,56,51,69,44,15,-25,-66,-155,-246,-322,-335,-317,-278,-206,-86,143,448,681,898,1022,1179,1324,1378,1633,1633,1194,1076,1019,902,706,580,623,649,626,656,566,542,561,509,594,764,680,448,-38,-919,-1806,-278,1717,2867,2970,2055,781,40,-288,-263,-196,-198,-194,-272,-333,-411,-579,-756,-915
2018-05-17,14:41:22.582,-1127,-1214,-1166,-1064,-912,-723,-499,-169,175,503,734,869,876,831,713,537,420,311,253,170,100,38,99,132,202,279,424,449,539,652,611,492,364,299,76,-787,-1513,-1634,-182,971,993,1184,1017,688,156,-343,-690,-481,-163,-214,-565,-990,-1051,-1210,-1307,-1404,-1890,-1782,-2177,-2204,-964,-1320,-1124,-666,-773,-664,-1204,-322,7,-136,-220,-328,-321,-331,-328,-374,-434,-443,-363,-391,-269,-81,9,36,160,199,229,220,187,142,-59,-828,-1366,-1298,267,910,966,1129,1015,295,-219,-437,-445,-452,-450,-430,-432,-458,-455,-490,-525,-550,-636,-688,-688,-663,-639,-526,-373,-250,-58,89,94,257,454,496,648,638
2018-05-17,14:41:23.619,396,487,208,130,-22,-202,-219,-193,-82,-135,-168,-222,-137,-106,-163,-226,-238,-171,-358,-1074,-1794,-2160,-438,981,1778,1852,1220,102,-552,-839,-765,-727,-694,-689,-760,-829,-841,-937,-1138,-1303,-1453,-1485,-1399,-1258,-1103,-850,-590,-345,-65,251,467,614,660,661,572,449,382,348,353,379,374,290,383,552,668,818,968,1010,1003,1071,1127,1107,1107,1059,918,258,-595,-973,537,2200,2465,2629,2142,1280,916,484,9,-157,-53,-314,-6,-47,-418,-926,-1789,-435,-1407,-1222,-1409,-1650,-1283,-975,-676,-416,-130,147,392,512,640,715,668,606,593,570,526,427,287,181,199,171,216,319,484,503,587,647,680,669
2018-05-17,14:41:24.657,668,595,437,-199,-950,-1279,-101,912,950,1189,1340,809,149,-94,-133,-122,-121,-118,-180,-262,-339,-449,-586,-747,-883,-910,-848,-800,-682,-634,-293,99,-100,190,481,519,499,515,261,208,365,-46,-605,-513,-449,-607,-617,-536,-640,-606,-540,-406,-208,-138,-100,-113,21,54,-181,-1008,-1542,-1553,64,1076,1639,1768,1223,273,-292,-541,-516,-524,-581,-635,-642,-710,-804,-829,-917,-1013,-1163,-1203,-1194,-1117,-949,-754,-548,-336,-157,18,180,303,382,455,491,463,451,361,235,116,29,37,21,-245,-460,163,419,510,821,610,568,706,563,600,31,-1097,-959,787,1373,1604,1895,1272,524,-157,-284,-382,-712,-476
2018-05-17,14:41:25.694,-507,-787,-766,-662,-770,-945,-1020,-1106,-1215,-1226,-1161,-1056,-955,-821,-627,-361,-159,31,204,322,305,276,259,223,214,130,43,-131,-109,-34,-3,135,256,282,338,451,605,601,522,465,407,-197,-1113,-1175,37,1520,1345,811,502,416,240,39,-14,-63,-157,-265,-365,-413,-573,-739,-712,-876,-1205,-670,-240,-772,-909,176,202,-256,-169,673,872,177,1019,1200,-525,296,260,-140,173,333,89,156,169,32,117,391,634,557,606,743,694,678,644,633,608,58,-658,-1407,287,2075,3118,3187,2375,1109,383,49,-21,-34,72,113,118,54,-2,-96,-242,-296,-325,-366,-346,-307,-222,-83,85,295,509,700
2018-05-17,14:41:26.731,874,999,1039,1018,879,755,688,638,510,388,323,359,361,250,208,559,611,638,789,817,879,816,841,189,-496,-879,-1023,240,1666,2095,1234,-24,1416,61,-1198,28,397,-1436,-966,-137,-684,-776,-492,-827,-1289,-1458,-1451,-1484,-1422,-1335,-1251,-1047,-832,-673,-481,-327,-214,-179,-166,-199,-255,-311,-401,-509,-626,-560,-504,-416,-291,-90,-12,47,24,32,106,130,104,109,-414,-1261,-1353,-627,729,617,657,900,843,397,134,42,-45,-123,-176,-246,-310,-346,-370,-464,-610,-734,-746,-672,-366,-238,-248,-78,-122,-149,-162,197,332,79,-18,-179,-239,-109,-238,-325,-411,-611,-543,-511,-545,-569,-401,-267,-111,-25
2018-05-17,14:41:27.768,25,25,9,7,-135,-849,-1601,-1977,-323,1124,1729,1767,1214,247,-317,-611,-697,-660,-650,-674,-732,-737,-832,-994,-1160,-1249,-1400,-1523,-1510,-1406,-1202,-973,-739,-444,-150,146,421,645,725,754,767,719,675,645,488,343,320,395,492,563,579,573,845,1079,1165,1335,1145,1016,1096,1146,338,-573,-636,1380,2456,2696,2154,1072,12,-342,-608,-742,-1091,-902,-856,-923,-980,-1122,-1433,-1547,-1700,-1914,-1940,-1905,-1862,-1657,-1424,-1127,-784,-419,-99,158,372,451,442,414,370,331,243,199,116,81,84,96,187,395,520,529,570,588,543,445,436,465,253,-548,-1006,-858,755,1342,1333,1572,1544,940,527,448,433,383
2018-05-17,14:41:28.805,330,267,209,142,71,-20,-107,-170,-219,-213,-154,-60,43,191,371,277,291,373,729,1087,882,257,29,106,219,-128,-172,-598,-801,-29,-1029,-602,-375,-995,-540,-156,-313,-367,-332,-311,-312,-744,-1441,-1815,-1291,444,1266,1740,1635,789,-47,-457,-506,-491,-549,-555,-592,-641,-685,-795,-902,-1002,-1148,-1230,-1300,-1231,-1154,-1021,-863,-686,-482,-262,-29,132,194,238,192,183,192,239,202,155,138,241,354,500,679,809,924,976,985,994,981,1004,961,589,-485,-1003,-76,2097,2513,2669,2511,2012,863,229,228,452,468,-1,-345,-178,-26,-180,-450,-728,-924,-1102,-1022,-889,-724,-557,-310,-77,201,565,911,1233
2018-05-17,14:41:29.843,1406,1464,1432,1374,1327,1277,1230,1115,1027,945,924,846,908,1117,1241,1260,1332,1326,1255,1155,1065,934,491,-424,-982,-486,1207,1493,1693,1752,1212,409,-11,-137,-158,-150,-171,-197,-215,-287,-375,-421,-604,-802,-880,-944,-995,-942,-858,-767,-650,-498,-322,-70,-39,90,87,37,197,96,-92,-204,-421,-615,-734,-787,-834,-698,-633,-407,-346,-264,-206,-264,-294,-303,-553,-1427,-1953,-1972,-207,377,810,1117,597,-361,-884,-1022,-986,-936,-942,-950,-963,-1003,-1068,-1146,-1223,-1315,-1409,-1496,-1516,-1460,-1349,-1182,-949,-741,-517,-288,-71,57,63,3,-29,-105,-205,-338,-424,-437,-305,-64,136,369,586,764,913,974,918,849
2018-05-17,14:41:30.880,771,580,-84,-1027,-1257,12,1865,2204,1697,965,471,277,46,-34,47,-29,-95,-61,-344,-491,-330,-603,-851,-1179,-1486,-1569,-1826,-1608,-1365,-1244,-978,-715,-473,-168,23,59,62,49,65,90,68,-38,-182,-217,-127,-70,36,206,374,448,575,694,694,674,663,639,483,-266,-1135,-1176,871,1891,2357,2161,1326,337,-192,-313,-255,-191,-145,-223,-236,-234,-258,-323,-375,-415,-400,-369,-263,-148,-79,-8,71,174,251,303,449,505,497,471,386,314,222,198,359,387,197,308,690,549,579,654,623,704,595,563,646,471,237,-406,-993,-1465,-323,1026,1572,1862,1576,702,-108,-504,-560,-528,-605,-702,-775,-824
2018-05-17,14:41:31.917,-841,-802,-735,-757,-775,-782,-693,-655,-582,-501,-413,-318,-305,-160,-32,-13,40,19,-40,-132,-219,-371,-478,-501,-392,-345,-300,-139,73,162,285,477,567,567,560,504,187,-645,-1077,-847,569,915,648,673,559,172,-49,-122,-99,-94,-118,-84,-81,42,-11,9,115,-38,-174,-271,-419,-719,-624,-300,-403,-485,-329,-147,-35,51,154,198,73,-188,-261,-450,-518,-577,-535,-398,-300,-342,-108,0,40,80,177,231,254,268,177,-476,-1287,-1836,1,1581,2118,2113,1501,447,-140,-494,-586,-582,-650,-687,-683,-639,-607,-636,-703,-828,-934,-1045,-1025,-1037,-978,-817,-654,-448,-216,-16,146,294,320,245,151,111
2018-05-17,14:41:32.954,28,22,-82,-150,-154,-174,-98,353,773,971,957,997,982,901,1128,1074,1206,1218,-901,-1323,-682,1308,2194,2665,2523,1753,357,-314,-474,-556,-483,-616,-863,-1055,-1058,-1099,-1175,-1229,-1256,-1248,-1198,-1032,-785,-556,-373,-163,24,250,513,656,791,872,856,825,764,725,651,598,537,478,496,548,641,804,873,888,923,934,882,854,790,664,11,-747,-761,312,1477,1207,1317,1500,1308,816,490,383,358,284,192,102,-35,-169,-268,-414,-664,-581,-322,-632,-877,-597,-460,-293,-421,-269,84,-804,-110,-376,-557,-274,163,0,-86,87,-130,-1038,-575,-222,-280,-358,-279,-268,-233,-199,-118,-120,-161,-100,-125,-600
2018-05-17,14:41:33.991,-1433,-2077,-1186,806,1618,1965,1628,634,-168,-558,-584,-582,-620,-660,-694,-708,-788,-886,-1060,-1129,-1260,-1407,-1486,-1410,-1286,-1135,-924,-788,-544,-254,-20,115,263,355,355,350,312,257,185,-22,-142,-177,-141,-90,26,212,396,552,594,682,892,863,822,842,494,-545,-1434,-593,1761,2351,2538,2012,1096,161,-431,-626,-768,-819,-834,-852,-903,-1011,-1271,-1387,-1522,-1757,-1916,-1988,-1993,-1855,-1653,-1435,-1139,-755,-344,27,319,489,613,595,548,523,526,511,449,348,201,131,89,57,176,452,540,635,737,795,762,670,549,425,-195,-1071,-1393,-629,1056,1465,1726,1842,1326,551,151,60,58,5,-57,-180,-325,-460
2018-05-17,14:41:35.028,-559,-662,-738,-806,-857,-883,-908,-869,-489,-182,-5,80,231,224,190,-269,-82,645,589,-195,-248,-47,335,16,-512,-324,122,224,254,308,334,323,274,256,310,347,395,221,-552,-1154,-1392,-35,1259,1852,2226,1992,1036,230,-95,-131,-131,-146,-213,-193,-195,-225,-286,-423,-556,-681,-832,-902,-882,-754,-602,-461,-282,-117,49,240,372,381,391,442,477,489,491,527,356,168,72,64,110,167,307,528,653,492,281,737,1259,1289,864,137,-782,-1074,-28,2094,2590,2638,1706,808,-157,-462,-258,-104,-367,-703,-616,-531,-605,-812,-939,-1244,-1570,-1738,-1778,-1792,-1711,-1537,-1376,-1172,-859,-483,-138,136,314,343
2018-05-17,14:41:36.066,337,290,239,203,220,248,181,52,-16,33,43,102,233,377,485,537,600,622,643,628,604,350,-577,-1174,-1195,708,1715,1899,1808,1457,734,262,52,-2,-43,-98,-168,-227,-274,-342,-410,-492,-617,-724,-768,-809,-885,-766,-562,-320,-22,6,156,97,433,446,27,-118,-143,-141,-183,-190,-335,-362,-227,-228,-299,-145,89,198,205,125,70,-34,-84,-35,-3,-102,-767,-1307,-1651,-411,929,1383,1671,1508,793,124,-210,-295,-287,-292,-337,-377,-439,-485,-538,-628,-693,-719,-752,-822,-796,-776,-713,-637,-545,-465,-401,-273,-182,-133,-78,-35,-17,-7,44,75,65,-9,-68,-56,11,81,197,378,477,561
2018-05-17,14:41:37.103,705,731,740,670,438,318,285,-181,-945,-596,1106,1568,2129,1843,792,229,189,15,-294,-279,-230,-448,-560,-481,-483,-532,-768,-1109,-1436,-1606,-1714,-1568,-1422,-1221,-905,-504,-188,53,255,435,507,502,474,412,435,425,412,494,467,372,280,274,252,230,334,539,687,751,808,823,787,716,631,410,-452,-1230,-1212,111,1500,1603,1563,1354,889,417,200,164,45,-8,-51,-132,-187,-312,-394,-497,-604,-700,-817,-856,-790,-645,-491,-305,50,228,414,508,598,764,754,456,144,-40,-158,-192,-109,9,-110,-371,-506,-322,-372,-480,-298,-178,-116,-8,91,138,182,218,186,127,-335,-989,-1501,-739,1268,2276
2018-05-17,14:41:38.140,2586,2189,1119,159,-284,-382,-403,-418,-451,-438,-466,-562,-583,-662,-741,-796,-814,-813,-703,-588,-496,-390,-335,-247,-219,-127,-4,121,201,222,200,220,246,264,308,312,281,206,159,112,114,55,64,164,349,473,528,566,607,694,743,715,149,-737,-812,-206,1536,1832,1353,893,611,75,-291,-367,-462,-737,-774,-862,-959,-906,-1082,-1232,-1343,-1494,-1641,-1643,-1690,-1658,-1436,-1264,-1066,-826,-500,-219,36,248,357,418,400,393,364,353,362,353,353,297,206,138,219,198,285,512,733,817,929,1017,940,856,825,746,475,-501,-1115,-979,796,1791,1852,1770,1458,877,409,194,75,-12,4,4,-113,-200
2018-05-17,14:41:39.177,-319,-340,-362,-470,-697,-792,-832,-734,-697,-596,-287,-21,75,268,465,278,153,246,333,294,85,-25,-92,-46,-111,58,-9,-753,-288,24,37,-255,-148,19,135,180,204,228,293,357,379,141,-576,-1084,-830,1248,2327,2722,2523,1610,529,-97,-243,-271,-279,-315,-337,-369,-438,-433,-483,-570,-642,-727,-823,-875,-875,-808,-737,-643,-528,-370,-272,-121,32,153,198,242,246,228,148,138,120,55,-17,-124,-164,-231,-178,-136,-113,-36,159,406,391,214,345,636,652,868,557,-1126,-1990,-1666,-448,1014,1150,1464,1707,1259,333,-310,-248,-287,-478,-256,-205,-326,-426,-560,-740,-867,-994,-1050,-1052,-1009,-907,-696
2018-05-17,14:41:40.214,-523,-336,-136,91,244,384,534,583,579,570,513,455,421,405,395,409,361,196,172,238,279,313,423,549,526,488,517,523,475,458,504,383,-359,-1133,-1080,241,1587,1612,1457,1168,730,260,-109,-287,-330,-243,-391,-876,-364,17,-268,-503,-39,379,-1917,-3087,-835,-445,-1291,-1491,-1189,-929,-570,-277,-34,-35,6,51,-39,-158,-160,-173,-137,-133,-85,-71,-115,-218,-271,-321,-332,-235,-11,107,118,238,325,315,292,233,196,-79,-807,-1309,-1558,169,1374,1923,1973,1387,334,-318,-583,-592,-590,-639,-665,-670,-706,-718,-742,-774,-790,-837,-831,-743,-634,-520,-417,-353,-268,-198,-228,-198,-93,-78,-32,-48
2018-05-17,14:41:41.252,-198,-243,-81,265,732,703,-615,-605,598,-496,-194,-235,-615,149,-211,-23,230,101,-911,-334,335,198,-70,-643,-1325,-1762,-963,703,1295,1631,1558,715,-199,-570,-662,-645,-657,-650,-628,-608,-638,-701,-769,-892,-980,-1068,-1079,-1031,-946,-837,-643,-481,-248,-20,213,439,572,579,565,472,334,217,157,209,237,267,341,323,324,313,398,503,474,534,592,562,600,660,641,651,682,636,384,-523,-961,-747,1131,2105,2236,1747,1207,629,44,-303,-426,-523,-645,-745,-838,-894,-943,-844,-964,-1310,-1568,-1679,-1758,-1809,-1653,-1427,-1258,-854,-446,-119,155,412,572,608,617,567,513,509,504,535,631,656,648,580
2018-05-17,14:41:42.289,482,370,325,340,304,434,676,777,869,977,1000,971,893,732,560,-124,-1003,-1190,-61,1342,1356,1458,1416,938,299,26,-34,-16,15,13,-33,-168,-245,-320,-405,-557,-727,-814,-838,-1043,-1358,-1360,-1004,-1199,-532,750,975,1196,1117,692,235,-393,-222,-143,431,-422,282,254,-417,-407,61,125,-275,-176,-62,-157,-86,-45,14,67,74,129,164,129,139,-97,-836,-1217,-1391,419,1401,1942,2067,1535,492,-120,-393,-472,-439,-391,-392,-401,-410,-417,-519,-558,-733,-827,-948,-1003,-1041,-1020,-834,-589,-388,-173,73,362,532,604,635,552,473,393,297,299,245,167,170,236,152,22,-70,-164,-119,19,352,918
2018-05-17,14:41:43.326,626,409,570,1376,886,596,982,233,-1291,-1631,-1251,975,2510,3146,2689,1387,42,-637,-1050,-1301,-1043,-883,-995,-1099,-1133,-1247,-1338,-1448,-1601,-1767,-1864,-1815,-1626,-1349,-1114,-874,-547,-198,95,346,571,721,695,628,579,563,495,476,494,529,575,571,567,422,338,190,147,138,90,209,356,454,566,658,732,764,713,617,385,-505,-1275,-1224,-17,1165,981,1043,1118,674,59,-152,-157,-175,-236,-174,-69,-78,-56,-61,-327,-578,-600,-794,-843,-697,-720,-715,-568,-370,-225,-14,156,423,597,689,713,645,543,517,506,538,524,531,476,455,392,312,331,403,431,464,670,806,849,954,965,927,884,874
2018-05-17,14:41:44.363,838,638,-126,-626,-1027,607,1831,2214,2290,1829,773,87,-221,-318,-325,-305,-291,-278,-264,-262,-303,-410,-497,-611,-715,-811,-923,-925,-831,-799,-689,-539,-402,-268,-165,-96,-27,-10,-53,-36,67,154,220,124,211,136,-103,-242,-360,-337,-385,-486,-221,-29,88,172,162,204,288,300,224,-52,-804,-1468,-1695,303,1938,2691,2339,1107,-184,-817,-1014,-993,-955,-984,-1013,-1037,-1130,-1205,-1281,-1463,-1607,-1705,-1799,-1818,-1708,-1520,-1316,-1132,-835,-491,-223,13,129,239,209,194,168,160,82,38,30,39,82,121,79,38,-5,-53,71,200,292,448,635,761,896,930,818,713,665,514,190,-486,-1116,-998,340,1384
2018-05-17,14:41:45.400,1402,1356,856,285,80,19,-279,-255,-122,-243,-413,-385,-565,-919,-839,-697,-890,-910,-856,-928,-1002,-934,-842,-794,-579,-413,-248,124,138,100,117,105,56,13,-2,-21,-53,-66,-14,19,-79,-147,-97,-100,-78,58,255,237,355,427,401,356,288,241,149,-476,-1205,-1245,-285,979,1097,1277,1325,912,318,-17,-84,-30,-2,140,195,210,245,163,-18,-187,-406,-583,-758,-664,-536,-565,-379,-47,4,221,532,820,824,594,446,484,259,153,128,57,70,18,146,71,-44,-59,-90,-255,-311,-255,-232,-232,14,252,297,374,390,409,374,163,-472,-1290,-836,1741,3025,3424,2683,1239,35,-602,-774,-766
2018-05-17,14:41:46.438,-729,-773,-778,-769,-832,-884,-953,-1062,-1199,-1350,-1429,-1397,-1245,-1093,-953,-806,-623,-446,-237,-68,86,229,269,228,195,216,251,276,336,397,495,563,507,371,248,262,230,180,224,323,281,432,672,578,311,862,1061,591,-730,-1618,-1805,-651,1079,1153,1149,1328,1003,255,-382,-545,-512,-384,-344,-355,-418,-489,-533,-688,-861,-1001,-1110,-1128,-1096,-1025,-865,-652,-454,-289,-125,35,160,198,251,263,229,182,133,115,72,53,102,133,42,-78,-135,-91,-174,-234,-141,-38,-56,9,78,109,117,167,171,79,-595,-1320,-1329,-288,1357,1899,2179,1935,1142,368,-38,-121,-116,-163,-236,-277,-344,-240,-294,-223
2018-05-17,14:41:47.475,-430,-1121,-844,-1193,-1717,-1208,-1391,-993,-83,638,-127,-327,618,308,176,490,626,358,201,109,173,47,-23,11,19,-40,-68,-64,-43,-47,-1,207,317,398,506,558,615,603,563,555,414,-116,-756,-1491,601,2300,3183,3080,2186,775,-159,-648,-738,-738,-740,-758,-760,-784,-814,-910,-994,-1077,-1191,-1249,-1186,-1011,-843,-635,-437,-205,56,316,537,669,613,544,742,625,593,558,425,330,437,632,456,278,361,135,96,674,27,-337,-45,486,343,-129,371,210,-413,35,108,-68,-765,-1229,-1821,-507,1383,2162,2216,1636,579,-217,-611,-713,-725,-643,-649,-620,-611,-603,-641,-648,-725,-784,-825,-766,-664,-528
2018-05-17,14:41:48.512,-261,-113,13,195,336,472,571,684,743,784,730,687,644,662,681,724,791,749,733,725,739,823,926,949,988,1035,987,1024,1011,939,811,676,451,286,-474,-920,-422,1376,1932,2110,1972,1426,904,296,261,158,231,324,100,86,-103,-319,-582,-769,-920,-1272,-1382,-1373,-1304,-1159,-999,-821,-606,-480,-276,-11,213,329,311,198,107,5,-78,-87,-33,-59,-12,10,-50,-135,-246,-269,-261,-254,-207,-34,-12,54,119,87,26,-72,-127,-197,-521,-1418,-1827,-1586,466,1056,1084,1004,715,93,-256,-357,-322,-314,-321,-428,-550,-630,-741,-880,-1060,-1220,-1396,-1520,-1563,-1640,-1641,-1285,-707,-584,-436,-202,102,410
2018-05-17,14:41:49.549,441,523,413,233,81,-61,-63,-63,-77,-64,-54,-122,-263,-312,-69,45,-16,28,179,111,137,215,209,219,161,152,163,-45,-769,-1233,-1608,274,1662,2372,2268,1483,386,-304,-650,-675,-633,-661,-649,-635,-692,-756,-770,-913,-1046,-1163,-1192,-1180,-1092,-992,-887,-722,-557,-408,-268,-134,38,179,228,266,297,315,312,318,325,351,365,413,417,309,223,242,266,179,134,280,293,424,609,535,372,323,351,517,307,-534,-1076,-661,1091,1603,1683,1436,814,148,-66,-224,-260,-373,-412,-496,-376,-216,-314,-505,-665,-812,-1016,-1044,-1040,-1029,-910,-735,-529,-325,-73,96,274,409,496,533,478,413,353,272
2018-05-17,14:41:50.586,200,187,161,175,220,181,92,-4,5,49,79,159,266,324,338,368,364,404,390,336,317,65,-833,-1268,-1069,1045,1758,1757,1662,1311,597,149,-54,-125,-203,-295,-340,-362,-369,-520,-705,-856,-981,-1075,-1145,-1160,-1330,-1138,-804,-246,-301,-946,-605,17,142,250,370,361,404,247,167,230,170,139,284,415,415,304,184,-2,-149,-53,33,64,279,347,415,535,535,568,502,423,377,83,-654,-1201,-1032,903,1864,2238,2025,1291,232,-353,-583,-605,-546,-533,-537,-578,-668,-748,-864,-946,-1054,-1225,-1267,-1241,-1164,-1021,-846,-649,-437,-223,-14,204,379,468,508,508,480,429,314,218,140,140,171,175
2018-05-17,14:41:51.623,-79,-223,29,-18,-100,4,105,338,581,447,187,362,336,768,770,385,-428,-1019,-1487,-1521,96,1161,1526,1904,1480,340,-418,-836,-1015,-1026,-924,-780,-705,-684,-662,-687,-771,-898,-999,-1093,-1098,-1022,-920,-745,-545,-341,-132,74,277,422,528,583,561,519,503,474,460,446,408,382,371,319,219,31,-94,-49,45,99,263,470,608,812,897,930,965,942,914,839,111,-732,-798,547,2163,2448,2336,1752,797,156,-121,-192,-218,-264,-337,-411,-484,-604,-721,-847,-1008,-1227,-1426,-1516,-1526,-1456,-1279,-1045,-788,-459,-108,178,437,623,714,726,682,668,616,546,497,490,494,497,529,510,391,260,217,254
2018-05-17,14:41:52.661,289,331,473,513,600,651,644,618,598,529,463,260,-423,-1196,-1410,903,2322,2975,2500,1242,31,-584,-796,-786,-778,-769,-763,-791,-848,-932,-1038,-1207,-1365,-1517,-1622,-1608,-1513,-1378,-1210,-953,-683,-421,-132,117,264,362,392,336,282,231,195,185,183,179,197,216,223,226,185,114,8,18,29,-1,10,152,168,251,332,360,348,309,258,203,-138,-916,-1203,-1176,682,1332,1682,1763,1239,327,-203,-391,-422,-436,-436,-475,-510,-557,-606,-681,-792,-917,-1010,-1103,-1113,-1051,-956,-805,-662,-507,-330,-166,-13,95,146,151,122,84,39,2,-15,-16,-16,4,43,65,42,-37,-135,-120,-65,-75,-43,103
2018-05-17,14:41:53.698,110,214,297,301,286,263,216,143,-336,-1094,-1376,-614,1313,2048,2087,1473,501,-178,-452,-488,-483,-513,-534,-551,-566,-634,-699,-793,-933,-1123,-1276,-1354,-1349,-1260,-1077,-846,-577,-312,-13,299,549,737,801,781,736,695,663,638,631,620,657,665,674,683,695,667,535,350,299,344,299,271,414,494,569,673,699,677,632,550,475,323,-292,-976,-1710,616,2291,3204,2875,1618,317,-358,-644,-670,-704,-716,-716,-744,-801,-882,-988,-1140,-1321,-1522,-1690,-1743,-1685,-1524,-1323,-1086,-795,-445,-90,229,493,637,669,641,592,543,490,458,427,417,451,477,482,493,489,392,218,90,108,94,22,129,302,314
2018-05-17,14:41:54.735,407,452,430,363,329,276,172,-401,-1085,-1811,-653,1249,2024,2236,1773,680,-136,-552,-655,-647,-668,-679,-685,-701,-749,-844,-985,-1136,-1262,-1345,-1380,-1303,-1198,-1070,-884,-644,-397,-163,24,196,300,352,363,328,279,233,186,170,180,205,257,270,265,262,158,65,19,38,24,-59,14,153,195,263,369,394,327,311,273,167,-406,-1097,-1385,-602,964,1360,1756,1730,864,51,-317,-404,-386,-407,-468,-504,-512,-556,-630,-726,-855,-1015,-1137,-1197,-1194,-1129,-1012,-847,-637,-420,-205,24,227,330,397,408,388,335,308,285,264,270,272,300,321,286,158,5,-62,4,106,161,268,302,408,522,532,528
2018-05-17,14:41:55.772,501,459,411,21,-800,-1198,-281,2300,3345,3033,1642,280,-397,-660,-680,-701,-756,-798,-822,-862,-926,-1000,-1156,-1363,-1566,-1766,-1879,-1873,-1789,-1610,-1324,-924,-435,46,433,736,927,989,963,947,935,930,911,896,899,912,907,889,879,851,779,631,447,350,393,365,295,460,553,648,747,757,737,685,640,602,425,-307,-1112,-1639,834,2782,3618,3054,1633,342,-290,-555,-574,-574,-584,-579,-584,-633,-712,-819,-956,-1150,-1356,-1479,-1515,-1456,-1309,-1115,-871,-593,-292,20,326,564,674,690,665,643,628,575,561,592,580,561,588,596,570,466,338,223,227,223,121,130,335,373,435,498,502,484,430,372
2018-05-17,14:41:56.809,289,-232,-1000,-1471,-981,882,1491,1804,1632,857,76,-333,-471,-481,-499,-527,-550,-558,-606,-678,-788,-915,-1074,-1211,-1279,-1299,-1244,-1132,-999,-833,-638,-445,-210,-20,85,135,165,141,118,113,104,101,133,162,198,217,216,122,-2,-90,-59,-21,-41,91,202,267,361,403,395,347,301,269,55,-700,-1210,-1310,569,2224,2526,1868,867,-13,-437,-599,-603,-632,-655,-689,-690,-722,-805,-931,-1084,-1264,-1440,-1593,-1660,-1570,-1441,-1260,-1009,-707,-369,-27,289,517,638,673,626,577,538,539,521,512,531,547,563,568,546,412,229,141,195,228,201,367,460,503,588,635,624,580,552,499,268,-524,-1026,-1158
2018-05-17,14:41:57.847,1820,3381,3265,2068,715,-119,-486,-573,-614,-643,-669,-710,-750,-794,-866,-984,-1153,-1387,-1605,-1785,-1839,-1757,-1598,-1385,-1113,-763,-390,-18,295,481,559,565,554,544,520,513,523,530,534,522,538,531,425,224,87,100,120,53,145,300,359,516,555,535,504,469,404,371,-239,-906,-1454,1017,3109,3649,2727,995,-215,-708,-891,-905,-916,-946,-1001,-1030,-1054,-1105,-1201,-1385,-1600,-1798,-1992,-2038,-1933,-1818,-1677,-1479,-1030,-618,-178,199,413,503,502,519,533,535,491,472,441,474,436,470,444,436,356,206,90,160,106,-54,17,262,374,480,540,542,535,516,504,556,266,-626,-2032,-1705,1257,3080,3566,2869
2018-05-17,14:41:58.884,1343,271,-284,-416,-417,-398,-376,-360,-373,-387,-435,-528,-634,-750,-849,-884,-852,-776,-661,-504,-349,-131,118,341,492,601,650,659,636,614,596,548,488,463,477,494,468,368,246,200,231,169,80,199,337,370,414,470,479,422,346,293,189,-500,-1111,-1721,-577,853,1545,2008,1739,728,-93,-481,-556,-558,-579,-592,-591,-613,-680,-739,-820,-944,-1058,-1171,-1245,-1218,-1150,-1038,-896,-716,-521,-316,-122,30,94,125,135,129,77,22,12,-1,-3,-13,-12,-19,-110,-214,-211,-131,-131,-176,-29,40,144,199,226,229,224,202,145,-223,-1047,-1662,-1551,712,2150,2648,2094,913,-82,-600,-738,-724,-713,-714
2018-05-17,14:41:59.921,-722,-741,-752,-832,-934,-1107,-1294,-1463,-1608,-1644,-1595,-1428,-1225,-1005,-731,-431,-122,156,359,492,531,509,451,386,341,310,261,265,304,340,292,185,32,9,62,33,57,237,300,378,486,516,470,433,399,376,149,-662,-1501,-1779,842,2483,3197,2572,1192,79,-483,-694,-709,-692,-694,-715,-749,-829,-900,-1032,-1207,-1430,-1654,-1803,-1817,-1704,-1513,-1264,-974,-642,-284,44,343,589,722,741,690,654,605,547,513,504,491,504,519,489,396,294,326,336,286,316,488,485,563,651,646,639,583,525,513,270,-494,-1437,-1650,587,2062,2753,2641,1671,447,-225,-472,-476,-472,-496,-520,-549,-593,-671,-771,-892
2018-05-17,14:42:00.958,-1049,-1206,-1303,-1281,-1197,-1050,-870,-660,-443,-190,81,291,462,542,553,498,448,399,346,294,250,226,228,246,179,115,87,153,119,105,222,325,358,452,513,513,489,460,418,275,-390,-1032,-1451,-413,1146,1643,2004,1892,1053,186,-246,-352,-365,-380,-390,-412,-466,-523,-590,-681,-821,-966,-1090,-1169,-1182,-1150,-1082,-916,-680,-466,-248,-37,147,281,361,376,348,288,248,205,171,165,144,147,134,55,-61,-87,-34,11,48,192,260,335,428,486,468,439,415,389,185,-629,-1158,-1487,599,2122,2837,2590,1554,367,-218,-442,-483,-514,-519,-537,-542,-587,-669,-799,-939,-1108,-1325,-1493,-1582,-1563,-1454,-1272
2018-05-17,14:42:01.995,-1013,-715,-368,-51,228,479,660,747,713,656,566,481,408,380,377,363,369,384,338,247,138,198,188,193,223,383,420,569,684,619,526,475,413,406,104,-680,-1502,-672,1790,3013,3239,2301,879,-70,-589,-756,-734,-747,-795,-753,-786,-845,-952,-1105,-1285,-1497,-1713,-1817,-1785,-1654,-1473,-1223,-921,-542,-163,200,513,760,906,927,881,809,753,697,632,590,585,582,576,576,546,429,309,250,295,232,198,337,423,466,541,565,564,546,484,431,295,-340,-1005,-1717,-331,1532,2310,2579,2126,895,6,-433,-518,-523,-542,-533,-556,-569,-589,-664,-788,-914,-1037,-1167,-1249,-1268,-1195,-1059,-870,-652,-418,-200
