2018-05-17,15:49:54.783,132,81,95,104,110,87,77,86,18,-458,-861,58,2218,4233,2553,-174,-447,-574,-693,-673,-622,-586,-553,-530,-501,-449,-417,-413,-388,-389,-383,-387,-367,-342,-320,-270,-207,-132,-46,6,28,18,19,11,26,48,44,63,79,94,99,92,90,100,110,128,136,152,161,166,176,196,208,207,218,212,178,148,123,109,105,128,202,240,188,171,188,191,179,169,156,113,-253,-842,-266,1958,4628,3871,216,-622,-625,-740,-764,-712,-680,-636,-593,-544,-516,-495,-478,-450,-438,-424,-418,-424,-403,-371,-337,-286,-224,-161,-99,-63,-63,-52,-40,-1,33,35,50,70,56,59,50,40,33,47
2018-05-17,15:49:55.320,35,45,70,90,103,109,120,121,113,101,96,99,74,42,25,25,25,32,85,107,51,38,63,75,62,51,41,21,-329,-973,-468,1624,4329,3844,169,-692,-706,-832,-851,-804,-764,-724,-666,-622,-582,-575,-575,-565,-522,-498,-498,-464,-451,-420,-367,-307,-254,-189,-141,-121,-130,-151,-140,-114,-120,-117,-83,-51,-56,-60,-60,-68,-48,-24,-21,-5,19,30,20,12,47,78,76,49,57,66,43,27,5,-4,-25,-25,-5,44,101,84,63,85,82,35,34,52,23,-264,-884,-352,1358,3636,3218,183,-311,-423,-652,-688,-667,-624,-573,-527,-519,-499,-452,-444,-432,-410,-396,-394,-385,-348
2018-05-17,15:49:56.357,-313,-241,-186,-127,-56,-1,17,15,-47,-97,-119,-150,-164,-146,-103,-74,-89,-66,-34,-35,-28,-7,43,80,87,98,119,129,141,148,160,145,157,147,122,106,114,129,142,215,246,210,213,235,225,209,226,226,182,-214,-749,94,1926,4124,2978,112,-129,-262,-460,-486,-443,-380,-329,-304,-265,-234,-214,-185,-170,-161,-166,-168,-156,-139,-117,-45,15,94,155,216,236,222,200,175,168,171,178,197,222,215,204,188,184,186,174,175,181,186,208,216,217,215,212,222,226,180,148,119,103,101,123,172,202,146,112,119,113,102,89,67,54,-199,-851,-651,1133,4111,4606,609
2018-05-17,15:49:57.394,-771,-725,-844,-892,-856,-818,-768,-750,-732,-707,-685,-653,-644,-639,-638,-641,-634,-631,-606,-574,-530,-481,-412,-365,-318,-297,-296,-294,-271,-239,-201,-188,-194,-182,-173,-177,-189,-181,-189,-184,-165,-149,-143,-142,-131,-120,-109,-120,-117,-123,-124,-111,-132,-162,-201,-214,-206,-177,-98,-79,-123,-135,-119,-117,-138,-127,-129,-165,-553,-1127,-516,1719,4433,3728,-203,-877,-845,-968,-970,-947,-896,-840,-773,-721,-698,-661,-633,-628,-622,-605,-581,-554,-531,-487,-440,-383,-320,-244,-207,-175,-161,-177,-194,-192,-150,-123,-132,-118,-96,-102,-82,-69,-53,-37,-36,-42,-33,-1,25,54,55,41,40,80,98,77,76,67
2018-05-17,15:49:58.431,26,20,9,15,46,94,129,86,65,89,93,77,57,66,42,-277,-826,-242,1504,3732,3186,81,-282,-396,-624,-666,-630,-594,-539,-482,-455,-453,-458,-415,-377,-385,-370,-366,-338,-304,-277,-240,-194,-117,-19,4,25,-7,-52,-97,-131,-151,-142,-95,-75,-62,-61,-73,-76,-62,-31,-4,30,42,55,58,56,70,83,92,93,110,114,86,69,31,13,27,30,74,138,94,71,100,112,84,72,71,68,-177,-787,-445,1107,3333,3585,448,-326,-378,-617,-697,-667,-620,-595,-534,-495,-476,-462,-454,-435,-415,-389,-384,-380,-347,-318,-281,-235,-156,-80,-24,8,8,-22,-66,-76,-74,-71,-75
2018-05-17,15:49:59.468,-58,-61,-53,-51,-63,-62,-27,-7,0,-1,22,47,63,74,75,82,103,105,93,52,30,5,-7,-9,21,107,145,87,78,95,93,87,69,58,49,-210,-818,-540,1286,4058,4223,658,-638,-633,-732,-767,-716,-667,-633,-589,-538,-511,-477,-463,-471,-457,-439,-448,-445,-415,-381,-344,-297,-234,-177,-127,-73,-44,-35,-18,14,41,64,70,59,57,68,74,59,63,65,74,86,86,94,92,101,112,137,138,129,118,115,128,105,72,41,9,13,36,80,159,145,94,105,109,104,101,83,76,-58,-645,-804,505,3310,4909,1976,-593,-677,-745,-810,-788,-742,-688,-636,-579,-532,-506
2018-05-17,15:50:00.506,-495,-473,-456,-440,-431,-398,-376,-365,-305,-241,-185,-121,-76,-48,-35,-34,-26,-23,11,37,74,103,102,105,104,100,112,135,146,166,177,178,206,224,208,207,234,250,265,299,311,277,257,234,203,218,236,256,320,320,280,299,325,330,330,301,284,216,-316,-630,453,2949,4819,2528,-143,-323,-425,-522,-516,-458,-397,-356,-325,-288,-275,-258,-234,-230,-230,-229,-221,-200,-159,-105,-45,-8,32,64,100,82,42,23,2,-10,-4,35,41,38,27,20,27,29,43,61,37,25,60,66,53,57,76,62,61,65,38,39,48,9,-53,-56,-56,-63,-74,-12,18,-20,-32,-43
2018-05-17,15:50:01.543,-51,-25,-42,-63,-103,-478,-1011,-220,1547,3612,2546,-193,-440,-578,-799,-829,-792,-779,-755,-702,-667,-644,-615,-599,-584,-558,-559,-538,-513,-499,-460,-405,-325,-248,-183,-143,-134,-186,-217,-260,-282,-296,-291,-271,-279,-252,-245,-232,-207,-219,-199,-188,-177,-135,-128,-96,-70,-65,-49,-42,-45,-38,-65,-93,-113,-119,-122,-134,-106,-19,-31,-55,-46,-30,-32,-26,-36,-45,-77,-541,-979,-28,1970,3956,2241,-276,-483,-653,-801,-781,-731,-696,-660,-620,-591,-571,-536,-510,-487,-472,-460,-439,-422,-396,-353,-298,-254,-187,-102,-30,-15,-36,-50,-45,-57,-28,6,28,49,69,73,72,86,96,119,145,167,205
2018-05-17,15:50:02.580,210,216,260,273,289,303,318,345,368,344,313,291,294,294,327,425,474,422,429,454,439,433,431,436,415,115,-529,-84,1905,4695,4452,705,-271,-272,-392,-413,-381,-342,-309,-279,-256,-231,-214,-192,-174,-166,-169,-170,-186,-176,-154,-120,-72,-20,20,31,48,64,72,65,75,98,110,99,80,64,45,29,29,22,0,-16,-26,-38,-49,-52,-49,-55,-66,-82,-87,-105,-118,-135,-158,-194,-252,-283,-283,-272,-210,-203,-263,-266,-249,-257,-285,-302,-311,-328,-679,-1322,-793,1379,4168,3618,-259,-1084,-1085,-1217,-1242,-1185,-1124,-1080,-1019,-981,-951,-926,-905,-859,-831,-815,-805,-800,-758,-703,-652,-603
2018-05-17,15:50:03.617,-536,-470,-417,-386,-385,-405,-385,-344,-307,-291,-259,-240,-231,-205,-190,-170,-144,-139,-138,-125,-105,-96,-78,-55,-33,-27,-25,-7,11,7,3,-15,-26,-40,-63,-65,-19,48,84,50,44,69,80,94,90,76,67,-149,-785,-567,1092,3845,4323,633,-560,-557,-693,-718,-691,-644,-575,-533,-497,-464,-447,-434,-407,-386,-370,-354,-338,-331,-320,-261,-165,-106,-74,-24,-4,-15,-39,-56,-53,-23,-2,9,9,21,47,49,25,47,68,55,54,70,102,119,121,123,129,129,146,153,144,146,102,60,78,93,79,70,139,190,126,121,134,127,146,138,113,91,-184,-789,-247,1381,3648,3370
2018-05-17,15:50:04.654,42,-228,-346,-591,-633,-572,-515,-510,-488,-445,-421,-384,-401,-382,-320,-323,-330,-309,-280,-253,-194,-125,-75,16,76,78,45,-30,-63,-86,-97,-75,-65,-73,-71,-82,-82,-70,-44,-30,-23,-3,21,23,34,67,59,61,82,93,95,55,51,40,20,3,19,49,121,108,62,82,88,76,65,65,74,-35,-588,-783,378,2579,4201,1695,-353,-404,-581,-699,-692,-646,-594,-555,-525,-501,-483,-469,-442,-427,-421,-408,-396,-382,-362,-315,-250,-199,-123,-53,-17,-23,-36,-48,-50,-32,0,18,21,32,20,15,16,12,20,40,33,39,59,43,45,65,75,92,123,114,94,67,55,38
2018-05-17,15:50:05.692,23,25,35,93,162,108,105,120,135,126,103,90,83,-131,-753,-650,977,3879,4682,1096,-664,-645,-740,-789,-761,-713,-654,-586,-557,-532,-503,-485,-470,-458,-461,-452,-451,-433,-390,-343,-301,-229,-153,-116,-86,-69,-52,-44,-20,1,25,59,75,85,79,75,60,66,69,77,76,72,92,105,100,103,107,103,98,111,116,105,74,57,25,-12,-5,38,112,131,78,56,74,78,73,78,74,24,-388,-925,-226,2008,4562,3580,-63,-698,-695,-809,-814,-766,-730,-695,-635,-584,-545,-513,-497,-478,-457,-436,-433,-425,-386,-344,-288,-234,-170,-106,-58,-51,-82,-94,-76,-43,-18,0,13,50
2018-05-17,15:50:06.729,75,79,73,72,98,101,112,129,149,164,186,223,236,238,268,290,297,294,291,285,272,261,279,309,344,433,427,391,431,475,455,466,480,477,373,-189,-366,873,3328,4878,2265,60,-5,-133,-219,-222,-174,-117,-82,-53,-28,17,32,69,74,59,89,102,117,134,193,257,295,320,378,393,349,311,283,257,245,230,215,224,257,222,205,203,204,202,186,190,188,198,177,151,156,156,147,142,139,127,115,99,59,15,-22,-50,-76,-98,-104,-86,-27,-91,-124,-112,-117,-133,-159,-179,-197,-358,-957,-950,439,2669,3755,813,-624,-655,-908,-1020,-1009,-989,-950,-919,-880,-860
2018-05-17,15:50:07.766,-832,-797,-789,-788,-787,-764,-741,-722,-686,-623,-576,-517,-458,-408,-358,-351,-382,-421,-456,-469,-462,-443,-417,-406,-397,-391,-399,-409,-406,-374,-363,-343,-335,-318,-294,-275,-261,-257,-234,-219,-213,-228,-249,-259,-282,-286,-237,-177,-96,-125,-168,-155,-135,-126,-121,-116,-135,-232,-797,-1041,143,2767,4523,1938,-611,-789,-865,-940,-914,-859,-802,-760,-711,-682,-653,-627,-608,-587,-584,-580,-552,-507,-476,-448,-389,-315,-246,-189,-152,-149,-144,-146,-125,-75,-55,-36,-16,-10,5,0,-4,-2,-17,-27,0,1,34,57,63,65,91,111,84,73,93,119,127,106,72,34,-3,1,13,43,130,98,74,96
2018-05-17,15:50:08.803,100,93,93,75,44,-77,-690,-868,455,3268,4936,2017,-575,-688,-770,-869,-838,-780,-728,-680,-606,-558,-537,-519,-503,-477,-470,-447,-456,-430,-381,-348,-292,-209,-141,-120,-99,-86,-92,-80,-84,-59,-16,19,14,30,58,41,33,42,38,62,59,44,50,70,89,91,105,107,112,153,167,157,124,77,61,48,36,45,85,171,135,102,88,123,125,106,105,111,-31,-649,-710,626,2992,4176,1325,-303,-357,-577,-693,-671,-617,-571,-526,-476,-451,-443,-411,-368,-358,-352,-353,-320,-308,-294,-245,-165,-84,-26,11,24,-10,-41,-63,-67,-66,-61,-63,-38,-24,-32,-41,-29,-33,-4,17,21
2018-05-17,15:50:09.840,38,59,61,63,69,85,93,107,107,119,113,79,56,30,31,31,24,96,119,74,64,77,87,85,87,75,22,-390,-897,-36,1873,4030,2749,-80,-388,-523,-709,-720,-673,-627,-595,-566,-524,-494,-486,-465,-447,-432,-417,-390,-374,-363,-333,-263,-208,-129,-67,-31,-17,-31,-49,-49,-30,-16,-6,-7,-2,0,13,10,2,4,19,38,27,28,53,78,96,113,100,93,110,123,100,48,29,31,34,54,117,165,125,96,103,92,96,105,97,79,-113,-768,-658,982,3938,4739,961,-673,-641,-739,-783,-751,-709,-661,-607,-564,-539,-514,-503,-484,-465,-456,-446,-436,-414,-400,-368,-294
2018-05-17,15:50:10.877,-231,-176,-139,-107,-87,-87,-79,-40,-14,13,19,20,15,24,19,28,29,25,29,37,40,54,64,75,78,85,102,121,133,146,153,162,127,89,64,59,73,115,191,203,175,194,213,215,214,221,223,181,-244,-783,21,2447,5110,3802,45,-438,-410,-512,-494,-449,-404,-322,-277,-227,-183,-138,-111,-90,-71,-57,-30,-5,37,101,135,198,266,323,329,327,318,320,325,337,368,398,398,376,379,381,375,359,347,355,371,356,358,390,403,375,351,342,348,333,302,293,271,232,206,194,182,172,217,229,178,172,178,177,169,139,86,48,-336,-898,-123,1770,4052,2855
2018-05-17,15:50:11.915,-290,-389,-565,-797,-818,-771,-754,-734,-692,-665,-649,-621,-562,-559,-558,-571,-544,-504,-487,-456,-426,-347,-290,-266,-228,-216,-256,-338,-384,-398,-374,-347,-337,-330,-322,-317,-320,-320,-313,-283,-260,-242,-228,-222,-207,-190,-192,-178,-167,-170,-172,-180,-207,-226,-239,-236,-213,-179,-110,-123,-154,-131,-106,-106,-102,-103,-126,-258,-841,-946,380,2812,4256,1365,-615,-649,-812,-901,-873,-828,-791,-757,-712,-682,-663,-636,-632,-606,-597,-588,-571,-549,-525,-466,-405,-327,-256,-216,-185,-183,-197,-214,-213,-212,-205,-173,-154,-132,-117,-115,-123,-121,-119,-107,-105,-100,-75,-54,-47,-44,-38,-34,-20,0,0,-16,-66,-95
2018-05-17,15:50:12.952,-109,-112,-96,-46,18,-18,-45,-24,-13,-4,-11,-7,-33,-191,-755,-886,466,3281,4857,1791,-734,-751,-820,-903,-882,-838,-781,-736,-684,-645,-621,-595,-570,-549,-520,-504,-493,-463,-419,-364,-300,-232,-164,-123,-99,-116,-132,-127,-117,-88,-43,-24,-23,-12,-12,6,7,0,9,6,10,14,39,56,75,93,78,76,79,83,89,86,78,49,31,16,4,19,66,117,72,28,60,99,76,63,80,73,-129,-760,-686,865,3550,4496,1161,-553,-541,-721,-795,-747,-695,-643,-624,-579,-508,-495,-466,-444,-426,-391,-376,-361,-351,-314,-266,-207,-128,-89,-35,-23,-52,-93,-104,-111,-93,-59,-29,-32
2018-05-17,15:50:13.989,-28,-26,-32,-29,-11,9,10,31,28,32,54,84,81,99,98,98,106,117,111,67,42,27,31,51,76,151,108,92,86,90,86,82,67,56,-43,-611,-735,544,2716,4217,1579,-330,-334,-551,-695,-691,-634,-572,-521,-480,-458,-412,-378,-352,-333,-308,-285,-256,-233,-184,-130,-68,7,71,132,159,158,145,125,109,132,152,187,238,261,269,268,257,267,299,308,323,333,360,396,419,448,462,474,493,494,485,489,477,457,443,425,416,449,506,563,508,483,492,486,480,468,457,446,233,-410,-339,1219,3993,4832,1441,-319,-348,-473,-547,-531,-486,-456,-437,-399,-382,-372,-359
2018-05-17,15:50:15.026,-342,-336,-356,-355,-359,-353,-332,-287,-224,-189,-151,-98,-78,-101,-133,-133,-98,-74,-61,-59,-61,-65,-83,-103,-115,-137,-147,-153,-142,-156,-162,-146,-146,-148,-159,-143,-138,-148,-137,-153,-180,-203,-222,-235,-218,-202,-135,-112,-159,-163,-148,-167,-180,-175,-191,-242,-657,-1213,-513,1824,4465,3442,-268,-985,-970,-1071,-1072,-1021,-980,-918,-860,-819,-777,-767,-727,-706,-690,-683,-642,-625,-612,-565,-505,-433,-352,-298,-280,-281,-272,-278,-254,-224,-200,-174,-142,-120,-116,-114,-92,-62,-50,-63,-71,-66,-57,-32,-2,27,35,34,35,47,45,45,30,24,22,-2,-25,-29,-19,24,100,72,23,41,52,48
2018-05-17,15:50:16.063,57,29,11,-96,-732,-797,621,3084,4208,1164,-453,-491,-690,-799,-791,-730,-669,-626,-605,-561,-547,-513,-492,-492,-497,-444,-401,-389,-377,-325,-254,-168,-125,-103,-79,-92,-104,-146,-198,-185,-177,-141,-119,-111,-107,-137,-123,-111,-98,-87,-87,-70,-33,2,5,5,19,25,28,26,35,35,13,-18,-48,-35,-20,-15,54,59,23,22,27,36,41,23,29,7,-372,-950,-193,1644,3952,3092,19,-410,-535,-723,-750,-707,-665,-634,-598,-540,-494,-486,-466,-445,-438,-421,-386,-374,-359,-340,-288,-209,-150,-96,-49,-47,-61,-76,-85,-94,-79,-58,-40,-21,-16,-16,-10,-13,-16,-11,-6,2,22,34
2018-05-17,15:50:17.101,55,76,65,73,95,101,108,105,93,61,35,17,2,15,57,127,135,85,85,99,115,124,119,105,62,-305,-929,-329,1894,4685,3937,110,-673,-669,-776,-791,-749,-694,-638,-592,-553,-531,-495,-474,-450,-423,-400,-402,-402,-382,-331,-283,-215,-151,-96,-65,-37,-29,-38,-23,2,22,53,80,95,86,80,86,79,80,92,91,75,55,66,98,88,87,102,106,125,126,131,138,150,128,92,57,42,42,63,118,175,145,124,136,123,117,105,97,82,-103,-778,-778,827,3820,4935,1278,-640,-637,-756,-846,-805,-737,-686,-630,-584,-552,-521,-506,-462,-443,-430,-396,-376,-381,-343,-279
2018-05-17,15:50:18.138,-231,-172,-101,-55,-53,-65,-80,-76,-68,-35,-1,10,20,30,37,29,47,60,38,40,44,51,72,73,88,111,111,124,142,120,130,128,119,100,85,67,65,45,60,130,153,79,82,105,95,83,76,87,76,-79,-753,-624,920,3320,4179,798,-363,-379,-612,-689,-679,-646,-595,-549,-525,-489,-474,-447,-388,-374,-382,-348,-319,-287,-241,-182,-120,-59,22,55,73,59,19,-14,-24,-11,3,10,26,24,13,24,41,44,73,95,115,129,137,144,173,187,192,206,234,245,232,242,245,222,209,199,188,184,194,241,283,244,232,250,251,248,233,230,205,-72,-722,-295
2018-05-17,15:50:19.175,1467,4129,4140,513,-375,-445,-605,-641,-604,-560,-533,-490,-452,-422,-400,-389,-374,-365,-362,-357,-347,-335,-311,-256,-196,-136,-59,-25,-19,-5,-12,-5,13,19,15,29,29,34,48,40,17,7,0,11,2,1,11,15,25,23,45,62,68,44,23,35,27,-8,-46,-73,-80,-62,-12,50,10,-14,7,22,20,28,15,-1,-112,-687,-936,286,3097,4946,1999,-653,-747,-823,-896,-878,-814,-783,-757,-704,-663,-634,-600,-570,-562,-554,-540,-529,-532,-500,-451,-376,-321,-275,-209,-188,-196,-182,-179,-164,-128,-109,-87,-59,-54,-64,-66,-84,-107,-98,-60,-53,-66,-65,-44,-26,-3,0,-5,0
2018-05-17,15:50:20.212,-7,-15,-1,8,-22,-61,-100,-98,-81,-46,8,44,-2,-9,23,32,21,2,2,-15,-230,-866,-656,1031,3806,4380,544,-635,-603,-771,-835,-808,-719,-639,-619,-587,-566,-545,-506,-481,-470,-453,-427,-405,-385,-360,-311,-237,-171,-106,-67,-82,-88,-97,-114,-114,-94,-42,-20,-11,-20,2,26,18,-3,-8,-7,18,29,32,55,66,77,76,76,90,113,106,87,61,48,38,17,26,19,70,117,73,51,65,84,98,79,71,62,-174,-790,-448,1159,3476,3876,316,-347,-396,-648,-735,-714,-655,-617,-578,-544,-492,-471,-456,-436,-389,-370,-371,-361,-337,-309,-245,-177,-125,-62,-11,-11,-49
2018-05-17,15:50:21.249,-94,-118,-130,-133,-116,-82,-64,-66,-73,-77,-75,-60,-49,-52,-43,-23,-33,-26,-7,24,24,17,49,66,66,62,44,35,12,-8,-8,0,36,110,85,52,69,83,68,69,66,50,-51,-592,-851,305,2808,4613,2079,-462,-574,-702,-799,-782,-724,-679,-637,-597,-561,-532,-497,-488,-479,-466,-458,-453,-441,-408,-352,-293,-230,-164,-106,-85,-73,-76,-58,-31,-19,-4,13,32,33,41,52,50,44,56,57,54,43,36,42,69,83,94,91,83,81,92,88,88,76,31,-3,-15,-24,6,60,112,74,51,74,92,94,76,75,51,-124,-741,-778,702,3571,4875,1446,-714,-656,-753
2018-05-17,15:50:22.286,-828,-792,-759,-711,-651,-603,-569,-533,-503,-475,-459,-443,-443,-429,-413,-361,-307,-253,-205,-135,-100,-87,-98,-122,-107,-88,-57,-54,-34,1,18,2,-3,-4,0,30,30,21,32,52,57,56,72,101,107,96,116,115,129,116,82,58,51,35,33,55,47,122,154,93,65,78,98,100,111,82,5,-385,-843,12,1989,4162,2811,-187,-378,-503,-684,-707,-639,-617,-592,-556,-504,-469,-448,-419,-411,-396,-382,-357,-341,-305,-243,-185,-133,-73,-32,-10,-26,-68,-92,-125,-126,-105,-116,-107,-75,-57,-75,-90,-67,-51,-51,-31,-3,14,10,14,32,55,67,49,63,69,67,59,35,2
2018-05-17,15:50:23.324,-23,-10,5,20,96,92,57,67,95,84,57,36,48,-18,-518,-854,194,2347,4274,2269,-336,-441,-593,-740,-744,-708,-647,-607,-570,-526,-479,-455,-454,-434,-407,-395,-390,-362,-331,-288,-236,-172,-114,-67,-43,-40,-58,-74,-74,-74,-45,-43,-46,-20,-4,-2,-14,-17,-18,-23,-14,0,0,7,28,36,43,50,74,74,75,76,68,44,6,-18,-22,-15,20,87,78,39,30,57,72,73,77,61,29,-285,-887,-436,1613,4422,4204,351,-691,-649,-756,-777,-732,-669,-592,-511,-455,-401,-357,-327,-290,-275,-249,-214,-175,-134,-73,-13,68,153,215,263,289,286,305,342,388,440,483,519
2018-05-17,15:50:24.361,541,567,583,609,610,620,643,649,657,664,684,699,700,709,730,743,746,748,736,741,746,716,675,647,636,630,631,686,735,670,628,623,608,601,575,557,517,290,-367,-265,1405,4257,5048,1382,-360,-312,-467,-540,-533,-533,-505,-467,-429,-439,-428,-414,-424,-452,-447,-436,-438,-448,-418,-363,-325,-311,-285,-259,-263,-291,-323,-356,-383,-358,-344,-350,-356,-361,-366,-390,-388,-396,-432,-431,-416,-423,-441,-403,-406,-409,-398,-405,-418,-419,-416,-418,-408,-426,-480,-513,-522,-532,-535,-512,-410,-379,-445,-488,-448,-411,-421,-464,-473,-493,-924,-1396,-484,1499,3687,2361,-642,-853,-986,-1190,-1227,-1165,-1113,-1066
2018-05-17,15:50:25.398,-1019,-953,-911,-881,-841,-806,-783,-753,-718,-702,-662,-623,-566,-467,-401,-359,-333,-339,-361,-384,-396,-392,-381,-351,-327,-319,-293,-293,-281,-279,-269,-257,-244,-230,-215,-185,-155,-152,-132,-116,-98,-83,-76,-59,-43,-64,-93,-121,-141,-136,-106,-46,37,4,-22,18,26,11,11,2,-7,-113,-663,-874,272,2718,4495,2097,-426,-599,-706,-817,-800,-742,-700,-647,-608,-576,-542,-513,-495,-473,-465,-459,-452,-425,-392,-342,-294,-221,-136,-80,-64,-73,-65,-61,-52,-41,-6,33,54,69,70,68,65,66,60,63,68,60,63,68,81,107,112,109,123,121,117,129,127,136,123,65,33,18,31,47
2018-05-17,15:50:26.435,117,148,99,105,125,124,134,121,111,89,-173,-810,-561,1266,4152,4605,848,-711,-671,-775,-826,-786,-740,-690,-626,-572,-534,-502,-482,-463,-452,-428,-407,-391,-360,-315,-263,-203,-136,-97,-74,-63,-72,-84,-64,-40,-9,15,38,60,59,45,56,51,37,48,67,74,75,78,95,92,93,93,108,134,134,128,121,106,102,83,64,45,20,9,56,99,152,121,95,116,120,114,123,109,83,-16,-592,-758,543,2985,4425,1703,-366,-401,-575,-709,-715,-660,-607,-553,-519,-484,-434,-411,-415,-388,-348,-343,-331,-275,-258,-234,-161,-81,-63,-19,26,0,-60,-68,-54,-86,-77,-46,-14,-16
2018-05-17,15:50:27.472,-4,-1,17,6,1,11,8,27,40,45,75,104,106,110,109,138,129,116,126,125,103,74,55,47,32,54,126,147,89,62,86,88,88,78,72,37,-350,-877,-119,1728,3967,3062,-9,-381,-508,-713,-740,-701,-641,-578,-539,-511,-491,-474,-450,-434,-414,-396,-390,-379,-342,-299,-251,-178,-109,-49,-11,-5,-38,-59,-49,-50,-34,-26,-17,3,15,18,17,10,7,-1,15,21,30,42,64,78,84,75,78,87,97,100,91,63,60,49,12,4,38,79,155,120,79,100,110,100,87,77,79,-18,-550,-849,226,2819,4752,2402,-450,-637,-707,-797,-781,-728,-691,-646,-602,-552
2018-05-17,15:50:28.510,-516,-482,-466,-457,-430,-415,-422,-415,-377,-337,-282,-220,-169,-131,-105,-85,-71,-60,-46,-16,19,34,47,48,42,48,69,71,64,58,41,35,43,57,60,64,72,90,92,98,98,103,101,107,89,55,38,21,14,52,84,150,117,70,85,99,98,105,119,125,31,-478,-850,131,2600,4707,2746,-310,-584,-643,-754,-723,-676,-635,-573,-529,-500,-465,-419,-402,-375,-341,-333,-348,-305,-259,-224,-154,-84,-65,-31,3,1,-16,-29,-18,10,32,29,51,50,42,56,57,85,115,95,79,98,113,123,126,118,142,157,149,128,118,151,141,125,111,98,79,50,47,95,176
2018-05-17,15:50:29.547,171,120,112,123,133,100,96,106,55,-442,-839,177,2238,4181,2368,-217,-333,-508,-704,-719,-669,-624,-575,-559,-532,-499,-440,-422,-417,-393,-378,-371,-371,-320,-267,-208,-146,-106,-50,-25,-38,-77,-108,-132,-128,-118,-107,-96,-66,-58,-85,-94,-92,-88,-94,-88,-56,-51,-30,-24,-19,-6,-3,4,21,26,18,5,-15,-44,-55,-54,-45,-21,23,48,6,2,20,33,33,29,23,-4,-265,-876,-511,1126,3645,3820,506,-546,-597,-772,-809,-772,-725,-675,-618,-596,-560,-522,-499,-481,-446,-418,-388,-383,-350,-310,-260,-196,-127,-61,-8,13,7,15,41,72,114,145,178,197,209,224,247,249
2018-05-17,15:50:30.584,258,269,284,288,304,327,338,346,378,394,420,445,452,458,477,451,410,395,392,405,417,459,528,497,468,482,493,496,499,491,476,366,-209,-472,722,3456,5347,2684,-136,-321,-387,-486,-481,-445,-404,-369,-322,-298,-271,-256,-240,-223,-213,-230,-226,-219,-204,-161,-124,-70,-15,7,6,-9,-25,-35,-37,-13,9,26,6,-4,-4,-11,-27,-43,-49,-48,-57,-74,-83,-90,-86,-86,-99,-95,-94,-95,-99,-108,-106,-117,-157,-184,-205,-221,-216,-196,-134,-157,-196,-215,-198,-202,-208,-220,-238,-279,-738,-1243,-337,2182,4585,2906,-559,-981,-1004,-1109,-1125,-1083,-1031,-973,-920,-872,-858,-830,-783,-752
2018-05-17,15:50:31.621,-732,-710,-705,-685,-640,-579,-541,-485,-437,-377,-348,-358,-381,-403,-417,-375,-339,-303,-287,-281,-286,-266,-254,-245,-236,-221,-205,-196,-201,-181,-167,-159,-140,-114,-95,-79,-66,-58,-60,-69,-81,-99,-108,-147,-159,-127,-115,-31,-18,-74,-72,-56,-43,-53,-54,-73,-95,-523,-1000,-125,1873,4012,2572,-224,-459,-610,-800,-803,-783,-752,-693,-637,-602,-589,-549,-544,-470,-440,-433,-429,-389,-359,-301,-244,-183,-116,-77,-56,-62,-99,-146,-147,-147,-143,-129,-121,-101,-85,-98,-102,-84,-82,-89,-48,-27,-22,-12,-1,22,29,32,41,39,43,35,51,56,10,-15,-21,-23,-17,-19,35,65,23,3,24
2018-05-17,15:50:32.658,20,15,23,1,-12,-284,-893,-451,1245,3732,3714,382,-486,-539,-734,-781,-755,-713,-678,-631,-575,-555,-525,-502,-477,-467,-442,-424,-396,-366,-347,-299,-217,-152,-100,-55,-54,-75,-90,-86,-88,-76,-56,-32,-8,-7,-10,0,-6,-10,2,3,15,18,23,42,65,76,71,76,102,110,110,110,93,62,37,11,4,41,101,134,103,91,106,125,110,97,96,84,-105,-755,-673,948,3908,4831,1212,-659,-663,-760,-815,-785,-723,-667,-628,-600,-554,-523,-500,-471,-461,-440,-430,-415,-387,-346,-278,-218,-151,-86,-55,-48,-72,-87,-82,-64,-24,4,22,31,41,53,61,58,50,46,44,54
2018-05-17,15:50:33.695,64,63,59,71,77,86,109,95,98,109,115,109,74,51,18,8,26,44,91,140,98,68,81,100,111,100,84,70,-85,-747,-805,708,3668,4997,1535,-670,-671,-749,-817,-781,-729,-683,-656,-621,-561,-494,-480,-465,-444,-405,-391,-391,-354,-299,-235,-164,-113,-56,-55,-52,-65,-104,-119,-100,-74,-22,10,8,6,-5,9,15,8,21,18,36,44,69,84,74,85,94,101,104,117,129,105,96,110,91,54,35,40,35,54,127,155,91,62,94,106,110,107,98,42,-292,-871,-141,1713,4015,3136,28,-358,-447,-648,-693,-668,-613,-581,-550,-491,-452,-421,-401,-399,-359,-347,-340
2018-05-17,15:50:34.733,-321,-266,-221,-175,-110,-38,-8,10,2,-48,-75,-111,-115,-100,-80,-42,-39,-54,-42,-46,-41,-57,-57,-31,-20,-14,7,34,34,52,60,62,61,65,78,75,68,56,12,-6,8,1,12,77,80,35,43,76,69,74,82,75,34,-389,-887,-56,1946,4239,2988,-27,-426,-542,-693,-712,-671,-625,-580,-539,-505,-468,-426,-411,-390,-367,-352,-343,-323,-281,-233,-178,-111,-50,8,51,48,19,3,6,33,52,81,104,107,100,99,106,94,90,90,96,112,115,118,143,163,179,196,187,184,179,187,210,208,174,145,124,106,124,161,233,202,177,187,195,188,186,166,146
2018-05-17,15:50:35.770,71,-469,-868,230,2975,5125,2701,-377,-620,-670,-770,-766,-716,-667,-614,-565,-526,-491,-469,-451,-431,-410,-400,-377,-351,-325,-270,-217,-159,-87,-64,-51,-66,-88,-99,-85,-61,-32,0,16,28,31,29,28,17,10,13,13,16,15,32,34,36,40,50,59,67,80,79,75,61,54,29,7,-26,-51,-41,-11,30,75,31,18,26,37,56,50,39,10,-157,-809,-807,768,3734,4897,1339,-708,-714,-824,-903,-875,-812,-756,-714,-673,-626,-585,-556,-543,-530,-506,-476,-449,-428,-392,-335,-279,-213,-161,-123,-117,-153,-169,-166,-159,-143,-114,-86,-71,-73,-59,-44,-44,-49,-41,-32,-30,-24,-20
2018-05-17,15:50:52.633,-291,-254,-214,-152,-130,-101,-100,-65,11,77,123,162,243,275,193,123,50,15,13,7,38,14,42,85,164,133,101,107,92,85,140,137,108,106,64,26,85,82,62,66,89,162,204,182,140,128,164,167,140,127,121,-24,-672,-661,644,2741,3763,1105,-342,-204,-375,-500,-496,-484,-426,-394,-392,-360,-345,-310,-283,-274,-246,-205,-182,-140,-62,-9,61,123,182,138,84,30,-12,-75,-167,-223,-201,-185,-188,-126,-104,-118,-106,-59,-59,-56,-39,-48,-62,-56,-40,-62,-62,-37,-78,-56,-38,-33,-56,-15,24,86,58,20,32,26,4,-37,-34,-50,-193,-758,-964,211,2482,3547
2018-05-17,15:50:54.283,1097,-505,-508,-558,-609,-625,-617,-560,-552,-560,-508,-439,-408,-464,-483,-470,-400,-360,-335,-272,-208,-101,2,39,79,79,21,-43,-93,-130,-143,-108,-87,-109,-97,-38,-36,-79,-54,17,-26,-43,-4,90,62,42,84,107,139,143,126,86,55,49,37,48,112,121,77,52,76,55,32,41,58,-11,-488,-1016,-238,1743,3806,2855,-172,-471,-416,-564,-631,-616,-575,-515,-436,-394,-406,-375,-352,-336,-287,-254,-227,-160,-107,86,150,78,144,178,154,118,-35,-203,-283,-334,-348,-330,-273,-261,-271,-224,-180,-184,-177,-163,-154,-159,-148,-113,-94,-75,-45,-37,-38,-40,0,22,56,111,157,124
2018-05-17,15:50:55.320,90,65,70,7,79,104,45,-238,-860,-683,794,2982,3563,619,-541,-406,-609,-747,-743,-714,-658,-609,-556,-558,-513,-463,-478,-478,-428,-417,-420,-385,-287,-217,-171,-127,-108,-45,-68,-103,-168,-230,-244,-212,-230,-218,-150,-129,-66,-84,-87,-117,-151,-117,-107,-100,-31,-32,-61,-96,-151,0,73,69,48,20,25,5,37,124,140,91,66,84,99,91,81,58,34,-293,-947,-545,1306,3897,3775,365,-564,-444,-628,-696,-645,-616,-606,-548,-483,-447,-451,-405,-346,-306,-320,-271,-225,-157,-56,29,98,170,226,227,181,91,-25,-116,-151,-198,-192,-156,-143,-151,-126,-115,-104,-78,-71,-85,-88,-56
2018-05-17,15:50:56.357,-79,-64,-41,-48,-54,-42,-32,-8,5,10,37,61,108,175,173,139,117,136,126,89,114,117,40,-417,-975,-143,2074,4134,2712,-298,-399,-391,-564,-588,-556,-515,-491,-415,-385,-400,-348,-277,-300,-287,-238,-158,-131,-116,-23,78,89,187,219,252,257,194,116,105,158,104,117,168,183,211,237,200,254,281,256,264,281,282,280,266,288,313,307,307,370,399,368,346,334,379,478,489,412,353,370,430,400,368,340,257,-219,-695,189,2094,3985,2724,-163,-146,-188,-439,-446,-390,-385,-366,-334,-309,-273,-263,-249,-239,-198,-162,-175,-143,-72,5,83,148,206,253,229,178,69,-41
2018-05-17,15:50:57.394,-114,-159,-178,-186,-162,-151,-145,-151,-144,-149,-148,-155,-164,-162,-155,-130,-125,-152,-120,-140,-113,-79,-99,-90,-69,-112,-99,-56,-50,-61,27,57,-9,-38,-25,-24,-25,-48,-55,-49,-348,-970,-752,923,3308,3420,324,-687,-587,-718,-778,-738,-684,-652,-650,-623,-585,-560,-537,-515,-518,-495,-529,-492,-419,-360,-291,-221,-196,-227,-162,-133,-195,-253,-284,-312,-304,-305,-264,-235,-230,-200,-170,-161,-182,-197,-156,-128,-199,-187,-165,-123,-133,-163,-126,-42,-78,-80,-65,-111,-115,-86,-60,-54,6,79,19,-14,-23,-13,-3,-15,-59,-84,-205,-759,-1052,79,2363,3844,1688,-680,-539,-647,-829,-827,-764,-697
2018-05-17,15:50:58.431,-667,-637,-600,-579,-541,-513,-497,-460,-402,-367,-331,-251,-173,-84,6,72,103,59,-10,-93,-170,-252,-310,-333,-325,-273,-275,-269,-277,-269,-225,-223,-219,-208,-219,-218,-215,-196,-160,-154,-157,-116,-96,-94,-99,-77,-77,24,63,98,106,66,69,65,47,54,23,-22,-139,-651,-906,145,2188,3629,1642,-425,-349,-484,-697,-685,-635,-579,-570,-549,-470,-433,-449,-460,-470,-423,-430,-366,-330,-342,-258,-231,-213,-128,-71,-93,-152,-222,-228,-226,-211,-179,-149,-120,-116,-126,-117,-113,-92,-100,-113,-104,-61,-90,-53,-49,-14,-16,-8,24,27,34,55,67,36,-1,-30,18,87,130,142,203,171,146
2018-05-17,15:50:59.468,176,175,139,129,117,42,-438,-966,-145,2217,4457,3197,-130,-549,-488,-647,-667,-618,-555,-507,-464,-413,-352,-328,-284,-249,-192,-139,-72,-23,56,127,230,345,438,503,537,453,372,334,260,194,186,194,228,250,275,264,291,310,271,290,313,293,297,318,353,348,335,357,370,370,383,409,431,404,384,378,371,420,456,462,412,374,368,352,314,319,317,263,142,-441,-736,407,2673,4021,1817,-280,-252,-428,-586,-549,-515,-491,-448,-432,-431,-416,-352,-348,-362,-370,-366,-334,-329,-282,-186,-104,-85,-26,16,-2,-98,-121,-156,-211,-204,-186,-126,-136,-192,-162,-104,-107,-111,-132,-207,-307
2018-05-17,15:51:00.506,-382,-221,-143,-194,-215,-141,27,117,39,-37,-84,-131,-140,-126,-122,-79,-56,-105,-133,-115,-103,-125,-148,-167,-197,-397,-1038,-728,845,3107,3282,194,-590,-491,-717,-834,-776,-719,-698,-626,-588,-571,-543,-511,-500,-453,-449,-466,-384,-320,-264,-181,-121,-73,-43,-14,-40,-127,-186,-271,-328,-343,-353,-326,-291,-307,-284,-233,-200,-202,-238,-213,-192,-237,-187,-156,-151,-149,-128,-121,-113,-82,-41,-20,-54,-67,-53,-74,-68,2,55,17,-34,-80,-60,-29,51,14,-39,-119,-656,-1060,-103,2244,4064,2243,-507,-575,-665,-809,-779,-724,-693,-652,-616,-586,-550,-568,-518,-471,-482,-476,-466,-416,-391,-370,-302,-241
2018-05-17,15:51:01.543,-129,-54,-52,-85,-100,-134,-131,-116,-143,-100,-18,-9,-35,-26,-19,-13,-6,7,-2,-23,6,27,24,54,53,6,53,91,85,125,127,111,102,101,69,95,152,136,59,27,32,20,8,-1,26,14,-255,-927,-603,1079,3484,3578,205,-548,-379,-561,-663,-631,-574,-511,-440,-398,-371,-346,-311,-301,-292,-242,-196,-153,-62,-24,48,150,215,250,256,211,105,0,-115,-175,-203,-206,-202,-160,-133,-140,-155,-176,-122,-105,-108,-113,-121,-99,-86,-54,-31,-30,14,53,54,54,57,101,78,75,143,170,110,88,61,67,94,84,80,65,-204,-847,-542,1012,3228,3242,130,-461,-316,-577
2018-05-17,15:51:02.580,-683,-673,-660,-579,-519,-579,-550,-479,-475,-431,-405,-395,-413,-363,-337,-305,-273,-230,-140,-76,-45,-52,-70,-51,-81,-122,-79,-65,-57,-22,-4,-12,-8,-6,-4,2,-34,-28,-12,-17,33,72,75,61,40,63,84,58,28,29,-7,0,-2,46,90,31,19,48,84,118,89,41,51,42,-298,-905,-515,1296,3696,3491,273,-554,-407,-609,-657,-612,-542,-461,-417,-377,-371,-394,-346,-248,-247,-218,-193,-130,-52,-1,61,74,120,252,274,196,96,-5,-85,-142,-162,-158,-145,-129,-107,-83,-90,-110,-106,-101,-88,-81,-71,-70,-69,-65,-55,-31,18,78,100,75,55,54,28,15,75,119
2018-05-17,15:51:03.617,136,118,98,109,34,68,44,-3,55,-122,-759,-740,672,2949,3469,767,-544,-421,-590,-676,-667,-627,-583,-541,-502,-465,-428,-418,-389,-402,-402,-372,-324,-279,-244,-203,-111,-44,13,60,52,-17,-31,-40,-107,-113,-47,-25,-29,-9,-32,-24,31,-1,-65,-43,14,14,-55,29,62,45,30,84,115,113,75,83,105,54,80,143,194,193,144,121,179,224,228,211,245,118,-516,-539,890,3157,4142,1424,-139,15,-103,-236,-221,-112,-83,42,125,166,249,303,320,348,395,453,558,619,672,749,838,912,1006,1052,1022,948,833,747,666,602,573,600,644,667,649,613,636,612,614,635
2018-05-17,15:51:04.654,627,623,624,601,633,573,681,693,644,647,682,652,574,521,546,506,536,536,458,379,354,335,346,278,269,200,59,-540,-933,15,2216,3995,2316,-410,-631,-738,-896,-907,-869,-841,-829,-813,-788,-727,-706,-738,-770,-760,-796,-730,-712,-687,-636,-544,-501,-459,-400,-387,-396,-441,-524,-434,-500,-518,-483,-514,-497,-402,-449,-476,-418,-405,-474,-525,-496,-450,-539,-418,-397,-430,-383,-301,-267,-277,-290,-276,-289,-301,-301,-301,-273,-284,-341,-355,-334,-339,-333,-341,-337,-339,-711,-1375,-855,1143,3570,2985,-408,-960,-847,-1046,-1070,-1018,-941,-865,-821,-845,-763,-698,-649,-587,-585,-537,-446,-393,-355,-235,-163,-76
2018-05-17,15:51:05.692,-44,18,1,-108,-202,-315,-391,-444,-476,-469,-454,-434,-389,-370,-394,-387,-338,-288,-315,-289,-272,-261,-201,-154,-174,-160,-130,-125,-134,-122,-105,-105,-58,20,62,-18,-49,0,0,7,-32,-40,-11,-225,-856,-752,701,2900,3507,479,-614,-401,-602,-704,-679,-660,-595,-598,-595,-523,-475,-475,-458,-416,-419,-404,-386,-292,-218,-190,-123,-47,21,91,51,-21,-110,-155,-134,-162,-233,-216,-110,-113,-118,-161,-118,-103,-140,-174,-146,-120,-75,-38,-69,-25,15,15,9,-21,-73,-95,-71,-34,9,40,-1,-44,3,22,11,3,3,31,-30,-530,-990,-119,1849,3764,2627,-224,-444,-448,-645,-640,-563,-517
2018-05-17,15:51:06.729,-515,-463,-383,-299,-287,-283,-225,-235,-250,-216,-178,-172,-55,77,115,126,167,203,142,24,-65,-143,-184,-187,-189,-149,-107,-117,-123,-119,-112,-125,-110,-118,-78,-72,-57,-12,20,20,68,59,30,48,26,-14,-121,-28,71,120,115,14,2,81,61,14,-7,-43,-78,-315,-935,-728,867,3158,3311,475,-604,-476,-623,-686,-645,-589,-541,-533,-517,-489,-465,-439,-443,-358,-350,-340,-322,-271,-231,-159,-57,60,109,182,158,31,-29,-91,-72,-35,-48,-38,-48,4,15,-3,87,124,94,54,-8,44,62,20,48,55,62,76,51,0,10,50,45,41,124,165,129,81,88,99,89,88
2018-05-17,15:51:07.766,159,127,5,-461,-850,186,2192,3883,2118,-313,-249,-332,-540,-538,-488,-428,-344,-301,-281,-235,-202,-185,-182,-177,-127,-97,-45,29,102,92,119,217,240,235,154,7,-104,-139,-196,-189,-174,-213,-153,-122,-146,-180,-164,-152,-137,-145,-92,-63,-30,13,14,6,-18,-54,-56,-55,-35,-11,-12,93,125,25,20,39,57,24,31,20,-72,-273,-870,-792,552,2829,3441,670,-542,-496,-635,-724,-714,-726,-682,-627,-590,-561,-538,-545,-516,-531,-482,-413,-419,-414,-317,-278,-166,-79,-12,23,89,8,11,-12,-120,-93,-38,11,50,55,73,95,113,121,89,139,214,203,159,141,105,105,142,163
2018-05-17,15:51:08.803,170,146,127,120,128,138,156,215,198,135,102,104,86,58,11,29,-24,-430,-951,-249,1780,3890,3025,-122,-419,-362,-538,-548,-523,-464,-404,-372,-355,-338,-307,-257,-298,-308,-273,-218,-170,-134,-93,-45,41,128,184,177,100,6,-88,-164,-196,-190,-169,-153,-132,-81,-63,-37,-10,6,8,37,-13,-13,-17,-13,15,33,39,-6,-52,-44,-28,-10,-31,-31,36,60,-47,-18,-53,-51,-46,-71,-44,-12,-192,-682,-897,126,2119,3077,1082,-506,-418,-574,-682,-617,-538,-496,-477,-484,-444,-406,-380,-340,-283,-263,-176,-135,-73,7,62,129,238,309,390,341,320,271,309,289,264,316,454,448
2018-05-17,15:51:09.840,435,548,558,560,612,615,578,582,649,679,672,687,774,816,823,852,878,885,897,948,995,1048,1045,1031,1051,1023,1039,1064,1056,1040,932,377,174,1335,3407,4873,2786,603,619,504,306,246,254,255,277,342,322,275,328,308,262,245,243,224,235,277,323,379,401,393,393,322,216,101,37,32,-55,-139,-107,-82,-87,-88,-99,-80,-124,-135,-213,-250,-278,-303,-364,-332,-272,-305,-394,-414,-441,-482,-480,-477,-438,-402,-463,-470,-501,-536,-521,-538,-535,-609,-625,-778,-1303,-1491,-362,1842,2840,585,-1027,-1023,-1194,-1256,-1237,-1215,-1127,-1112,-1120,-1065,-1015,-1033,-1003,-999,-964,-939,-865,-752,-803,-673
2018-05-17,15:51:10.877,-508,-454,-442,-437,-439,-412,-469,-546,-571,-585,-544,-502,-471,-445,-404,-368,-351,-336,-339,-365,-400,-379,-348,-361,-342,-340,-309,-266,-296,-339,-332,-299,-314,-299,-242,-174,-199,-252,-270,-262,-248,-252,-263,-250,-313,-782,-1190,-269,1908,3807,2255,-571,-596,-630,-790,-802,-728,-662,-629,-588,-553,-544,-533,-512,-487,-450,-414,-358,-299,-233,-182,-77,-4,11,58,95,11,-108,-191,-250,-291,-281,-251,-198,-159,-151,-99,-98,-80,-93,-99,-100,-125,-142,-129,-110,-101,-80,-83,-108,-140,-131,-93,-49,-10,28,10,-19,-69,-88,-75,-65,-73,-70,-232,-807,-825,461,2494,3348,913,-404,-292,-508,-659,-620,-587,-559
2018-05-17,15:51:11.477,-485,-427,-408,-384,-406,-397,-411,-402,-365,-302,-259,-210,-126,-116,-63,34,108,60,9,-67,-177,-177,-92,-24,-10,-41,-85,-133,-101,-13,-44,-67,-97,-130,-125,-172,-138,-94,-126,-81,-59,-67,-70,-81,-79,-48,-14,51,92,50,29,41,39,26,31,20,-14,-263,-842,-557,1085,3513,3726,650,-484,-396,-548,-594,-560,-522,-484,-454,-432,-386,-361,-359,-357,-350,-298,-272,-275,-214,-152,-85,-9,72,124,73,56,107,51,-17,-62,-66,-31,9,44,57,52,35,15,17,-29,-69,-71,32,25,5,19,-1,-12,-52,-59,10,-23,-27,-5,0,32,-15,-48,-36,-16,-30,-9,2,-40,-108
2018-05-17,15:51:12.514,-653,-991,51,2247,3379,1459,-401,-373,-467,-599,-559,-507,-478,-437,-417,-438,-376,-331,-311,-267,-229,-252,-232,-180,-125,-42,12,78,119,171,187,98,-14,-93,-147,-140,27,85,68,32,15,-3,-8,-20,-40,-36,-42,-12,-5,7,-11,-1,21,18,-14,-8,27,37,67,117,145,109,88,100,118,113,148,142,88,-201,-768,-358,1298,3534,3689,331,-311,-146,-382,-491,-467,-427,-427,-414,-360,-335,-308,-286,-293,-274,-254,-254,-205,-157,-104,-30,51,130,192,175,115,6,-69,-127,-110,-115,-130,-136,-129,-52,-58,-76,-77,-118,-135,-58,-20,-46,-70,-68,-35,-7,-55,-109,-85,-82,-70,-41
2018-05-17,15:51:13.552,-1,-4,-21,-16,-8,-63,-104,-38,-13,-43,-367,-949,-503,921,2748,2469,70,-377,-370,-563,-619,-606,-545,-508,-479,-492,-435,-383,-412,-355,-352,-326,-375,-405,-336,-253,-55,78,73,72,122,77,5,-11,-3,-25,-12,6,34,90,135,135,107,91,90,50,55,38,8,36,15,45,52,71,80,52,49,48,53,115,152,111,71,70,84,67,102,114,57,-87,-522,-863,84,2434,4263,2398,-232,-359,-377,-535,-554,-511,-473,-457,-432,-398,-374,-342,-361,-355,-315,-252,-259,-214,-168,-117,-36,-13,169,195,143,38,-21,-92,-183,-252,-246,-199,-131,-88,-96,-88,-79,-100,-98,-80,-101,-86
2018-05-17,15:51:14.589,-62,-50,-6,-18,-9,-12,-19,15,48,55,74,101,121,112,114,120,122,161,191,172,130,-27,-544,-567,647,2803,3540,1000,-146,-19,-194,-293,-213,-143,-129,-117,-16,45,22,22,130,183,167,176,264,378,441,454,568,676,680,734,692,588,556,535,508,528,538,569,580,610,652,651,633,595,609,605,593,557,542,527,570,568,513,523,523,542,538,568,615,647,595,530,532,517,497,490,480,428,202,-381,-338,1162,3452,4150,1152,-222,-88,-303,-415,-372,-342,-327,-292,-327,-330,-340,-325,-344,-367,-311,-285,-292,-261,-234,-195,-164,-103,-58,-67,-115,-220,-321,-395,-453,-496,-427
2018-05-17,15:51:15.626,-336,-299,-382,-403,-366,-348,-345,-375,-287,-350,-413,-386,-379,-376,-440,-426,-360,-349,-431,-468,-358,-266,-296,-320,-324,-353,-357,-375,-368,-366,-402,-733,-1308,-875,772,2897,2479,-278,-874,-820,-1004,-1079,-1040,-938,-890,-860,-841,-825,-853,-836,-740,-714,-704,-722,-691,-626,-567,-499,-406,-265,-231,-173,-204,-290,-406,-368,-371,-388,-393,-384,-358,-330,-248,-288,-237,-239,-232,-211,-215,-258,-137,-124,-131,-134,-130,-149,-168,-175,-183,-166,-141,-71,-81,-118,-124,-98,-91,-115,-119,-110,-189,-742,-1183,-165,2134,3849,2003,-555,-626,-638,-769,-749,-694,-659,-616,-553,-523,-511,-497,-465,-460,-415,-385,-357,-294,-212,-142,-71
2018-05-17,15:51:16.663,6,56,52,24,-61,-182,-299,-342,-334,-308,-268,-250,-258,-223,-196,-187,-163,-93,-63,-93,-103,-69,-90,-97,-101,-79,-71,-68,-38,-32,21,49,70,114,69,30,25,81,57,7,-6,-141,-727,-910,271,2177,3375,1286,-509,-352,-508,-581,-619,-621,-529,-498,-472,-432,-406,-393,-372,-345,-334,-358,-310,-251,-195,-117,-68,12,63,116,102,75,-50,-62,-42,-82,-160,-119,-14,-48,-80,-123,-342,53,205,91,32,-6,-13,-2,4,9,4,-17,-30,-19,-7,0,14,60,50,14,16,35,41,49,80,65,-159,-807,-664,768,3034,3522,745,-422,-368,-551,-653,-587,-521,-569,-464,-394,-417,-368
2018-05-17,15:51:17.700,-313,-279,-286,-302,-260,-217,-252,-111,-10,32,79,150,162,99,20,-44,-79,-112,-133,-179,-133,-75,-6,-38,-5,33,-98,-62,43,17,-6,2,11,35,23,5,-4,-28,-101,2,94,57,99,119,79,72,77,44,74,66,-8,-105,-540,-1037,-114,2108,3812,2153,-388,-523,-536,-664,-684,-599,-515,-507,-543,-503,-459,-459,-430,-389,-425,-386,-348,-300,-270,-164,-89,4,89,180,167,71,9,-41,-35,-27,-48,-52,-53,-37,-4,13,34,38,41,65,80,137,171,155,88,111,154,175,111,77,36,36,70,75,142,171,123,92,109,108,108,80,45,19,-265,-896,-447,1244,3361,3120
2018-05-17,15:51:18.737,-20,-448,-324,-499,-519,-463,-410,-383,-341,-298,-235,-240,-237,-250,-212,-149,-141,-115,-43,61,163,156,151,186,195,134,10,-97,-176,-186,-204,-182,-159,-144,-110,-108,-102,-70,-36,-29,-28,20,90,71,52,49,34,-3,22,-2,-74,76,237,274,161,146,191,199,155,135,158,78,-21,-483,-888,45,1957,3620,2119,-349,-380,-482,-687,-709,-689,-649,-591,-565,-511,-475,-491,-496,-520,-482,-456,-433,-364,-310,-285,-225,-177,-116,-75,-49,-37,-99,-99,-130,-122,-145,-179,-137,-74,-77,-105,-93,-46,-87,-88,-57,-93,-37,-20,-12,19,47,15,-6,16,-3,-50,-20,63,115,75,32,36,38
2018-05-17,15:51:19.775,43,87,112,93,-78,-673,-804,447,2851,3851,1356,-380,-307,-459,-549,-467,-367,-311,-237,-168,-137,-80,-34,2,36,64,81,124,207,296,383,464,531,638,700,670,590,518,449,431,438,477,518,521,570,581,599,635,603,621,643,652,755,754,564,614,648,626,635,616,613,603,576,674,709,731,671,631,635,604,578,546,496,443,286,-316,-365,939,3316,3980,1172,-274,-105,-281,-409,-368,-351,-323,-267,-299,-347,-335,-316,-257,-268,-309,-288,-295,-252,-268,-201,-96,-13,17,23,-20,-100,-180,-196,-208,-289,-201,-222,-218,-228,-195,-216,-244,-295,-303,-247,-216,-231,-219,-205,-186,-174,-192
2018-05-17,15:51:20.812,-219,-225,-252,-286,-241,-222,-156,-194,-235,-271,-274,-256,-261,-278,-276,-363,-904,-1257,-174,1779,3307,1539,-777,-607,-666,-868,-894,-855,-857,-756,-714,-665,-603,-587,-565,-535,-474,-458,-483,-403,-283,-249,-194,-137,-57,-52,-72,-137,-251,-380,-422,-476,-523,-464,-392,-361,-372,-366,-351,-307,-265,-306,-323,-289,-260,-263,-256,-216,-154,-140,-165,-150,-116,-62,-78,-55,-151,-116,-97,-100,-100,-54,-77,-141,-395,-918,-746,623,2931,3448,538,-710,-635,-816,-816,-775,-779,-772,-677,-685,-628,-616,-677,-616,-535,-522,-532,-516,-538,-477,-407,-325,-260,-199,-129,-154,-174,-212,-250,-237,-292,-110,-120,9,68,-31,-78,-78
2018-05-17,15:51:21.849,-101,-81,-20,-20,-97,-32,66,59,47,80,89,76,62,107,181,218,212,165,99,88,61,109,47,59,38,-14,-526,-1117,-232,2130,4077,2420,-362,-548,-659,-857,-830,-724,-648,-611,-594,-523,-519,-497,-454,-358,-319,-309,-239,-253,-190,-71,-8,74,95,109,121,62,-81,-170,-237,-320,-316,-269,-197,-188,-135,-158,-278,-153,-76,-95,-25,-48,-77,-73,-117,-125,-90,-65,-42,-35,8,54,86,147,138,100,108,76,112,141,23,5,-170,-764,-697,834,3093,3565,398,-632,-402,-595,-742,-703,-633,-621,-588,-567,-498,-499,-496,-433,-416,-401,-329,-323,-320,-253,-150,-40,-48,-5,33,-13,-88,-150
2018-05-17,15:51:22.886,-188,-203,-198,-139,-129,-106,-127,-84,-47,-57,-81,-101,-61,-3,-48,-92,-12,-26,-47,71,48,-5,44,92,155,152,144,139,110,80,58,46,49,-13,-116,-734,-733,721,3052,3907,916,-560,-382,-551,-712,-651,-604,-560,-552,-518,-471,-462,-404,-377,-336,-311,-283,-241,-196,-144,-60,50,119,124,160,165,67,-54,-90,-141,-198,-196,-148,-140,-167,-161,-103,-108,-129,-107,-103,-122,-122,-80,-60,-55,-25,-66,-51,-17,-32,27,70,133,202,141,66,119,145,127,93,17,-53,-131,-807,-670,972,3412,3683,559,-579,-453,-576,-668,-692,-661,-629,-516,-522,-446,-489,-443,-384,-395,-398,-388,-340,-279
2018-05-17,15:51:23.923,-223,-167,-108,-2,13,-3,22,-21,-89,-118,-82,-54,-98,-98,-88,1,5,65,83,10,7,47,15,3,23,18,-6,30,119,105,109,149,180,205,280,313,226,216,210,183,152,165,164,69,-413,-848,115,2407,4301,2502,-429,-421,-475,-626,-676,-623,-559,-509,-477,-456,-375,-360,-385,-352,-312,-250,-193,-130,-46,36,136,224,268,292,255,156,36,-42,-112,-143,-121,-112,-102,-95,-87,-82,-67,-56,-73,-104,-125,-82,-98,-91,-81,-85,-24,-37,-17,22,50,129,191,129,114,156,164,147,90,49,29,-312,-967,-389,1376,3411,2922,15,-364,-331,-573,-651,-624,-536,-543,-578,-510,-405
2018-05-17,15:51:24.961,-415,-390,-415,-395,-346,-314,-333,-352,-292,-186,-93,-56,-39,-25,-35,-64,-112,-160,-136,-71,-122,-150,-111,-58,-9,50,8,-38,-32,-70,-97,-35,51,54,31,30,4,7,18,93,163,192,101,89,131,144,121,65,74,62,-413,-953,-128,1775,3662,2316,-300,-364,-431,-584,-603,-568,-504,-488,-425,-372,-365,-368,-357,-333,-278,-259,-271,-250,-147,-151,-60,113,186,209,220,152,70,7,-9,9,4,19,-10,1,38,45,-43,-2,10,-20,7,-8,-27,-30,-29,-46,2,-17,-22,-12,12,51,124,93,46,59,81,120,127,123,117,31,-543,-945,223,2831,4764,2449,-479,-479,-555,-697
2018-05-17,15:51:25.998,-683,-651,-592,-473,-490,-420,-424,-414,-379,-378,-364,-357,-350,-292,-213,-123,-52,10,62,69,77,42,-58,-99,-122,-104,-67,-76,-42,-24,-32,-51,-50,-17,11,-14,1,38,21,23,61,37,30,8,46,51,120,185,217,184,184,190,168,154,176,175,134,-137,-772,-546,1062,3244,3310,537,-228,-171,-380,-460,-439,-406,-381,-363,-351,-333,-323,-317,-318,-319,-262,-222,-184,-149,-62,23,84,131,180,190,132,36,-40,-107,-140,-135,-104,-54,-33,-17,-21,-9,-36,-7,41,33,15,34,39,37,38,3,-15,-19,17,59,113,98,63,45,29,19,18,19,-11,-110,-645,-1011,171,2274
2018-05-17,15:51:34.958,1773,-124,-288,-486,-666,-538,-324,-438,-718,-1045,-459,-71,-244,-410,-345,-357,-161,-254,-20,109,129,171,311,475,601,631,538,388,294,186,110,64,24,18,14,10,-35,-71,-98,-115,-137,-150,-144,-162,-200,-174,-136,-148,-53,-69,-9,93,47,-23,19,47,34,3,81,-24,-696,-788,536,2774,3603,1124,-393,-303,-489,-622,-563,-518,-498,-496,-364,-363,-399,-293,-198,-221,-112,84,179,232,263,293,313,288,220,148,-17,-173,-291,-391,-370,-379,-359,-332,-285,-377,-412,-324,-274,-287,-310,-319,-267,-242,-265,-230,-196,-232,-224,-152,-16,32,-56,-116,-41,39,-31,-88,-68,-29,-404,-839,-150,1793
2018-05-17,15:51:36.208,3588,2050,-182,-84,-311,-509,-447,-415,-427,-428,-368,-228,-146,-110,-46,34,64,88,71,31,36,73,147,230,264,247,181,47,-106,-253,-301,-333,-314,-272,-270,-284,-256,-228,-207,-190,-155,-116,-118,-89,-64,-40,-19,-37,54,173,196,87,118,139,107,115,150,161,110,-100,-685,-475,1062,3416,3934,812,-248,-72,-256,-382,-291,-67,74,91,117,86,31,52,39,-37,-105,-2,60,57,206,351,343,371,424,371,377,313,186,199,227,206,281,297,345,448,421,368,383,412,438,382,399,428,481,454,410,573,643,611,648,591,572,735,670,692,747,682,627,547,58,-392,534,2568
2018-05-17,15:51:37.245,3770,1583,465,652,244,50,82,116,100,71,69,57,13,0,-20,-33,-22,-62,-54,-30,7,69,106,139,147,124,57,-43,-202,-252,-258,-287,-278,-256,-233,-199,-176,-219,-236,-191,-203,-232,-239,-269,-307,-316,-331,-361,-357,-297,-274,-199,-172,-300,-310,-219,-243,-324,-342,-150,-594,-1266,-576,1665,4182,3219,-533,-1122,-969,-1153,-1211,-1218,-1175,-1159,-1104,-1004,-1001,-1013,-953,-922,-898,-834,-803,-727,-591,-501,-439,-397,-368,-365,-365,-441,-512,-517,-604,-656,-624,-607,-672,-597,-575,-535,-391,-340,-354,-388,-363,-273,-297,-302,-239,-221,-242,-204,-255,-196,-91,32,19,26,17,94,111,7,-533,-1075,-162,2052
2018-05-17,15:51:38.282,4032,2250,-648,-574,-627,-836,-871,-844,-791,-724,-682,-686,-706,-670,-649,-641,-617,-585,-444,-379,-254,-144,-34,34,92,139,110,42,-78,-212,-281,-277,-248,-215,-172,-157,-162,-167,-188,-165,-171,-172,-188,-225,-238,-234,-283,-78,96,91,150,187,112,3,26,-15,-72,-129,-236,-600,-1188,-535,1334,3233,2303,-382,-621,-583,-755,-780,-709,-652,-603,-605,-654,-592,-536,-531,-536,-496,-452,-441,-386,-271,-197,-137,-87,-56,-30,-85,-130,-121,-122,-168,-176,-135,-17,2,-40,-68,-75,-95,-189,-82,35,68,174,124,57,55,56,55,102,98,66,19,18,-9,-12,-4,-35,-307,-946,-565,1003,2974,2867,-235
2018-05-17,15:51:39.319,-434,-329,-536,-585,-549,-466,-402,-370,-326,-264,-243,-236,-191,-161,-137,-99,-49,20,100,208,279,346,397,410,311,202,77,105,158,158,157,197,236,264,313,372,414,414,395,343,332,361,404,431,366,414,472,560,573,444,484,546,514,487,487,297,-334,-189,1169,3294,3814,1090,136,237,31,-92,-60,-3,25,19,41,77,80,78,120,104,42,110,125,124,177,420,488,446,486,539,492,364,346,410,313,226,355,427,288,277,297,241,194,152,139,81,58,29,27,6,60,169,161,139,97,103,66,59,59,33,0,-160,-760,-783,371,2569,3927,1377,-340,-461,-605,-724
2018-05-17,15:51:40.356,-718,-754,-723,-704,-666,-605,-665,-673,-602,-532,-539,-540,-550,-493,-405,-387,-298,-249,-168,-112,-71,-130,-119,-125,-166,-179,-171,-143,-114,-65,-181,-254,-259,-289,-344,-359,-353,-333,-381,-405,-431,-368,-321,-353,-382,-254,-191,-268,-254,-237,-319,-409,-808,-1231,-404,1124,3101,1786,-429,-625,-736,-871,-895,-834,-825,-904,-768,-668,-678,-680,-715,-816,-922,-790,-479,-504,-641,-497,-213,-229,-309,-233,-190,-215,-259,-314,-355,-371,-302,-285,-298,-315,-322,-358,-327,-268,-280,-279,-286,-287,-272,-275,-224,-200,-80,-33,37,32,-11,-15,14,61,23,-44,-461,-954,-343,1475,3477,2438,-172,-500,-481,-642,-686,-575,-554,-596
2018-05-17,15:51:41.393,-526,-477,-323,-232,-265,-331,-363,-332,-265,-143,-64,-75,-30,29,38,25,18,-18,-99,-190,-141,-62,-31,10,14,31,3,16,1,-7,11,32,27,36,52,97,117,74,97,209,248,237,240,229,145,205,240,339,222,-384,-798,34,1948,3461,1847,48,-12,-145,-235,-210,-228,-211,-174,-190,-122,-44,50,94,114,190,260,261,227,238,272,316,339,377,339,231,87,-31,-155,-197,-208,-216,-230,-215,-186,-170,-176,-162,-140,-120,-125,-94,-54,-34,-15,-5,50,124,176,142,118,147,152,142,146,131,62,-339,-910,-334,1517,3663,2957,9,-384,-331,-492,-506,-471,-478,-444,-453,-443,-450
2018-05-17,15:51:42.431,-474,-441,-385,-385,-376,-364,-354,-206,-177,-118,-27,6,-36,-32,-99,-256,-316,-312,-316,-285,-236,-218,-261,-233,-245,-241,-208,-182,-159,-185,-176,-139,-158,-131,-62,-17,63,53,-46,-67,33,74,-7,-20,-151,-264,-715,-405,958,2940,2786,-33,-223,-143,-403,-399,-234,-206,-250,-317,-333,-371,-376,-374,-391,-368,-354,-365,-308,-249,-199,-142,-102,-44,-30,-71,-111,-204,-295,-292,-258,-239,-244,-223,-192,-159,-142,-123,-117,-91,-90,-83,-100,-74,-62,-60,-40,11,69,88,43,22,117,143,165,171,177,54,-589,-696,726,3247,4585,1576,-238,-81,-259,-388,-319,-234,-288,-341,-268,-255,-217,-167,-71,-70
2018-05-17,15:51:43.468,-126,-94,-64,-72,16,109,156,195,266,264,226,212,192,153,109,117,196,238,211,161,157,213,208,240,199,213,259,312,228,187,377,332,338,531,552,468,425,363,202,342,514,420,54,-529,-34,1909,4485,3826,111,-390,-313,-545,-602,-545,-522,-520,-510,-494,-489,-477,-483,-473,-489,-502,-499,-462,-385,-294,-225,-139,-77,-49,15,-34,-132,-192,-201,-228,-207,-170,-172,-179,-167,-207,-190,-205,-208,-213,-241,-258,-231,-219,-251,-206,-210,-120,45,67,71,122,74,-38,-102,-137,-233,-746,-1330,-477,1752,3729,2332,-661,-806,-718,-906,-966,-871,-811,-816,-755,-766,-684,-605,-610,-562,-559,-539,-474
2018-05-17,15:51:44.505,-441,-390,-340,-225,-180,-169,-147,-163,-243,-297,-325,-433,-377,-287,-348,-231,-193,-170,-185,-267,-167,-135,-171,-185,-177,-189,-158,-104,-25,135,189,129,352,310,174,93,18,-31,-32,-132,-659,-1157,-166,2097,3993,2197,-792,-659,-646,-800,-836,-801,-752,-694,-565,-413,-545,-575,-464,-377,-307,-300,-243,-146,-57,39,125,177,231,220,139,9,-132,-211,-263,-289,-288,-286,-271,-241,-227,-231,-221,-203,-183,-175,-136,-38,48,60,52,81,96,113,114,-81,-143,-102,-71,-14,-12,-28,-296,-1041,-753,857,3181,3426,273,-536,-382,-557,-720,-747,-644,-581,-540,-497,-484,-417,-426,-428,-447,-422,-339,-302,-279,-208
2018-05-17,15:51:45.542,-116,-95,-52,-6,33,61,-16,-195,-67,24,23,-42,-64,-59,-168,-35,-93,16,95,51,86,98,78,78,33,18,51,131,110,36,14,11,-8,4,16,-23,-149,-716,-842,259,2147,3173,1001,-449,-197,-348,-526,-495,-446,-389,-364,-345,-296,-232,-221,-306,-306,-205,-169,-147,-110,-77,-12,77,120,135,227,199,71,71,34,32,0,-129,-40,251,230,277,270,190,133,117,27,-7,20,-84,-121,-27,76,103,74,80,104,146,124,164,191,148,80,84,-37,-609,-384,1003,2969,2747,330,-93,-63,-275,-322,-199,-164,-164,-191,-125,-7,-11,-12,-3,76,93,-13,36,221,321,407,466
2018-05-17,15:51:46.579,466,505,479,418,477,434,505,475,554,671,684,587,491,438,393,346,320,288,219,186,164,160,123,90,69,94,120,148,85,80,100,96,93,92,110,73,-292,-817,-228,1567,3365,2506,0,-240,-241,-480,-525,-488,-444,-472,-475,-486,-534,-535,-526,-506,-469,-426,-395,-320,-242,-104,23,117,168,139,88,-42,-202,-313,-377,-459,-462,-441,-446,-441,-459,-469,-447,-450,-391,-440,-505,-494,-415,-370,-407,-383,-332,-281,-187,-178,-191,-167,-212,-170,-146,-175,-208,-210,-651,-1021,-40,1716,2814,917,-391,-268,-346,-415,-501,-563,-618,-327,-274,-416,-538,-395,-205,-174,-137,-89,-23,123,139,102,139,201
2018-05-17,15:51:47.617,207,169,61,-15,-160,-293,-339,-351,-357,-411,-398,-364,-360,-393,-383,-341,-331,-286,-272,-244,-215,-214,-177,-92,-18,69,32,21,51,85,126,116,102,96,16,-532,-1047,-121,2032,3924,2317,-234,-305,-375,-571,-739,-366,-192,-216,-210,-266,-270,-267,-213,-223,-274,-228,-166,-151,-72,2,72,128,280,251,249,192,139,120,87,92,128,111,124,199,260,177,183,222,196,226,236,233,281,244,166,289,407,392,452,573,535,530,562,519,487,477,435,130,-523,-174,1369,3708,3760,749,192,220,-16,-111,-120,-138,-155,-139,-122,-151,-188,-197,-177,-181,-212,-228,-189,-139,-97,-59,-29,0,3
2018-05-17,15:51:48.654,-32,-103,-190,-262,-273,-274,-253,-234,-209,-188,-181,-187,-179,-158,-155,-151,-157,-139,-166,-196,-197,-243,-208,-127,-85,-80,-90,-92,-69,-78,-42,-5,-39,-210,-980,-1246,153,2579,3727,1030,-829,-645,-809,-907,-864,-678,-637,-685,-688,-662,-653,-641,-589,-580,-557,-532,-527,-478,-385,-309,-254,-170,-152,-156,-147,-258,-391,-478,-466,-418,-280,-142,-181,-190,-200,-185,-280,-347,-181,-109,-117,-143,-234,-162,-81,0,76,112,86,70,63,30,-19,-51,-77,-80,-203,-805,-1102,118,2430,3910,1263,-755,-576,-688,-839,-847,-768,-692,-649,-621,-607,-589,-518,-479,-499,-494,-409,-307,-241,-235,-180,-52,34,79,92,5
2018-05-17,15:51:49.691,-63,-164,-230,-277,-291,-293,-294,-289,-284,-333,-250,-165,-135,-99,-125,-71,15,-70,-149,-104,-108,-112,-53,-1,-27,-85,-152,-133,-135,-112,-93,-88,-397,-1060,-656,1222,3454,2810,-121,-679,-458,-523,-519,-624,-623,-528,-480,-480,-495,-477,-483,-516,-378,-342,-434,-291,-169,-62,30,77,105,152,152,41,0,-46,-90,-84,-78,-149,-99,129,163,196,266,166,230,333,268,182,115,60,12,-19,-15,21,34,40,-30,-78,-70,-65,-72,-97,-92,-123,-499,-1064,-356,1506,3388,2409,-368,-278,-245,-466,-497,-418,-340,-320,-274,-242,-221,-198,-230,-233,-211,-220,-229,-127,-35,20,110,305,380,390,403,314
2018-05-17,15:51:50.728,214,82,0,-55,-103,-70,-71,-79,-45,2,115,62,-21,-37,2,81,175,145,116,159,180,222,355,402,379,372,386,416,459,439,417,404,-106,-487,525,2340,3647,1806,132,185,28,58,149,82,46,236,232,184,130,85,72,25,-66,223,483,507,462,539,700,773,775,692,547,387,219,83,31,-4,-34,-78,-109,-140,-178,-173,-230,-272,-281,-305,-223,-203,-249,-238,-245,-227,-169,-128,-42,-26,-62,-126,-103,61,85,6,-56,-236,-902,-963,441,2938,3826,432,-921,-474,-644,-817,-798,-741,-733,-719,-620,-411,-397,-470,-515,-522,-521,-550,-561,-528,-467,-444,-489,-462,-356,-288,-406,-492
2018-05-17,15:51:51.765,-579,-630,-639,-548,-492,-432,-464,-495,-455,-453,-548,-464,-357,-413,-426,-416,-351,-295,-355,-357,-204,-105,-101,-187,-125,-18,-70,-56,-55,-269,-222,-459,-917,-396,1382,3623,2940,168,-193,-111,-301,-380,-391,-454,-539,-549,-502,-476,-506,-529,-514,-471,-458,-403,-344,-248,-186,-117,-61,-12,4,-40,-146,-236,-331,-400,-395,-350,-277,-247,-245,-227,-185,-198,-195,-151,-132,-111,-110,-104,-118,-114,-75,-27,36,56,75,110,106,121,140,193,206,89,-413,-997,-13,2138,4065,2382,-551,-346,-449,-586,-550,-555,-534,-574,-515,-442,-375,-351,-409,-366,-395,-458,-275,-101,-87,-99,-140,22,32,55,12,-1,-70,-183
2018-05-17,15:51:52.802,-235,-302,-261,-246,-185,-176,-192,-91,-90,-54,-9,-16,-14,20,55,98,93,55,42,202,376,250,153,127,161,113,94,114,114,-505,-1066,-86,2373,4497,2493,-527,-533,-526,-706,-705,-640,-615,-589,-564,-525,-493,-491,-527,-476,-384,-322,-253,-187,-15,94,171,237,335,379,313,236,86,-63,-49,-109,-101,-43,-1,4,1,-31,-63,-81,-119,-173,-184,-225,-232,-180,-115,-87,-34,61,167,267,251,159,134,155,126,44,39,-124,-806,-1058,445,3077,4079,1134,-744,-491,-651,-790,-632,-633,-618,-636,-644,-487,-460,-487,-446,-464,-464,-421,-358,-305,-172,-34,-33,-71,14,30,4,-77,-137,-127,-57
2018-05-17,15:51:53.840,-44,-88,-61,24,45,-108,45,101,-28,5,63,-91,-102,155,186,145,237,254,343,286,243,196,152,124,102,118,61,-171,-892,-783,851,3239,3665,462,-566,-352,-544,-678,-671,-582,-553,-575,-423,-261,-294,-292,-243,-221,-156,-95,-36,35,87,199,311,307,349,385,281,137,67,-111,-245,-149,-34,-85,-124,-166,-125,-128,-78,-69,16,90,61,21,52,-43,31,125,102,38,76,65,16,-38,-21,61,1,-165,-542,-1054,-495,1060,2956,2461,-181,-401,-386,-614,-706,-667,-587,-537,-554,-440,-390,-533,-455,-410,-504,-383,-313,-276,-204,-211,-119,34,85,-21,178,126,-46,-84,-158,-56,160,114
2018-05-17,15:51:54.877,61,300,301,271,278,220,163,106,56,25,5,9,-21,-49,-1,20,93,118,76,-9,32,65,40,26,24,-54,-542,-883,196,2348,3539,1531,-270,-156,-245,-388,-393,-313,-215,-208,-219,-182,-199,-229,-327,-182,-141,-96,-22,-17,65,145,248,416,504,458,410,257,40,-115,-209,-282,-349,-361,-424,-362,-291,-285,-304,-274,-240,-287,-267,-254,-183,-130,-182,-176,-122,-59,101,182,52,-94,-76,-3,31,57,28,-134,-689,-832,255,2083,3008,985,-261,-70,-225,-523,-656,-360,-174,-316,-110,-160,-301,-263,-164,-88,-150,-183,45,120,205,302,382,437,508,473,318,140,14,-121,-169,-199,-200,-192
2018-05-17,15:51:55.914,-187,-173,-184,-185,-188,-194,-152,-137,-126,-56,-18,2,42,109,193,308,356,335,342,414,452,477,460,464,353,-296,-425,949,3247,4358,1437,-164,43,-47,-302,-174,-78,-91,-73,-6,71,121,170,233,234,218,155,109,86,11,53,278,326,263,238,173,209,221,184,160,105,98,162,166,220,224,176,114,88,110,115,150,46,84,141,126,164,179,65,109,168,175,146,126,227,255,111,-47,-388,-912,-63,1906,3845,2430,-236,-302,-364,-489,-474,-389,-356,-347,-346,-410,-427,-438,-436,-427,-430,-435,-393,-372,-335,-292,-231,-217,-204,-227,-325,-482,-587,-650,-692,-656,-621,-611,-568,-562
2018-05-17,15:51:56.951,-545,-524,-507,-475,-449,-430,-414,-385,-389,-357,-344,-330,-300,-232,-197,-237,-311,-306,-270,-285,-246,-208,-249,-495,-1200,-1047,832,3939,4493,348,-1042,-827,-1059,-1179,-1098,-1020,-947,-919,-902,-888,-871,-778,-711,-704,-713,-622,-511,-522,-451,-370,-274,-182,-178,-184,-250,-377,-458,-513,-497,-403,-310,-260,-350,-370,-273,-220,-288,-350,-160,-120,-185,-89,-120,-74,30,30,-87,-21,66,68,73,134,170,129,188,130,17,-517,-1003,-62,2020,3900,2182,-470,-445,-461,-642,-687,-640,-559,-551,-518,-492,-500,-460,-486,-464,-435,-410,-385,-315,-239,-147,-21,68,152,196,180,74,-55,10,1,-16,-52,-42,-71,-47,-139
2018-05-17,15:51:57.988,-59,-53,-116,-185,-97,-176,-222,-342,-477,-69,14,-71,267,425,340,327,350,324,289,242,169,76,-119,-730,-1080,250,2971,4099,1162,-779,-734,-865,-832,-747,-820,-769,-557,-554,-580,-587,-519,-420,-472,-472,-377,-371,-413,-222,-140,-136,-31,-60,14,-29,2,-47,-108,-120,-36,-107,-32,120,74,33,11,-16,39,68,84,88,125,152,280,308,284,272,312,320,274,217,190,172,142,69,10,-74,-512,-1091,-328,1732,3634,2328,-535,-556,-486,-681,-680,-594,-524,-486,-403,-330,-306,-249,-215,-213,-170,-119,-54,3,69,167,262,330,358,315,225,75,-66,-143,-225,-246,-215,-178,-130,-128,-92,1
2018-05-17,15:51:59.026,140,91,223,246,78,48,73,35,4,-36,-13,-3,-8,-71,-89,-43,-45,-86,-56,-97,-83,-368,-1059,-559,1019,3044,2808,-132,-457,-377,-520,-635,-611,-485,-393,-466,-484,-452,-371,-334,-361,-364,-409,-372,-179,-162,-128,-25,-157,142,335,192,49,7,-94,-280,-164,33,36,-34,30,99,87,31,-7,-41,-68,-88,-87,-82,-84,-109,-127,-97,-25,21,53,12,-11,-16,-21,-58,-42,-21,-13,-354,-873,-313,1368,3269,2563,74,-220,-232,-388,-436,-336,-263,-286,-272,-257,-268,-252,-238,-222,-187,-201,-194,-174,-62,-111,103,358,375,341,292,300,164,69,0,-77,-135,-153,-175,-107,-172,-201,-303
2018-05-17,15:52:00.063,-305,-212,-168,-197,-197,-168,-184,-225,-185,-150,-101,16,57,-5,-38,-22,23,0,-62,-28,-37,-281,-898,-549,930,2849,2644,42,-359,-306,-460,-532,-505,-337,-351,-465,-477,-251,-160,-274,-395,-231,-97,-97,-8,213,405,503,549,668,706,550,320,158,21,-120,-164,-223,-233,-247,-258,-246,-297,-327,-342,-315,-298,-323,-291,-262,-232,-197,-152,-105,-18,95,120,110,121,159,174,157,151,175,33,-611,-607,715,2804,3673,1037,-283,-179,-369,-478,-416,-290,-192,-106,5,81,-57,-134,-98,-110,-112,-36,24,17,24,55,105,14,52,168,163,3,-176,-196,-219,-345,-283,-236,-257,-218,-152,-143,-213
2018-05-17,15:52:01.100,-216,-125,-124,-161,-151,-127,-82,-48,-79,2,146,92,83,156,185,116,118,277,351,242,-260,-634,202,2015,3689,1925,-113,52,27,-12,-67,-41,248,248,185,177,195,215,207,235,239,224,281,351,398,487,565,590,625,609,531,393,297,239,227,250,301,321,339,379,386,386,419,437,427,408,432,424,427,417,417,390,405,456,430,365,326,367,424,374,304,323,312,48,-658,-245,1825,4647,4512,507,-644,-531,-685,-774,-790,-784,-754,-759,-765,-730,-734,-687,-597,-586,-601,-592,-527,-471,-339,-189,-151,-133,-182,-235,-328,-459,-564,-646,-589,-639,-672,-649,-614,-595,-703,-511,-408,-514
2018-05-17,15:52:02.137,-642,-533,-474,-411,-288,-342,-378,-347,-364,-293,-212,-212,-144,-206,-213,-172,-225,-336,-929,-1322,-143,2230,3965,1397,-1016,-791,-901,-1109,-1072,-1003,-982,-952,-924,-897,-884,-874,-808,-757,-724,-659,-581,-507,-447,-300,-210,-152,-85,-57,-118,-245,-335,-352,-365,-397,-380,-338,-382,-426,-363,-400,-362,-267,-112,-159,-122,-51,-143,-54,109,141,147,133,55,0,-37,-61,-141,-185,-166,-172,-579,-1122,-655,1030,3283,2778,-131,-625,-569,-733,-820,-735,-646,-601,-539,-583,-583,-507,-544,-556,-501,-513,-431,-316,-368,-366,-305,-133,100,110,58,-64,-88,-78,-88,-96,1,-30,-180,-167,27,127,151,114,83,127,128,164
2018-05-17,15:52:03.174,98,86,91,89,141,192,180,121,94,99,80,37,40,36,-176,-825,-718,748,2925,3198,460,-379,-153,-299,-398,-333,-259,-231,-172,-128,-101,-67,-42,-21,8,20,29,62,158,266,350,454,479,512,503,396,252,231,207,210,269,241,259,244,189,118,88,39,58,119,39,5,73,35,35,79,146,200,205,160,167,264,242,130,154,129,-54,-629,-677,507,2474,3198,896,-260,-118,-306,-442,-403,-331,-327,-299,-270,-256,-266,-209,-130,-156,-333,-229,-17,12,35,50,49,44,312,266,151,127,64,1,38,0,-63,-80,-72,-117,-200,-219,-261,-279,-313,-310,-279,-333,-363,-333,-291
2018-05-17,15:52:04.211,-264,-222,-195,-228,-216,-168,-137,-122,-93,-115,-345,-972,-739,807,2940,3294,344,-507,-407,-627,-712,-663,-655,-645,-609,-572,-564,-596,-432,-301,-339,-332,-327,-213,-155,33,259,358,349,232,118,-30,-185,-267,-347,-313,-381,-542,-406,-342,-397,-405,-363,-405,-304,-324,-388,-340,-249,-241,-285,-209,-67,-30,-74,-147,-82,-89,-180,-112,-91,-165,-520,-997,-286,1346,2892,1768,-160,-174,-336,-559,-394,-412,-367,-377,-415,-323,-377,-400,-288,-152,-98,0,167,214,249,364,328,339,389,334,214,59,-97,-202,-250,-262,-267,-273,-327,-275,-275,-284,-269,-225,-235,-240,-215,-195,-175,-175,-83,18,87,100,74,118
2018-05-17,15:52:05.249,142,128,82,84,75,-254,-879,-359,1427,3641,3021,-17,-516,-473,-593,-590,-534,-504,-461,-355,-276,-261,-144,64,49,-22,-60,-12,23,-40,-52,9,58,77,67,-9,-156,-220,-295,-231,-207,-200,-217,-231,-212,-184,-146,-120,-105,-135,-125,-113,-128,-101,-66,14,133,172,210,211,212,252,367,362,255,218,-208,-670,138,1988,3793,2502,21,-32,-116,-368,-192,-128,-10,57,44,57,65,50,-14,-45,-55,-36,-41,-2,59,100,130,175,229,200,72,-12,-115,-167,-164,-146,-125,-99,-79,-60,-49,-66,-54,-12,-16,-29,-34,-15,2,43,77,96,104,120,112,92,97,80,22,-17,-22,-677
2018-05-17,15:52:06.286,-993,229,2838,4517,1521,-605,-572,-448,-492,-565,-548,-470,-450,-480,-523,-488,-468,-474,-532,-525,-501,-345,-328,-312,-224,-158,-84,-54,-84,-199,-200,-259,-292,-322,-266,-306,-272,-267,-339,-272,-281,-331,-239,-205,-303,-311,-92,-152,-181,-165,136,141,82,-89,137,213,105,58,21,-374,-933,-281,1687,3741,2729,-58,-176,-121,-347,-410,-399,-384,-391,-392,-387,-415,-431,-429,-429,-443,-414,-417,-388,-309,-224,-169,-116,-88,-90,-158,-239,-285,-314,-303,-271,-231,-232,-244,-180,-172,-174,-145,-132,-107,-107,-145,-133,-109,-106,-42,-8,-19,-51,-29,-12,-4,22,50,26,-269,-960,-466,1586,4235,4004,-125,-682,-406
2018-05-17,15:52:07.323,-606,-628,-585,-543,-468,-583,-605,-399,-293,-332,-421,-416,-364,-360,-282,-201,-199,-113,14,41,78,55,2,-85,-146,-117,-159,-165,-155,-149,-113,-86,-120,-155,-313,-82,87,62,204,292,261,75,239,423,315,249,206,225,162,189,297,-76,-829,-14,2037,4451,3189,-107,-287,-187,-383,-483,-468,-424,-404,-375,-365,-357,-354,-349,-357,-350,-304,-280,-262,-212,-66,20,89,189,251,185,147,76,18,7,33,31,30,31,25,22,0,-25,-134,-274,-128,9,-38,-95,46,82,201,235,74,59,174,420,405,318,285,-175,-1020,-474,1554,3956,3360,-201,-751,-598,-896,-744,-636,-643,-569,-588,-663,-633
2018-05-17,15:52:08.360,-592,-421,-480,-522,-473,-427,-358,-328,-233,-109,-71,-43,-29,-91,-84,-166,-346,-216,-180,-194,-188,-205,-118,-25,-54,-153,-124,-208,-103,-56,-141,-108,37,213,220,231,296,397,324,266,204,148,18,-554,-1002,94,2430,4191,1780,-840,-517,-607,-799,-838,-759,-717,-690,-670,-618,-558,-508,-436,-419,-363,-322,-259,-180,-97,28,120,173,229,231,179,80,-15,-109,-198,-240,-227,-235,-177,-178,-160,-144,-47,-50,-20,55,86,122,51,25,63,69,46,52,65,-57,-150,-136,-64,-252,-986,-746,855,3266,3447,132,-657,-504,-664,-745,-654,-604,-616,-574,-608,-546,-482,-529,-496,-486,-552,-492,-271,-273,-380
2018-05-17,15:52:09.397,-63,53,68,40,66,45,-57,92,57,0,-52,-225,-42,307,248,91,99,292,348,266,185,202,231,266,326,393,353,350,371,400,373,371,393,276,-286,-584,386,2325,3582,1655,14,128,-25,-36,66,69,114,123,158,249,204,193,231,238,240,318,349,370,399,449,519,611,597,532,497,492,353,323,129,307,396,465,455,367,220,206,149,62,10,-143,-120,-80,-58,-54,21,60,-41,-74,-57,-25,-17,-18,-18,-115,-657,-1179,-313,1594,3193,1692,-634,-553,-624,-768,-704,-683,-744,-747,-728,-696,-670,-626,-499,-465,-470,-554,-560,-394,-214,-183,-191,-220,-145,-94,-114,-319,-256,-128
2018-05-17,15:52:10.435,-107,-182,-176,-137,-214,-176,-192,-289,-317,-355,-387,-389,-431,-435,-401,-374,-358,-284,-249,-278,-310,-315,-303,-265,-267,-284,-411,-1061,-1087,309,2565,3497,640,-635,-485,-658,-765,-762,-688,-626,-599,-579,-580,-581,-533,-540,-526,-476,-459,-417,-238,-148,-48,26,102,194,274,123,-16,-117,-244,-321,-330,-280,-270,-377,-385,-407,-379,-370,-307,-292,-331,-324,-314,-300,-229,-182,-128,-120,-124,-170,-128,-59,-46,-111,-121,-471,-941,-479,963,2556,1794,-251,-351,-397,-489,-403,-388,-416,-420,-403,-356,-314,-387,-382,-224,-292,-369,-284,-154,-134,-43,97,218,358,402,363,262,181,92,-5,-60,-81,-99,-139,-169,-189
2018-05-17,15:52:11.472,-186,-177,-192,-230,-239,-208,-187,-153,-195,-181,-56,8,-3,-2,72,96,120,105,118,-35,-633,-657,725,3059,3786,806,-400,-292,-446,-505,-537,-407,-314,-247,-242,-224,-178,-67,-43,-25,229,349,391,440,434,389,410,457,420,331,144,-34,-160,-144,-69,-156,-116,-20,-5,-92,-116,-41,-24,-42,31,69,140,127,20,64,190,279,249,296,297,232,266,341,331,384,166,-550,-294,1214,3436,3409,565,-204,-8,53,-75,-171,-242,-202,-151,-297,-26,204,194,184,188,170,168,165,188,217,226,252,287,301,217,84,-40,-148,-224,-292,-298,-293,-316,-324,-313,-304,-327,-331,-344,-320,-243,-170
2018-05-17,15:52:19.270,231,54,248,220,346,270,95,-40,-38,-65,-100,-134,-143,-188,-215,-172,-140,-121,-47,22,93,141,167,149,78,11,0,-69,-100,-137,-517,-1036,-247,1857,3746,2435,-228,-335,-316,-465,-541,-542,-521,-534,-523,-585,-481,-466,-339,-297,-179,-103,11,25,31,-87,-107,24,313,204,6,-112,-248,-231,-117,-146,-235,-313,-351,-239,-65,-167,-263,-129,-79,-286,-326,-185,-122,-111,-133,-38,80,-55,-122,12,205,202,86,38,-108,-754,-563,899,2832,3017,345,-263,52,-41,-137,-141,75,157,74,-85,-154,-152,-40,14,4,32,92,179,292,429,532,636,674,613,427,250,100,-65,-144,-192,-220,-211
2018-05-17,15:52:20.283,-190,-130,-115,-100,-2,22,83,165,220,249,282,304,344,403,462,450,456,487,566,571,546,572,478,48,-55,1195,3672,4655,1021,112,587,328,75,38,-181,150,159,149,249,120,-86,-66,112,187,160,115,98,259,133,89,312,287,208,215,55,10,169,23,-55,-155,-166,-39,-50,-148,-138,37,114,-285,-297,-133,15,-110,-23,275,517,308,110,-36,-97,-138,-211,-285,-318,-640,-1458,-1150,1077,4263,4397,203,-1072,-845,-1031,-1166,-1176,-1169,-1175,-1204,-1088,-1045,-994,-973,-890,-742,-686,-593,-525,-463,-354,-303,-248,-245,-279,-351,-468,-594,-644,-711,-662,-341,-189,-296,-452,-636,-943,-974,-962,-398
2018-05-17,15:52:21.320,-397,-455,-618,-644,-256,-369,-251,-152,-213,-158,-56,-73,-105,-211,-238,-313,-724,-1250,-312,1878,3381,1745,-604,-495,-495,-505,-531,-589,-588,-512,-520,-443,-529,-263,-273,-513,-307,-207,-93,38,130,293,578,627,482,372,237,55,-96,-204,-296,-333,-350,-335,-307,-304,-273,-250,-276,-303,-268,-333,-412,-431,-403,-316,-222,-169,-148,-132,-81,-4,-15,22,20,-232,-972,-589,1146,3400,3336,59,-473,-395,-625,-690,-599,-595,-683,-395,-275,-295,-149,-30,-80,-182,-190,-456,43,123,118,132,139,25,187,126,-155,-228,-172,-235,-128,-160,-249,-285,-262,-268,-305,-302,-243,-309,-293,-179,-72,-126,-174,-77,-29,-50
2018-05-17,15:52:22.357,-108,-12,249,231,-77,-23,-75,-286,-755,-681,625,2896,3584,709,-168,137,-135,-349,-467,-479,-462,-498,-364,-324,-365,-323,-248,-224,-124,-113,-33,63,182,205,150,181,117,-8,-149,-236,-313,-319,-264,-182,-155,-126,-104,-88,-178,-172,-165,-213,-218,-246,-248,-242,-226,-129,46,186,194,62,220,490,392,104,-533,-545,-564,-761,-131,1804,4357,3357,-91,-181,-133,-350,-241,-297,-199,-181,-174,-113,-138,-159,-150,-207,-208,-94,141,219,231,351,382,409,458,535,487,450,427,306,127,-173,5,201,160,38,224,249,249,312,392,385,259,120,131,183,199,195,253,183,108,106,122,89,117,185
2018-05-17,15:52:23.394,121,-367,-1001,-201,1900,4156,2780,-271,-450,-450,-643,-652,-577,-576,-542,-496,-431,-425,-457,-433,-415,-387,-445,-453,-349,-324,-187,-95,-45,-60,5,97,110,137,299,140,-17,-51,-161,-88,-134,-294,-265,-66,-142,-80,-142,-229,-381,-265,-183,-98,-166,-170,-136,-212,-210,-204,-223,-128,-312,-823,-828,302,2373,3029,569,-516,-449,-590,-767,-531,-310,-380,-390,-375,-480,-645,-461,12,43,-34,9,95,526,608,485,431,531,556,500,343,101,-43,-78,-130,-96,-15,71,81,22,-30,-33,-136,-205,-282,-309,-275,-236,-188,-115,-19,76,113,149,180,208,169,85,61,-50,-684,-999,147,2215,3171,966,-445
2018-05-17,15:52:24.431,-236,-400,-651,-313,-30,-41,-232,-386,-353,-414,-376,-346,-549,-453,-161,46,43,119,167,209,214,126,83,-48,-248,-307,-296,-340,-339,-360,-420,-408,-395,-379,-343,-320,-294,-282,-288,-315,-408,-216,-28,-1,75,145,27,-39,-93,-103,-119,54,-31,-687,-605,962,3440,4006,514,-603,-352,-542,-676,-714,-688,-642,-590,-539,-522,-449,-435,-391,-350,-282,-286,-297,-285,-238,-211,-126,-73,-89,-119,-182,-231,-292,-322,-335,-328,-365,-412,-456,-470,-458,-443,-425,-263,-222,-294,-354,-636,-182,37,75,-76,16,165,-12,-68,86,89,-64,-22,-231,-1039,-916,1051,3608,3155,45,-555,-443,-574,-618,-561,-591,-742,-753
2018-05-17,15:52:25.469,-607,-491,-457,-403,-489,-521,-388,-328,-218,-197,-45,16,143,332,320,177,74,76,-35,-171,-13,86,175,263,298,318,308,200,51,27,4,-16,-60,7,103,93,119,130,51,80,150,126,68,43,-33,-186,-754,-1164,-54,2279,3827,1634,-550,-345,-406,-558,-514,-420,-387,-433,-470,-440,-477,-428,-388,-395,-375,-310,-221,-161,118,323,457,456,434,335,121,248,241,33,-187,-137,70,64,-194,-71,-77,-88,-21,-95,-347,-203,-119,-240,-166,-71,-67,-60,-58,-73,76,46,-85,-78,-3,-714,-973,307,2428,3565,1041,-438,-223,-633,-796,-484,-401,-476,-350,-278,-318,-74,70,12,-105,-116,-105,-9
2018-05-17,15:52:26.506,79,100,226,279,251,123,36,-78,-246,-335,-377,-363,-388,-414,-454,-476,-466,-491,-471,-414,-386,-375,-298,-268,-228,-145,-109,8,34,-43,-54,-58,-87,-135,-66,-24,-146,-864,-720,654,3024,3650,943,-145,-295,-618,-614,-462,-493,-380,-151,-152,18,-4,-80,-80,-210,-194,-69,33,51,246,372,79,256,468,260,-29,-74,273,127,54,95,186,302,257,71,124,396,366,499,434,304,297,510,602,755,904,911,959,1104,1050,824,652,551,311,-503,-489,1512,4812,5554,1051,-560,-230,-385,-548,-541,-528,-539,-514,-540,-545,-554,-490,-464,-457,-396,-309,-231,-159,-32,101,173,178,225,135,-125,-255
2018-05-17,15:52:27.543,-296,-327,-335,-360,-319,-324,-278,-355,-281,-123,4,-95,-132,-37,65,192,89,23,31,-16,-76,-90,-227,-160,-102,-121,-117,-322,-949,-1302,-357,1882,3281,1122,-715,-706,-714,-851,-855,-741,-747,-770,-694,-753,-697,-525,-634,-773,-618,-443,-572,-602,-427,-351,-258,12,89,-44,24,14,-134,-249,-297,-295,-344,-363,-362,-328,-365,-460,-556,-598,-524,-540,-526,-460,-436,-333,-310,-304,-269,-276,-322,-229,-188,-283,-798,-1119,-209,1771,3272,1565,-523,-480,-581,-688,-667,-663,-628,-563,-473,-412,-452,-213,89,24,-61,67,22,-226,-84,161,310,162,36,228,55,-5,-108,-201,-107,-220,-198,-194,-220,-236,-193,-238
2018-05-17,15:52:28.580,-304,-355,-362,-306,-211,-219,-97,4,156,142,-22,37,146,51,192,394,238,-270,-783,38,1748,3516,2226,60,285,282,200,87,-55,-78,-112,-73,-34,-20,5,25,79,93,61,115,214,226,123,146,143,90,43,-95,-248,-397,-475,-422,-339,-302,-292,-296,-281,-232,-213,-175,-144,-136,-100,-119,-125,-91,-25,40,75,116,88,138,167,280,494,504,157,-707,-393,1505,4232,3517,138,-359,-252,-342,-443,-515,-336,-446,-470,-266,-168,-251,-291,-387,-366,-300,-398,-426,-259,-62,-24,116,276,132,40,-51,-7,-67,-161,-350,-188,-93,-170,-309,-302,-155,-258,-257,-155,-107,-115,-27,110,223,328,379
2018-05-17,15:52:29.617,190,34,-25,-110,-124,-45,-73,-91,-313,-1130,-1090,869,3911,4319,594,-837,-544,-705,-812,-770,-758,-740,-696,-650,-616,-523,-464,-432,-349,-283,-219,-174,-155,-118,-67,-92,-80,-12,-78,-243,-283,-305,-304,-305,-463,-384,46,283,189,-194,-44,-224,-597,-445,-354,-167,-94,156,138,127,99,-7,61,43,-132,-229,28,172,-312,-856,-396,1310,3084,2201,-307,-239,-167,-417,-483,-465,-447,-409,-379,-356,-253,-181,-122,-36,-171,-279,-178,-216,1,429,667,776,876,941,959,596,195,18,-18,-11,-10,-59,-142,-220,-225,-228,-274,-269,-232,-228,-225,-194,-205,-182,-105,-171,-264,-232,-178,-160,-137,-83,-362,-1081
2018-05-17,15:52:30.654,-402,1547,3837,3150,-160,-385,-330,-627,-713,-625,-544,-505,-529,-575,-275,-107,-486,-339,245,40,-468,77,886,566,324,210,444,262,148,76,-57,-366,-363,-258,-315,-203,-292,-177,-353,-426,-374,-390,-384,-311,-174,-315,-244,-89,44,-184,-146,57,32,16,-61,198,233,-451,-947,-156,1231,2916,2140,-195,3,450,258,260,197,6,-176,-272,-219,-197,-168,-131,-193,-147,-41,31,106,181,229,296,259,148,-7,-244,-438,-600,-649,-627,-578,-556,-500,-446,-347,-232,-236,-254,-250,-268,-322,-355,-327,-299,-253,-133,-87,-104,-123,146,132,270,497,337,-242,-1058,-547,2276,4710,2677,-480,-501,-160,-228,-356,-417
2018-05-17,15:52:31.692,-375,-200,-57,-35,-44,-82,-80,-48,-91,-159,-63,135,433,542,610,713,640,576,668,595,307,264,477,438,392,397,526,314,336,383,401,488,730,803,948,983,803,562,641,707,644,537,385,323,351,360,339,234,-336,-898,212,2844,4775,2376,-546,-469,-524,-765,-744,-689,-666,-655,-566,-513,-515,-487,-430,-456,-392,-405,-388,-352,-369,-333,-240,-204,-168,-165,-259,-414,-398,-492,-323,-88,-340,-341,-313,-329,-456,-368,-463,-616,-576,-409,-481,-330,-391,-542,-493,-400,-412,-345,-406,-437,-465,-637,-1156,-1437,-513,1139,2530,1139,-662,-795,-849,-936,-911,-689,-731,-780,-876,-829,-594,-805,-876,-786,-735,-657
2018-05-17,15:52:32.729,-457,-316,-202,235,418,336,256,112,-77,-281,-411,-456,-561,-544,-500,-480,-472,-485,-382,-352,-381,-436,-526,-506,-511,-580,-512,-437,-442,-433,-366,-324,-206,-143,-159,-191,-701,-990,163,2252,3377,1266,-584,-511,-569,-711,-657,-529,-446,-371,-265,-216,-80,-135,-32,-2,-216,-213,25,161,18,-183,187,460,405,138,-46,-80,-133,-234,-112,-122,-201,-346,-265,-249,-356,-311,-154,-66,-142,-52,-51,-68,0,40,183,265,234,259,294,330,212,276,82,-612,-630,828,3236,4182,1230,127,383,4,-307,-324,-264,-295,-325,-262,-266,-248,-247,-190,-121,-85,-86,-8,113,99,133,158,132,81,10,-120,-263,-347
2018-05-17,15:52:33.766,-344,-343,-317,-294,-268,-229,-193,-215,-283,-226,-185,-244,-243,-209,-145,-50,-13,13,58,184,335,270,263,51,-215,439,-30,-573,538,2877,3774,1041,-149,-98,-394,-664,-571,-406,-405,-531,-502,-373,-449,-452,-411,-491,-531,-264,-316,-212,-178,-50,23,46,193,97,0,114,41,-176,-187,-38,-110,-211,-21,58,97,94,215,324,296,60,-120,-67,-43,-60,53,74,-19,-22,-3,-27,-48,-13,-18,-308,-987,-764,1022,3363,3110,-113,-816,-607,-707,-688,-647,-549,-437,-374,-269,-245,-255,-275,-309,-297,-337,-256,-156,-65,-22,13,82,84,422,428,464,184,-152,-339,-302,-221,-360,-282,-199,-167,-144,-202
2018-05-17,15:52:34.803,-79,38,-34,-121,-157,-10,84,19,-9,-28,-40,-31,-154,-178,-196,-497,-862,36,2034,3427,1474,-448,-153,-235,-380,-398,-297,-305,-302,-326,-130,-110,-371,-117,155,185,211,420,685,829,716,621,643,649,521,253,-33,-214,-254,-203,-188,-119,-153,-73,-62,-157,-268,-434,-475,-522,-466,-480,-475,-331,-183,-123,-89,-14,32,66,101,157,20,-569,-968,125,2128,3464,1117,-491,-312,-477,-726,-644,-417,-381,-171,92,63,13,-40,-181,-15,-3,-212,153,278,313,287,114,212,151,15,-228,-307,-258,-217,-235,-290,-314,-395,-494,-104,-197,-244,-87,-297,-575,-271,-182,-291,12,134,43,65,-45,-130,-105
2018-05-17,15:52:35.840,52,2,-37,-781,-854,777,3682,4143,1024,148,0,-441,-593,-593,-619,-587,-540,-454,-394,-396,-259,-143,-19,38,7,-12,-11,-109,-71,-90,-102,-120,-165,-219,-291,-319,-322,-326,-290,-235,-185,-177,-139,-171,-242,-285,-339,-331,-294,-249,-209,-196,-45,61,500,421,153,-140,-230,-29,-136,-683,-1091,14,2824,4136,1436,-591,-448,-452,-581,-530,-490,-535,-308,-98,-282,-511,-420,-277,-410,-278,-173,-288,-197,-123,-82,52,287,304,259,73,-51,-22,43,-112,-192,-85,-63,-151,68,182,260,491,565,526,355,193,97,99,159,195,115,84,79,68,70,107,186,62,-627,-767,829,3369,3950,501,-814,-606
2018-05-17,15:52:36.878,-703,-823,-738,-621,-566,-505,-432,-425,-369,-309,-308,-345,-337,-303,-302,-226,-134,-85,26,109,8,101,-57,119,167,21,57,-37,318,194,191,19,-166,-27,243,227,-61,-209,42,193,85,87,46,-89,-149,-231,-152,-50,-408,-1119,-711,849,2776,2790,-80,-578,-407,-486,-483,-424,-467,-405,-433,-481,-512,-555,-366,-251,-346,-263,64,167,196,837,1006,882,802,489,285,87,0,6,-97,-186,-186,-157,-170,-150,-131,-150,-189,-275,-388,-402,-389,-344,-308,-239,-161,-130,-66,-5,58,50,124,-116,-831,-385,1334,3392,2961,93,-350,-307,-482,-470,-379,-282,-251,-208,-122,218,275,129,-10,-225,-333,-77
2018-05-17,15:52:37.915,133,501,411,124,607,796,715,436,221,22,34,172,246,47,18,160,95,-17,-111,-162,-120,-53,21,111,125,197,294,328,248,347,327,368,359,324,110,-542,-679,678,2752,3733,1288,-81,259,116,-109,-313,-339,-228,-237,-264,-325,-299,-254,-262,-208,-176,-152,-111,-57,-6,-65,11,109,-1,-142,-275,-413,-465,-473,-506,-499,-461,-469,-510,-450,-481,-507,-478,-536,-532,-565,-541,-436,-439,-367,-345,-178,-83,-209,-237,44,-73,-420,-1173,-880,980,3655,3318,-446,-897,-508,-666,-810,-780,-656,-760,-753,-618,-534,-577,-661,-707,-668,-759,-675,-521,-439,-340,-222,-184,-128,-41,-38,-36,-174,-355,-184,-220
2018-05-17,15:52:38.952,-271,-250,-373,-389,-439,-212,-196,-285,-3,186,119,120,445,551,432,267,108,100,175,186,85,-24,-285,-1119,-1125,940,4233,4722,577,-899,-703,-922,-1045,-1006,-996,-998,-912,-841,-805,-816,-747,-632,-566,-477,-421,-350,-253,-167,-113,-107,-45,-18,-135,-341,-388,-276,-190,-236,-211,-57,-340,-327,-464,-362,-228,-200,-395,-630,-269,-22,-92,-166,-47,-121,-50,101,55,41,-28,-129,-502,-1133,-575,1299,3283,2331,-155,-216,-440,-665,-529,-485,-468,-421,-385,-290,-234,-263,-354,-242,-105,-280,-498,26,283,284,508,681,830,806,508,220,85,-13,-110,-178,-182,-188,-184,-166,-228,-257,-273,-330,-285,-184,-162,-143
2018-05-17,15:52:39.989,-45,-76,-111,-145,-90,-71,-22,-49,-304,-834,-515,1061,3313,3394,293,-415,-302,-488,-544,-524,-502,-609,-433,-323,-368,-331,82,104,-50,-130,-173,76,102,159,336,243,210,133,219,61,-146,-291,-416,-390,-284,-281,-340,-433,-413,-408,-325,-263,-413,-415,-214,-148,-92,-103,-84,-122,50,127,99,60,43,-137,-795,-644,844,3058,3330,617,-101,79,-90,-167,406,374,197,9,-198,-260,-171,-49,-18,9,54,120,219,370,466,473,434,358,208,10,-202,-398,-517,-558,-546,-525,-479,-448,-467,-439,-410,-332,-301,-254,-187,-214,-192,-144,-120,-114,-116,-77,-27,-1,41,9,99,-235,-823,10,2650,5045
2018-05-17,15:52:41.026,2812,-649,-582,-465,-635,-652,-516,-423,-458,-304,-273,-332,-258,-118,-194,-266,-229,-227,-275,-186,-9,9,205,330,275,190,94,-11,-105,-125,-9,86,-22,-310,-262,-40,-130,-117,-38,-137,-277,22,184,125,48,234,537,461,244,239,199,110,-192,-1023,-768,1323,4356,4221,192,-744,-503,-686,-719,-646,-613,-640,-639,-642,-630,-637,-593,-527,-508,-456,-343,-297,-197,-58,82,134,200,225,80,-84,-74,10,-162,-287,-347,-433,-241,-39,265,93,-69,-281,-465,-384,-420,-25,51,-83,152,190,48,-30,10,45,87,53,-70,-750,-783,631,2779,2765,183,-552,-395,-474,-489,-513,-557,-540,-494,-404,-295,-401
2018-05-17,15:52:42.063,-308,-114,-141,-179,-59,2,158,52,174,238,479,635,626,607,769,638,284,63,-46,19,-5,-26,-40,-183,-213,-237,-252,-193,-130,-35,37,-35,-71,-174,-261,-273,-274,-289,-346,-917,-1096,239,2609,3807,1115,-522,-277,-487,-619,-610,-590,-607,-611,-581,-541,-529,-463,-428,-405,-360,-158,-239,3,440,491,342,529,504,370,101,-123,18,-251,-114,118,-2,-5,-204,-351,-148,-178,-323,-325,-337,-371,-313,-195,-37,49,57,-114,86,142,133,66,-565,-1004,26,1879,3418,1717,-359,-234,-439,-706,-604,-358,-319,-255,-196,-109,54,218,265,3,-206,-144,-6,94,200,245,419,476,308,178,10,-188,-323
2018-05-17,15:52:43.101,-321,-394,-441,-459,-484,-577,-647,-643,-626,-574,-504,-444,-365,-290,-176,-83,-45,-79,-65,-138,-103,-84,-61,-100,-714,-997,121,2045,3700,1573,-119,39,-131,-462,-852,-882,-478,-257,-311,-368,-354,-307,-308,-163,-176,-186,-166,-67,106,144,228,246,231,66,-28,-113,-102,-173,-180,-138,-134,-155,-216,-230,-111,-102,-32,-89,-186,-65,85,-69,126,143,-97,-201,21,311,328,315,103,-543,-273,1702,4442,4053,270,-476,-432,-666,-699,-610,-542,-548,-401,-278,-237,-226,-193,-260,-350,-312,-320,-380,-282,-157,-89,35,99,151,141,26,-46,-78,-109,-177,-168,-197,-279,-335,-328,-342,-342,-369,-264,-210,-228,-155
2018-05-17,15:52:44.138,251,256,210,90,296,255,415,327,128,-107,-662,-782,486,2987,3944,973,-461,-381,-539,-595,-671,-656,-671,-851,-784,-368,-292,-298,-413,-472,-660,-513,-284,-150,-155,21,131,318,303,87,134,200,-156,-144,57,170,-122,-18,451,963,773,677,348,123,191,310,302,424,550,551,490,446,537,526,593,576,294,-707,-646,1033,3529,4129,875,-428,-62,-247,-344,-213,-166,-121,-62,-82,-56,-40,-125,-93,-155,-141,-147,-137,27,117,183,195,348,509,390,235,-209,-458,-429,-333,-452,-346,-214,-150,-366,-324,-370,-343,-367,-472,-72,-35,16,2,-93,24,18,-91,-70,-281,-615,-1077,-303,1749,3558,1869
2018-05-17,15:52:45.175,-648,-397,-393,-645,-724,-516,-371,-418,-447,-420,-460,-400,-371,-228,-136,-100,53,329,434,494,418,411,474,247,-7,-268,-439,-466,-495,-506,-567,-574,-582,-603,-577,-628,-670,-626,-695,-624,-552,-463,-392,-391,-337,-249,-165,-174,-192,-269,-853,-1131,87,2206,3386,847,-664,-553,-709,-715,-684,-692,-742,-330,-209,-402,-484,-236,-303,-540,-370,-265,-201,-268,-236,-26,61,313,176,6,-155,-347,-394,-331,-281,-376,-417,-283,-351,-462,-323,-315,-264,-179,-232,-131,-149,203,170,87,87,111,159,155,161,0,-801,-872,729,3279,3880,717,-368,-202,-354,-333,-234,-191,-192,-250,-110,-120,-221,-198,-164,-213,-282,-213
2018-05-17,15:52:46.212,-246,-233,-51,13,14,81,89,-87,-252,-295,-287,-340,-374,-318,-295,-322,-326,-279,-288,-269,-278,-254,-237,-199,-67,11,-16,54,115,145,58,230,433,336,-463,-1126,385,3283,4667,1646,-582,-418,-312,-312,-433,-492,-672,-503,-384,-480,-411,-403,-506,-509,-456,-383,-448,-481,-290,-99,-66,163,194,-24,-76,-4,-38,-148,-156,-238,-283,-244,-207,-268,-389,-118,-21,-201,-106,-95,-52,69,156,150,132,102,54,29,50,-4,-249,-1168,-1232,827,3892,4432,503,-969,-707,-940,-946,-829,-793,-796,-738,-606,-598,-639,-589,-512,-503,-468,-345,-266,-210,-184,-42,46,31,26,29,-87,-310,-251,3,-111,-92,167
2018-05-17,15:52:47.249,283,165,-49,108,139,50,-58,-91,-32,-40,7,175,335,151,63,-6,-47,-118,-255,-785,-997,97,2339,3021,462,-653,-259,-321,-391,-341,-544,-665,-399,-259,-305,-334,-267,-252,-265,-286,-358,-154,64,212,396,418,552,719,825,553,225,174,149,99,73,8,-150,-164,-127,-202,-166,-154,-194,-128,-62,-42,-25,-60,-73,-105,-99,-115,-43,-225,-829,-539,1116,3539,3608,207,-223,-147,-357,-460,-479,-433,-443,-452,-425,-379,-367,-195,-64,-101,19,-63,-219,-166,436,452,719,463,294,-48,-116,-124,-169,-76,-120,-142,-200,-232,-191,-281,-402,-463,-360,-334,-300,-213,-3,-37,-198,-162,-99,-139,277,196
2018-05-17,15:52:48.287,-264,-905,-716,633,2586,3203,562,-271,-159,-305,-222,-195,-121,-1,294,401,311,156,-79,-122,-25,69,14,141,253,317,378,618,519,285,41,-152,-261,-487,-596,-514,-537,-530,-540,-553,-558,-516,-430,-420,-395,-314,-224,-57,-49,-119,-105,-166,-39,-66,-136,-276,-868,-1294,-113,2412,3830,1244,-330,247,-149,-417,-873,-1340,-967,-544,-597,-399,-363,-377,-204,-286,-302,-187,-158,-68,33,78,151,67,28,86,-35,-117,-131,-251,-431,-456,-270,-435,-423,-241,-177,-173,-145,-215,-353,37,211,96,-38,-45,121,265,326,198,-411,-754,-31,1521,3581,5076,2531,-429,-253,-310,-571,-640,-638,-625,-509,-399,-379,-321
2018-05-17,15:52:49.324,-271,-182,-142,-166,-220,-205,-185,-155,-56,-25,52,111,69,-59,-132,-143,-148,-167,-163,-145,-164,-156,-271,-348,-323,-322,-344,-273,-296,-137,55,188,306,98,338,285,410,288,-4,-905,-1149,1105,4268,4115,311,-440,-323,-564,-707,-465,-432,-336,-284,-319,-389,-382,-496,-635,-288,-127,-88,-58,-123,-258,-22,299,558,506,323,-49,26,207,341,105,22,7,190,142,187,37,310,579,789,875,789,634,496,397,389,368,274,301,269,172,-265,-963,-230,2257,4803,3526,-311,-522,-528,-684,-742,-724,-654,-578,-531,-475,-419,-386,-332,-268,-221,-183,-122,-88,-23,27,47,5,48,-4,-165,-305,-422,-466
2018-05-17,15:52:50.361,-221,-132,-536,-85,166,-127,-502,-852,-1034,-1108,-743,-48,-144,-314,-72,-46,-136,-209,-71,-39,-230,-916,-1038,300,2467,3189,122,-633,-407,-633,-508,-483,-549,-531,-376,-482,-538,-386,-351,-314,-312,-266,-255,-184,-20,139,-68,8,247,427,458,361,295,346,443,333,147,-59,-201,-196,-192,-315,-374,-293,-228,-84,24,103,-7,-11,-18,-137,-202,-254,-558,-1266,-887,816,3130,2923,-176,-455,-431,-578,-598,-526,-445,-430,-468,-518,-527,-519,-502,-525,-492,-515,-496,-186,-36,85,469,615,482,104,36,124,144,-86,-249,-48,-125,-347,-141,-286,-307,-276,-325,-240,-145,-131,-243,-316,-425,-289,-233,25,36,-539
2018-05-17,15:52:51.398,-1168,-902,473,2814,2914,48,-464,-335,-539,-557,-380,-550,-599,-584,-669,-492,-513,-8,142,67,211,409,524,508,392,414,477,483,425,180,-57,-111,-179,-229,-216,-205,-272,-310,-378,-477,-582,-652,-668,-561,-423,-381,-365,-231,-149,-172,-77,18,32,-408,-1053,-391,1610,3564,2338,-331,-462,-475,-603,-616,-410,-381,-156,-112,-322,-395,-626,-554,-89,-7,-241,-191,42,162,223,308,219,263,212,-46,-191,-279,-96,-70,-179,-256,-298,-370,-446,-319,-296,-407,-218,-45,12,10,40,131,170,202,154,168,64,-445,-791,52,2117,3869,2140,-211,-202,-32,-114,-28,-53,-86,-80,-151,-287,-274,-184,-170,-203,-180
2018-05-17,15:52:52.435,-127,-118,-17,140,150,233,303,286,128,64,-12,-145,-194,-232,-208,-170,-223,-210,-209,-198,-148,-95,-58,-17,84,80,79,140,162,274,229,145,86,-267,-571,343,2412,4346,2671,-45,-206,-177,-406,-331,-175,-128,-40,-47,-18,-26,-22,-30,15,-10,-70,-18,140,116,195,228,296,297,246,156,-1,-51,34,25,5,29,79,96,-36,118,372,256,-64,-5,209,209,271,252,275,297,447,553,553,103,-685,-270,2225,5129,3960,-167,-819,-749,-875,-841,-791,-758,-790,-764,-725,-749,-767,-751,-738,-754,-717,-596,-490,-394,-277,-171,-38,28,22,-48,-209,-335,-364,-390,-457,-521,-539,-520,-564,-483
2018-05-17,15:52:53.473,-439,-464,-260,-23,-261,-285,-578,-206,-75,-25,-35,-204,-312,-344,-497,-1241,-742,1267,3383,2548,-312,-579,-771,-847,-709,-659,-834,-682,-655,-789,-574,-471,-568,-542,-548,-567,-392,-243,-220,-199,-98,-6,-7,99,36,-289,-34,-50,-357,9,257,42,-222,-375,-373,-422,-502,-377,-260,-129,-102,-196,-164,-134,-112,-95,-125,-154,-609,-1210,-440,1581,3295,1852,-475,-447,-512,-655,-625,-531,-478,-393,-381,-368,-364,-426,-472,-475,-458,-400,-294,-252,-122,-77,-41,370,484,326,316,310,143,-218,-551,-434,32,35,-268,-586,-260,92,180,51,103,137,79,73,83,168,124,-19,-80,-410,-1101,-461,1262,3149,2244,-183
2018-05-17,15:52:54.510,-230,-260,-401,-518,-486,-241,-129,-209,-167,-128,-288,-225,-33,-133,10,215,403,563,694,844,969,693,352,252,199,138,112,-30,-118,-108,-97,-111,-138,-182,-215,-220,-230,-229,-202,-195,-208,-220,-218,-201,-169,-94,-346,-1047,-493,1475,3809,3046,-250,-367,-322,-529,-621,-614,-591,-495,-468,-473,-431,-373,-368,-427,-240,-172,-63,327,276,277,283,276,232,396,436,184,124,43,-43,27,-117,-256,-401,-223,-133,-141,-307,-217,-150,-161,-62,17,-107,-77,84,139,48,-159,-511,-958,113,2063,3674,1511,-123,-215,-360,-458,-328,-102,-294,-209,-191,-85,-78,-72,256,617,408,63,95,296,472,549,635,586
2018-05-17,15:52:55.547,480,334,193,119,42,-47,-132,-194,-245,-377,-426,-390,-397,-428,-398,-368,-280,-144,-90,-5,53,49,101,142,121,52,-543,-994,130,2333,3649,1264,-444,-348,-438,-666,-373,-193,-134,-132,-109,-192,-415,-733,-516,-373,-98,-209,-327,-158,-45,-102,121,177,127,2,-203,31,29,-2,-177,-356,-308,-241,-336,-319,-388,-283,-86,-156,-281,-64,68,116,90,72,46,217,306,-75,-727,-923,337,2718,4026,1256,-159,139,66,-222,-362,-356,-375,-402,-437,-456,-409,-340,-331,-335,-279,-256,-168,-111,-28,50,35,40,26,-113,-236,-330,-430,-436,-352,-352,-389,-408,-379,-374,-349,-340,-310,-242,-167,-94,-47,-110
2018-05-17,15:52:56.584,-81,-108,-123,19,47,295,-290,-851,228,2863,4766,2282,-412,-394,-529,-750,-648,-605,-398,-503,-633,-433,-306,-390,-422,-435,-416,-467,-364,-462,-393,-124,89,109,197,224,-112,-272,-49,-74,-134,-81,-17,-101,-127,-157,-225,-190,-185,-102,-85,62,259,274,380,585,668,561,356,230,-150,-1060,-771,1798,5086,4454,96,-744,-609,-700,-646,-636,-684,-659,-647,-604,-623,-624,-635,-608,-593,-545,-477,-385,-275,-129,-3,141,197,132,-36,-193,-303,-367,-431,-450,-492,-509,-528,-446,-389,-318,-301,-253,71,211,143,91,-46,-478,-294,290,131,-165,-60,-121,-920,-943,990,3826,4091,446,-656,-516,-675,-761,-741,-756
2018-05-17,15:52:57.621,-705,-666,-621,-619,-537,-471,-471,-502,-449,-388,-296,-205,-109,-59,166,318,91,-203,-207,-136,-196,-116,-28,-100,-136,-101,-33,42,-85,58,105,85,39,1,67,100,110,63,-35,7,-52,-89,-618,-1145,6,2493,4159,1538,-779,-577,-663,-805,-800,-696,-625,-551,-484,-469,-454,-409,-401,-399,-328,-288,-297,-253,-157,-82,70,115,92,-48,-137,-171,45,45,100,201,179,-27,-297,-380,-262,-228,-176,-321,-73,42,188,214,104,40,19,105,86,16,-606,-951,108,2309,3128,671,-483,-236,-457,-554,-440,-354,-322,-266,-245,-251,-166,-350,-240,72,4,-103,-127,-177,-65,293,417,381,480,508,542,498
2018-05-17,15:52:58.658,460,474,215,16,199,302,247,113,-11,-58,12,96,163,223,237,240,219,179,150,139,97,-243,-945,-576,1291,3615,3002,-191,-298,-245,-407,-429,-400,-358,-320,-298,-280,-289,-342,-323,-346,-201,-135,-108,-90,-11,61,55,144,721,691,442,167,-59,-74,-157,-179,-333,-170,132,-42,-236,-160,-115,-105,-138,-143,-37,-30,-24,90,8,-82,-91,-240,-807,-837,373,2535,3506,680,-401,-372,-590,-669,-506,-394,-410,-479,-511,-424,-483,-617,-634,-557,-371,-236,-206,-76,130,199,261,230,195,173,-4,-132,-223,-274,-245,-196,-288,-336,-285,-266,-262,-244,-247,-118,-58,-72,-128,-149,-184,-216,-302,-260,-216
2018-05-17,15:52:59.696,-588,-1241,-455,1729,3894,2534,-344,-417,-433,-595,-614,-609,-598,-554,-522,-505,-613,-609,-378,-234,-324,139,312,185,4,-142,-50,-18,19,-211,-253,-49,-53,-286,-209,-203,-277,-295,-360,-345,-298,-389,-483,-311,-179,-238,-304,-244,99,201,-24,-99,16,-32,-148,-703,-612,885,2849,3279,421,-412,-269,-505,-539,-198,-76,-167,39,185,155,84,-70,-148,-105,-37,19,155,277,332,406,432,467,346,105,-73,-239,-290,-309,-399,-459,-455,-495,-503,-540,-518,-488,-399,-289,-237,-174,-66,-48,-25,46,60,32,69,5,-403,-1049,-307,1744,3715,2405,-311,-445,-227,-225,-352,-407,-420,-425,-483,-250,-239,-194,-219
2018-05-17,15:53:00.733,-374,-79,-50,-206,-168,-42,-1,-25,28,83,125,62,-79,-233,-153,-255,-381,-354,-200,-111,-305,-517,-293,-116,-153,-10,104,112,90,78,138,82,100,283,207,-178,-753,-261,1825,4533,3775,229,-174,-197,-313,-397,-463,-442,-387,-380,-271,-243,-201,-169,-152,-193,-192,-160,-112,-17,86,176,236,268,229,126,92,112,121,69,85,60,11,70,133,151,242,211,190,249,321,263,263,359,341,357,345,288,251,266,-62,-814,-577,1579,4409,4079,187,-588,-436,-570,-538,-469,-459,-456,-432,-426,-399,-361,-330,-289,-281,-260,-194,-129,-118,-122,-83,-8,22,-143,-398,-469,-439,-415,-443,-394,-430,-421
2018-05-17,15:53:01.770,-382,-401,-401,-375,-364,-395,-347,-290,-218,-141,-133,-137,-190,-177,-148,-138,-179,-533,-1194,-661,1472,3735,2639,-444,-619,-620,-736,-777,-738,-674,-613,-576,-557,-547,-511,-494,-510,-500,-463,-375,-336,-295,-183,-59,21,26,14,-63,-111,-147,-134,-196,-163,-146,-197,-236,-231,-214,-252,-221,-210,-152,-70,-14,31,18,-3,18,46,47,45,-118,-856,-927,682,3563,4378,597,-639,-521,-665,-719,-707,-644,-595,-576,-539,-526,-511,-492,-496,-535,-494,-394,-384,-307,-180,-107,18,122,90,9,-61,-134,-155,-157,-165,-257,-256,-150,-144,-145,-137,-153,-128,-76,-24,43,74,85,108,82,50,-18,114,89,-313,-1025
2018-05-17,15:53:02.807,-288,2089,4134,2553,-369,-596,-485,-607,-477,-410,-522,-573,-391,-393,-511,-596,-360,-442,-575,-337,-147,31,27,33,91,113,79,109,-30,123,106,-170,-45,102,155,191,243,257,266,213,34,-55,-34,46,104,147,136,124,151,168,223,220,105,-614,-692,1077,3773,4341,565,-699,-468,-584,-621,-606,-572,-493,-420,-404,-346,-320,-276,-70,-45,-117,-54,62,182,292,342,445,492,427,311,193,125,80,65,51,20,21,60,92,98,65,91,160,190,319,339,404,427,367,234,312,613,545,328,-515,-414,1369,3907,4154,561,-246,-183,-89,-243,-112,108,155,-200,-254,-283,-407,-401,-253,-210,-359
2018-05-17,15:53:03.844,-224,-125,-609,-382,111,129,-39,-119,-253,-368,-473,-535,-546,-562,-598,-593,-648,-520,-495,-544,-487,-433,-413,-354,-281,-243,-243,-244,-237,-246,-258,-284,-527,-1192,-820,801,2800,2128,-478,-538,-438,-739,-803,-728,-662,-471,-537,-517,-449,-426,-454,-516,-531,-544,-520,-475,-429,-360,-296,-254,-244,-359,-524,-557,-549,-565,-577,-592,-602,-557,-521,-569,-629,-542,-393,-352,-258,-249,-316,-294,-86,-110,-49,-49,-63,-98,-526,-1182,-464,2262,4785,3121,-478,-838,-794,-822,-791,-779,-755,-753,-661,-701,-585,-561,-571,-558,-551,-457,-404,-298,-139,-50,-52,15,40,-61,-95,-105,-173,-190,-168,-192,-171,-160,-176,-106,-92,-87
2018-05-17,15:53:04.882,-43,-9,34,100,157,202,203,190,168,184,210,192,137,-457,-905,409,3322,4981,1877,-518,-346,-444,-545,-510,-474,-451,-434,-386,-339,-322,-312,-286,-268,-245,-177,-123,-88,66,161,183,179,174,77,-49,-133,-96,-86,-75,-71,-85,-142,-165,-134,-121,-73,-28,17,55,154,219,227,220,194,187,186,226,238,-245,-909,-59,2302,4430,2390,-306,-337,-441,-546,-536,-372,-339,-388,-294,-334,-325,-333,-404,-535,-385,-220,-275,-221,-126,-29,30,85,115,91,25,-30,-24,-136,-198,-169,-216,-160,-45,-129,-114,-79,-101,-121,-93,87,136,17,-20,61,7,0,17,53,-120,-766,-844,623,3140,3198,257
2018-05-17,15:53:05.919,-411,-370,-507,-525,-524,-459,-546,-502,-383,-348,-395,-303,-311,-332,-351,-274,-183,-55,-16,94,280,264,181,192,223,55,24,53,39,92,123,135,210,253,138,146,302,335,262,354,352,341,515,430,307,347,274,215,-197,-758,377,3013,4268,1362,-149,7,-178,-459,-263,-140,-299,-184,-233,-107,-129,-135,-233,-180,-141,-210,49,175,237,200,149,198,316,136,-161,-251,-232,-219,-105,-169,-311,-442,-420,-278,-125,-400,-289,-94,-18,13,-192,-170,-126,-31,-74,-106,32,-108,-706,-1149,77,2252,3577,945,-570,-571,-667,-791,-782,-520,-597,-617,-635,-601,-475,-474,-424,-317,-376,-347,-63,19,128,31
2018-05-17,15:53:06.956,87,211,104,23,-177,-324,-288,-341,-361,-249,-230,-383,-340,-218,-178,-250,-148,-70,126,-126,-144,151,10,-43,112,111,74,152,-445,-1054,-27,2510,3857,1446,-487,-291,-456,-587,-490,-573,-549,-463,-323,-326,-465,-339,-129,-273,-321,-167,-75,44,133,246,456,196,90,81,-23,-153,-80,-125,-201,-89,-140,-174,-56,-3,-137,-63,-5,69,119,270,274,329,341,455,370,216,376,340,156,-404,-400,1377,3933,3969,638,-135,64,-86,-157,-192,-146,-18,-151,-40,96,179,60,51,134,232,379,357,447,577,658,647,568,468,287,255,377,161,62,170,112,99,136,69,40,1,16,169,157,51
2018-05-17,15:53:07.993,155,167,187,177,79,121,197,78,86,28,-377,-1169,-515,1910,4573,3157,-219,-565,-827,-1023,-960,-913,-900,-903,-866,-869,-806,-836,-826,-780,-637,-629,-856,-593,-283,-298,-264,-175,-239,-360,-502,-564,-536,-497,-497,-517,-623,-658,-612,-581,-500,-553,-569,-450,-519,-461,-424,-354,-222,-154,-256,-210,-166,-200,-281,-279,-441,-1107,-1011,1011,3855,3347,-294,-785,-724,-947,-946,-870,-775,-717,-709,-686,-667,-642,-612,-579,-480,-480,-381,-197,-70,67,188,122,130,-43,-244,-201,-163,-188,-188,-192,-202,-213,-265,-220,-147,-129,-122,-39,43,35,41,68,156,209,245,212,239,256,278,306,256,243,7,-747,-741,1263
2018-05-17,15:53:09.030,4534,4451,548,-434,-368,-641,-693,-650,-630,-550,-479,-454,-434,-456,-447,-433,-392,-385,-310,-223,-161,-47,65,159,146,-1,-170,-193,-285,-242,-204,-288,-248,-307,-277,-258,-385,-288,-332,-360,-293,-242,-214,-221,-228,-174,-71,-37,-162,-67,-137,-123,-129,-104,-108,-218,-870,-1219,213,3362,4320,1066,-708,-733,-830,-929,-861,-789,-750,-723,-684,-580,-563,-621,-496,-466,-551,-393,-300,-197,-209,57,137,40,-58,-168,-239,-207,-176,-156,-272,-256,-157,-201,-343,-285,-196,-191,-196,-126,-90,3,68,17,11,61,28,85,89,100,80,109,82,109,65,99,90,-101,-743,-795,758,3747,4049,492,-565,-413,-477,-496
2018-05-17,15:53:24.720,111,54,-15,-103,-133,-89,-137,-122,-125,-131,-185,-136,-149,-132,-108,-64,11,39,-9,-30,24,80,-8,-241,-337,-622,-1634,-1168,878,3738,3026,-1074,-1619,-1162,-1128,-1061,-542,-546,-877,-779,-789,-929,-1035,-719,-543,-919,-1069,-637,-383,-570,-649,-512,-481,-350,-233,-289,-339,-324,-314,-271,-176,-129,-147,-236,-185,-110,-91,-75,-32,121,196,175,185,229,241,269,237,233,-94,-810,-189,2106,4340,2635,-440,-631,-571,-656,-616,-511,-409,-358,-325,-296,-257,-298,-366,-381,-418,-417,-399,-322,-213,-107,-41,0,-22,-43,13,155,145,-145,-236,24,-312,-586,-357,53,421,453,-3,-303,163,77,-333,-215,438,211
2018-05-17,15:53:25.758,-583,-365,-362,-824,-1251,-442,2075,3762,1358,-854,-413,-519,-593,-448,-240,-291,-343,-361,-335,-187,-139,-159,-103,-91,-79,-49,3,123,214,307,352,314,275,312,393,404,385,406,414,456,519,527,521,514,545,594,683,846,879,838,847,841,742,693,601,424,-414,-563,1104,3864,4716,867,-381,-317,-497,-553,-460,-314,-334,-775,-749,-480,-674,-677,-524,-642,-462,-379,-708,-694,-420,-213,-84,-312,-410,-591,-670,-497,-517,-566,-576,-606,-675,-648,-651,-752,-604,-420,-264,-499,-411,-193,-201,-301,-257,-176,-172,-152,-455,-954,-324,1680,3630,2078,-518,-649,-605,-610,-552,-509,-483,-425,-377,-360,-331,-293,-256,-243
2018-05-17,15:53:26.795,-220,-210,-166,-112,-40,47,104,127,-10,-63,4,42,17,28,16,-41,-86,-117,-164,-237,-243,-203,-132,-84,-43,-85,-38,78,54,42,-253,-247,-351,-1221,-914,1630,4605,4015,14,-928,-742,-603,-700,-948,-889,-783,-787,-771,-845,-886,-806,-931,-1001,-957,-821,-785,-711,-580,-403,-370,-449,-320,-269,-263,-181,-105,-75,-34,35,71,55,63,71,133,123,168,351,420,349,342,428,474,559,581,550,240,-450,307,2551,4866,3343,167,83,58,-107,-132,-139,-103,-76,-42,11,34,3,-40,-89,-184,-205,-168,-149,-101,-50,-3,9,3,10,-210,-117,-35,-356,-502,-335,-176,-244,-273,-425,-442,-250,-89
2018-05-17,15:53:27.832,-233,-218,-110,-282,-507,-165,77,-220,-530,-663,-1221,-1391,-141,2185,2927,139,-999,-814,-1072,-1049,-886,-785,-687,-701,-599,-547,-638,-525,-423,-381,-315,-239,-153,-106,-30,123,199,216,186,163,183,184,212,295,312,336,388,405,417,334,386,480,573,662,719,661,591,578,555,541,508,440,14,-672,132,2772,5117,3076,-320,-409,-392,-599,-575,-498,-498,-444,-414,-384,-467,-418,-417,-566,-447,-503,-422,-271,-231,-25,-60,28,218,-34,-222,39,90,26,11,-86,-192,-342,-370,-473,-392,-226,-153,-120,-93,-138,-220,-256,-101,-27,-57,-40,-27,-329,-925,-262,1618,3471,2152,-191,-223,-345,-446,-365,-347,-340
2018-05-17,15:53:28.869,-266,-259,-203,-204,-264,-259,-242,-194,-135,-112,-41,82,239,299,253,196,107,133,104,152,147,80,115,105,133,93,84,75,47,110,155,188,282,278,215,192,183,196,184,126,-552,-991,403,3013,4542,890,-859,-534,-643,-694,-856,-883,-702,-785,-822,-734,-819,-758,-839,-943,-940,-1093,-922,-558,-581,-620,-172,-202,-678,-608,-494,-517,-448,-329,-367,-504,-562,-537,-562,-428,-388,-439,-321,-134,-70,-144,-158,-104,1,82,-80,-107,-90,-588,-645,827,3382,3598,358,-478,-308,-405,-479,-445,-375,-349,-383,-349,-287,-308,-275,-346,-352,-310,-219,-155,-95,-10,199,148,69,118,171,194,200,169,171,149
2018-05-17,15:53:29.869,156,140,116,138,136,118,105,142,156,219,353,396,420,344,339,323,187,144,-251,-753,315,3095,5153,2007,-700,-279,-285,-307,-114,-329,-570,-472,-296,-191,-457,-436,-478,-500,-367,-361,-515,-343,-116,-108,-167,-122,-103,66,-116,-144,-67,-2,58,89,-84,-103,11,-58,-80,48,43,175,125,155,246,191,233,217,242,200,122,-339,-665,498,2553,4081,1027,-287,-112,-283,-308,-154,-144,-404,-393,-225,-377,-474,-460,-416,-436,-489,-509,-455,-326,-247,-170,-115,-138,-177,-252,-290,-314,-373,-339,-328,-421,-417,-365,-569,-553,-492,-433,-395,-301,-167,-56,-64,-178,-279,-209,-81,-170,-202,-341,-1299,-829,1208
2018-05-17,15:53:30.906,3850,2961,-817,-1126,-820,-877,-932,-1059,-935,-933,-965,-812,-770,-994,-969,-837,-789,-889,-738,-607,-448,-246,-118,-166,-215,-148,-38,18,43,37,127,57,46,49,50,57,102,100,200,185,195,299,383,391,352,500,432,296,421,514,374,-433,-9,1899,4586,3828,214,-107,-10,-214,-248,-210,-166,-178,-217,-230,-254,-271,-309,-401,-446,-490,-497,-405,-285,-138,11,182,51,-68,-116,-192,-274,-1,-27,-148,46,-201,-497,-252,-113,-4,-92,-163,34,-111,-172,18,42,-77,-73,-158,-190,-159,-666,-985,61,1808,3178,620,-732,-328,-556,-834,-686,-557,-534,-543,-329,-275,-516,-550,-459,-362,-442,-389,-163,-174
2018-05-17,15:53:31.943,86,31,133,156,109,57,27,-23,-15,45,105,9,-161,9,107,-10,10,44,87,165,212,302,405,409,395,447,528,481,381,354,-40,-663,154,2380,4546,2475,-337,-406,-388,-478,-471,-387,-276,-312,-507,-418,-372,-376,-443,-450,-416,-180,-149,-297,-154,144,223,139,348,488,176,337,474,-53,-130,364,268,132,275,271,171,142,260,63,3,213,286,271,328,51,-194,-122,160,152,-564,-1002,-118,1894,3183,1178,-480,-219,-432,-528,-476,-381,-437,-270,-269,-330,-386,-368,-383,-276,-330,-302,-246,-99,-79,-217,-75,-10,-39,-93,-109,-27,-7,-64,48,2,22,94,148,177,137,106,152,225
2018-05-17,15:53:32.980,257,327,303,247,229,211,180,121,85,33,-537,-1045,129,2463,4011,964,-793,-488,-576,-1056,-1048,-843,-825,-725,-746,-972,-910,-874,-936,-796,-725,-841,-737,-764,-597,-115,-250,-540,-463,-281,-344,-530,-425,-482,-671,-492,-376,-467,-559,-616,-686,-549,-299,-362,-610,-396,-180,-180,-113,1,-276,-160,-147,-80,-395,-877,-151,1817,3437,1554,-445,-375,-307,-398,-511,-329,-277,-235,-358,-285,-141,-182,-254,-219,-100,-126,-184,-42,118,228,221,202,275,265,217,241,229,225,226,233,152,160,153,131,105,64,99,40,90,178,277,302,270,130,151,141,114,120,-70,-990,-749,1392,4083,3785,-72,-773,-573,-454
2018-05-17,15:53:34.017,-749,-718,-458,-499,-490,-607,-440,-514,-529,-454,-440,-562,-595,-494,-379,-247,-461,-312,-170,-217,-237,-163,-102,-160,-140,17,94,185,66,54,142,110,130,188,268,311,313,272,353,370,377,366,365,422,396,204,-417,-207,1404,3764,4015,318,-90,36,-198,-226,-169,-149,-128,-76,-51,-57,-109,-134,-136,-168,-212,-216,-171,-65,12,145,187,115,40,-27,-66,-101,-32,-34,-215,-295,-267,-248,-184,-95,-110,-281,-386,-267,0,35,-219,-101,112,62,4,-168,-355,-250,-499,-1285,-722,1166,3815,2865,-753,-1157,-905,-1012,-1028,-915,-817,-1008,-949,-796,-720,-666,-614,-785,-802,-675,-608,-553,-434,-162,-43,-260
2018-05-17,15:53:35.055,-214,-191,-151,-53,-215,-244,-133,-141,-216,-91,9,44,41,45,3,123,150,88,191,303,280,291,359,427,320,220,226,19,-691,-333,1326,3830,3406,125,-443,-386,-505,-523,-499,-487,-448,-421,-466,-424,-444,-573,-597,-640,-564,-463,-408,-340,-213,-180,-108,-83,-215,-114,-88,-121,-201,-151,33,-37,-121,45,64,-247,-236,-57,-211,-178,84,167,-23,6,0,-24,32,-268,-199,65,-238,-830,-760,764,3312,3427,91,-666,-418,-489,-499,-420,-415,-396,-278,-334,-366,-300,-240,-184,-149,-184,-214,-147,-71,103,178,149,127,102,123,98,143,186,207,219,286,413,480,186,245,358,354,309,285,299
2018-05-17,15:53:36.092,343,448,457,370,350,300,295,308,272,169,-598,-884,791,3306,4678,1090,-706,-508,-549,-661,-732,-563,-374,-675,-801,-641,-441,-421,-609,-374,-331,-681,-668,-324,27,-149,20,182,-83,-487,-470,-187,-241,-136,-116,-333,-287,-238,-56,-87,-225,-81,45,125,-91,-87,61,233,185,95,144,175,227,313,275,148,-413,-546,510,2637,3711,956,-243,-123,-234,-238,-142,-238,-144,-79,-109,-65,-45,-55,-78,-112,-130,-137,-114,-53,40,124,128,94,39,-13,-13,-39,-33,-37,-43,-71,-89,-91,-89,-95,-174,-160,-200,-188,-138,-43,-12,-117,-81,-68,-2,85,-13,-47,-120,-409,-1199,-953,1087,4178,3872,-443
2018-05-17,15:53:37.129,-979,-676,-885,-928,-642,-922,-1009,-889,-1072,-1031,-906,-950,-938,-884,-789,-801,-730,-612,-521,-383,-321,-427,-365,-297,-286,-221,-258,-256,-203,-141,-140,-99,-95,-42,29,31,75,42,28,90,164,255,349,306,275,303,319,356,360,312,-4,-742,49,2107,4463,2751,-166,-138,-197,-400,-377,-296,-237,-213,-206,-225,-186,-206,-270,-283,-265,-236,-207,-112,-31,65,195,243,53,-87,-199,-201,-180,-149,-107,-50,-234,-374,-290,-202,-247,-271,-75,-49,-246,-231,-91,-181,-127,77,-205,-307,-178,-97,-128,-164,-450,-1124,-938,523,2798,2997,-37,-744,-738,-635,-595,-671,-605,-464,-577,-552,-406,-367,-371,-346,-402,-349
2018-05-17,15:53:38.166,-274,-259,-234,-54,87,222,147,41,-7,-2,-14,-19,-17,22,51,113,87,12,19,49,82,82,97,107,151,296,401,346,289,312,356,340,321,317,173,-573,-899,796,4205,5761,1761,-754,-569,-602,-655,-615,-480,-400,-508,-508,-529,-454,-252,-224,-393,-316,-275,-126,59,83,3,46,184,91,-6,10,-2,12,91,8,8,-63,-79,-63,-88,53,-33,-53,160,69,-31,95,225,192,266,131,33,168,274,225,299,-199,-758,97,1990,3939,2202,-245,-157,-300,-349,-524,-475,-389,-304,-298,-277,-268,-250,-166,-159,-146,-94,-89,-30,39,135,172,155,81,5,-105,-179,-209,-240,-251,-267,-249
2018-05-17,15:53:39.203,-246,-224,-257,-286,-308,-310,-312,-311,-294,-235,-130,-43,-83,-233,-209,-109,-111,-302,-450,-702,-1371,-717,1523,4663,3475,-872,-1270,-1194,-1283,-1323,-1060,-843,-890,-730,-644,-934,-897,-943,-1411,-1317,-934,-679,-656,-682,-332,-335,-260,-140,-31,-166,-180,2,86,-44,6,67,47,78,31,55,70,39,51,149,203,168,266,385,340,242,262,254,256,246,182,-91,-840,-536,1363,4104,3828,61,-591,-470,-579,-597,-543,-403,-366,-388,-350,-280,-254,-278,-334,-411,-455,-348,-272,-248,-87,63,187,142,-41,15,-92,-51,109,-51,-252,105,8,-330,-153,30,65,22,12,-163,-182,47,145,188,354,107,17,78
2018-05-17,15:53:40.241,124,72,203,79,-731,-746,669,2918,3501,383,-461,-354,-662,-669,-553,-462,-379,-438,-434,-285,-367,-443,-386,-375,-358,-324,-273,-175,-69,73,92,9,-73,-108,-103,-107,-119,-178,-177,-160,-107,-46,-1,48,169,81,48,129,184,224,278,370,365,266,249,259,272,233,208,175,-560,-851,412,2922,4118,1192,-451,-640,-827,-721,-723,-745,-800,-626,-651,-710,-569,-615,-660,-507,-767,-789,-503,-350,-132,-11,11,19,-7,-45,-118,-105,-47,148,-4,-132,37,72,-120,-68,62,-48,22,66,-22,67,196,280,340,248,321,426,225,242,236,141,-271,-534,364,2753,3989,1352,-382,-194,-274,-355,-385,-348
2018-05-17,15:53:41.278,-121,-263,-475,-339,-211,-205,-225,-207,-217,-171,-137,-58,42,131,216,198,173,252,354,269,161,233,256,214,259,232,231,273,307,238,300,325,131,86,192,233,244,230,231,345,284,20,60,173,-400,-1183,-188,2047,4760,3257,-490,-833,-782,-727,-891,-1025,-855,-725,-666,-719,-723,-757,-726,-934,-927,-724,-517,-441,-526,-496,-345,-268,-247,-406,-415,-291,-250,-233,-249,-332,-369,-286,-236,-259,-216,-151,-196,-199,-150,-163,-100,-25,66,18,-47,27,29,65,71,2,-106,-761,-690,622,2725,3050,181,-423,-363,-488,-529,-467,-408,-397,-358,-297,-313,-339,-360,-407,-466,-484,-410,-346,-236,-74,-6,3
2018-05-17,15:53:42.315,-9,-50,-59,4,1,40,-92,-54,-20,-216,-248,-172,-85,42,170,0,-206,-129,-97,28,124,-38,-25,82,243,208,222,43,-257,-701,-930,170,2721,4020,1123,-707,-453,-477,-743,-751,-525,-508,-657,-712,-582,-498,-534,-390,-245,-469,-452,-244,-216,-46,43,-111,-164,-61,34,-15,-72,49,105,112,58,-24,80,102,147,69,23,54,101,105,88,139,210,248,275,232,215,312,306,299,296,224,-32,-720,-180,1566,4004,3139,27,-285,-288,-455,-511,-495,-499,-477,-465,-484,-482,-354,-182,-487,-648,-516,-342,-238,-32,6,-77,34,124,-195,-134,217,251,-66,-330,-169,-306,-361,-269,-194,-63,93
2018-05-17,15:53:43.352,22,-204,-109,-134,0,-110,-40,298,-71,-319,-265,50,97,-81,-9,-210,-836,-363,1323,3002,1729,-396,-276,-357,-522,-455,-308,-398,-430,-367,-326,-288,-272,-283,-337,-355,-330,-301,-201,-53,15,59,116,118,65,58,91,99,125,128,265,384,-18,101,390,210,-33,158,170,153,274,307,407,566,429,300,417,407,304,305,440,429,-333,-1032,-100,2478,5204,3162,-316,-391,-636,-739,-567,-530,-328,-211,-478,-419,-341,-660,-598,-355,-416,-426,-399,-337,-331,-237,-136,-198,-187,-305,-302,-114,-302,-301,-209,-286,-376,-374,-306,-191,-165,-123,-98,-68,-134,-65,21,63,5,127,138,101,105,135,141,151
2018-05-17,15:53:44.389,135,37,-519,-748,466,2692,3809,785,-482,-339,-489,-588,-573,-485,-427,-438,-433,-372,-326,-401,-391,-406,-425,-455,-459,-310,-208,-163,-59,-54,-75,-112,-128,-112,-114,-135,-139,-50,-89,-252,-269,-325,4,-91,-626,-442,-224,-273,-203,73,95,-200,-114,22,-261,-288,-127,-101,-157,-640,-988,43,2030,3477,1055,-884,-718,-796,-922,-915,-944,-1046,-936,-944,-725,-707,-848,-1010,-987,-838,-750,-611,-411,-335,-216,-165,-140,-2,-46,-42,9,45,86,68,33,35,56,45,71,77,108,104,117,41,46,98,139,245,252,221,193,216,166,189,210,170,-178,-893,-391,1674,4488,3687,-60,-505,-449,-566,-534,-520
2018-05-17,15:53:45.427,-449,-506,-576,-532,-524,-550,-508,-453,-521,-436,-437,-363,-151,-218,-140,243,60,-453,-335,-148,-30,145,22,104,172,-113,-362,-284,10,91,-235,-122,-131,-327,-202,-111,-101,35,176,-16,3,151,133,113,93,-106,-677,-177,1678,4207,3357,-410,-380,-240,-393,-365,-284,-203,-89,-365,-385,-218,-247,-275,-236,-197,-164,-143,-46,96,110,122,209,129,56,84,135,119,173,204,154,133,189,239,281,293,295,289,246,218,255,248,247,313,318,284,309,323,184,137,89,87,-402,-914,406,2714,4734,1674,-653,-415,-641,-490,-484,-867,-521,-292,-625,-762,-425,-537,-839,-602,-486,-547,-308,-545,-529,-318
2018-05-17,15:53:46.464,-231,-358,-382,-128,-63,-209,-190,-372,-179,-143,-305,-312,-94,65,119,-53,-141,-23,81,-8,-95,41,270,137,-4,89,153,236,317,154,-138,-711,-618,871,3299,3716,562,-581,-487,-563,-578,-530,-512,-487,-479,-465,-492,-477,-370,-359,-379,-365,-399,-301,-172,-85,-17,31,36,63,79,127,164,264,300,57,23,30,54,-17,-32,132,-40,-167,20,-112,-272,-14,163,140,284,232,-270,-163,-15,-112,-39,-138,-799,-776,830,3240,3082,-279,-804,-536,-680,-885,-915,-907,-774,-652,-645,-843,-700,-685,-690,-624,-662,-558,-297,-259,-242,-282,-202,-151,-4,-185,-191,3,84,140,182,122,-208,115,110,-140
2018-05-17,15:53:47.501,-103,11,104,200,3,61,217,322,336,331,378,470,547,458,483,494,86,-624,68,1696,3888,2756,72,-251,-329,-429,-441,-457,-526,-520,-480,-508,-555,-644,-664,-672,-670,-686,-690,-606,-414,-353,-348,-274,-31,20,-368,-19,-114,-417,-278,-210,-305,-377,-207,-116,-181,-329,-134,-60,-124,-108,5,96,-162,-264,-153,-114,-129,-32,-93,-45,-122,-555,-1087,-257,2108,4107,2055,-390,-542,-477,-362,-498,-616,-306,-258,-268,-248,-269,-162,-172,-179,-313,-200,-53,-60,48,15,-3,100,126,71,200,150,81,141,175,156,130,128,143,176,246,216,189,183,196,214,220,218,350,522,401,333,421,446,411
2018-05-17,15:53:48.538,352,360,372,-573,-898,880,4076,4841,824,-655,-532,-534,-520,-743,-602,-579,-733,-588,-405,-500,-457,-531,-660,-580,-515,-652,-415,-63,-316,-271,161,237,-39,-383,-433,-304,-223,-52,-13,-151,-92,-48,-172,-291,-73,13,-119,-123,39,-41,-49,88,129,-12,86,134,157,99,134,36,-311,-748,-117,1212,3060,2025,-237,-286,-365,-503,-494,-474,-505,-554,-319,-305,-299,-314,-352,-385,-350,-323,-346,-222,-105,15,105,126,64,147,152,107,86,66,-8,-55,-86,0,-59,-50,-81,-76,-72,0,-10,14,-91,-190,-276,-51,57,-36,4,159,188,211,-109,-705,-1241,-542,1563,4649,4020,-474,-1030,-695,-891,-1056
2018-05-17,15:53:49.575,-1120,-1033,-668,-695,-741,-667,-849,-849,-714,-452,-486,-666,-760,-368,-66,58,-101,-127,-137,-231,-39,38,69,-56,-62,49,225,83,-99,7,160,62,67,124,123,113,162,227,295,425,424,471,590,652,551,556,595,347,-464,23,1944,4801,3910,181,-250,-251,-363,-432,-473,-444,-431,-443,-463,-465,-472,-454,-414,-581,-450,-223,-365,-525,-131,-13,-305,-226,-23,100,29,89,4,90,-44,-93,51,165,-81,-153,-51,141,139,27,41,29,70,98,88,395,-120,-72,34,84,-65,-74,317,-413,-1266,-228,1889,3994,2576,-311,-654,-322,-438,-564,-526,-405,-264,-415,-518,-439,-308,-403,-613,-510,-409,-485
2018-05-17,15:53:50.612,-390,-351,-351,-227,-234,-302,-311,-359,-395,-162,-73,-120,-27,-81,-92,-36,-53,-44,-42,9,31,0,5,-20,-50,-16,21,78,44,-6,18,-29,-86,-119,-137,-297,-986,-1114,351,3374,4732,1424,-878,-1208,-1146,-1081,-943,-809,-998,-906,-979,-961,-655,-863,-1165,-1047,-870,-802,-561,-538,-582,-341,-261,-338,-162,-248,-282,-395,-426,-393,-214,-309,-316,-366,-401,-201,-36,86,61,64,188,-2,19,163,171,320,384,359,353,358,272,207,184,204,25,-700,-597,1105,3819,4013,253,-590,-453,-457,-410,-378,-381,-355,-334,-244,-214,-275,-274,-248,-208,-210,-178,-116,-59,33,67,50,29,16,11,41,74,226
2018-05-17,15:53:51.650,447,-9,-234,75,195,-220,-86,164,306,603,140,-493,-456,-140,-97,-91,123,388,238,-200,-265,-15,16,60,214,-247,-1205,-620,1291,3375,2440,-572,-527,-294,-553,-993,-973,-595,-489,-596,-574,-371,-178,-302,-439,-528,-382,-205,-14,-20,-37,71,96,183,74,-65,0,73,69,-18,-18,0,6,-49,-15,45,76,135,150,154,145,178,182,215,336,405,362,338,384,343,312,336,308,53,-776,-540,1067,3733,3734,337,-565,-505,-622,-645,-587,-530,-489,-371,-260,-428,-501,-350,-375,-377,-476,-750,-769,-455,-248,-132,3,-125,-444,-311,-153,-221,-186,-30,-119,-311,-245,-195,-363,-402,-147,-57,-629,-484
2018-05-17,15:53:52.687,-380,-264,-380,-330,-147,107,-40,-146,-56,49,80,227,87,-162,-579,-338,1278,3585,3186,231,-307,-348,-493,-506,-430,-383,-338,-367,-411,-405,-454,-427,-426,-465,-437,-341,-316,-205,-100,-11,-23,-68,-62,20,103,141,187,225,259,299,310,306,341,340,272,278,314,318,284,257,293,423,426,429,461,290,298,311,176,364,371,16,-507,-995,172,2754,5293,2595,-605,-819,-703,-757,-709,-591,-670,-717,-766,-861,-774,-736,-703,-704,-728,-662,-652,-323,-368,-596,-475,-194,-136,-167,-236,-244,-201,-236,-184,-87,-105,-150,-102,-71,5,45,39,80,133,219,61,101,198,268,263,260,305,329,349,350
2018-05-17,15:53:53.724,396,211,-514,-213,1166,3314,3314,542,155,126,-81,-127,-38,-28,-40,-47,-51,3,-48,-140,-160,-188,-200,-195,-113,-11,195,493,408,104,223,358,224,181,358,427,206,133,31,-12,213,256,-83,-15,104,129,26,37,176,262,363,395,365,196,91,73,7,-26,-311,-576,-263,1024,3287,3552,434,-674,-646,-553,-541,-679,-587,-473,-513,-444,-458,-370,-595,-603,-474,-481,-451,-369,-232,-144,-161,-102,-150,-279,-248,-109,-165,-234,-226,-182,-156,-192,-119,-19,-187,-175,-65,-34,-28,-12,20,51,89,204,251,120,38,111,120,-35,-124,-62,-392,-1231,-684,1427,4369,3514,-498,-1055,-769,-878,-1198,-1060
2018-05-17,15:53:54.761,-924,-920,-907,-793,-686,-881,-1035,-848,-807,-755,-757,-615,-300,-371,-807,-622,-332,-196,-188,-248,-447,-376,-126,-306,-482,-232,-192,-522,-749,-501,-359,-171,183,-12,-461,-69,-68,-416,-23,73,-57,39,238,11,-157,63,-176,-935,-144,1559,3490,1609,-420,-341,-387,-493,-646,-596,-481,-448,-424,-422,-353,-363,-370,-365,-355,-375,-384,-317,-222,-83,14,-16,-39,-62,6,58,23,54,16,-55,-121,-115,-52,85,-62,-282,-72,-101,-194,-92,-16,-29,78,309,73,-178,-27,35,-32,48,72,19,-607,-664,469,3327,4092,391,-965,-803,-771,-801,-736,-530,-499,-533,-672,-728,-600,-576,-663,-672,-423,-320,-691,-296
2018-05-17,15:53:55.798,44,-180,5,-28,-68,-88,-14,191,207,119,103,15,141,83,54,-29,48,24,117,245,107,40,211,246,192,269,278,286,225,199,403,432,357,305,-210,-741,353,2701,4378,1930,-257,-12,-197,-328,-226,-168,-177,-144,-102,-97,-49,27,-66,-323,-294,-187,-94,-37,95,232,416,240,65,129,184,192,320,346,41,267,551,235,143,357,148,168,521,290,397,542,-73,75,299,232,158,71,187,66,-57,-67,215,309,-691,-939,292,2613,3848,530,-725,-401,-631,-772,-691,-558,-535,-478,-592,-545,-582,-565,-521,-537,-531,-542,-485,-408,-326,-236,-222,-223,-234,-280,-271,-230,-251,-221,-163,-175
2018-05-17,15:53:56.835,-162,-133,-129,-103,-19,8,72,85,115,117,145,216,261,254,201,155,154,80,62,66,-46,-250,-913,-1112,563,3830,4807,574,-1063,-885,-912,-832,-899,-1111,-992,-871,-873,-695,-677,-800,-829,-692,-543,-944,-1128,-699,-321,-362,-445,-288,-332,-611,-413,-197,-300,-323,-258,-258,-231,-113,-111,-350,-486,-264,-141,-127,-72,52,56,13,-43,18,125,152,174,159,239,383,134,27,-157,-723,-122,1819,3840,2542,-121,-245,-301,-399,-416,-393,-375,-315,-237,-197,-126,-87,-50,-42,13,64,78,115,228,324,293,260,191,138,118,108,152,122,79,60,77,49,95,94,20,34,74,45,56,96,182,-65
2018-05-17,15:53:57.873,-57,-166,-58,142,15,73,95,-310,-298,33,-24,-1122,-1208,343,2638,3909,1027,-1053,-1054,-1016,-942,-892,-825,-816,-748,-748,-815,-817,-692,-553,-529,-627,-539,-478,-469,-386,-224,-74,-94,-111,-80,58,38,-38,65,79,86,196,104,22,75,218,248,413,-44,-104,98,183,180,263,289,401,399,437,381,358,281,385,401,300,-275,-512,819,3521,4505,1111,-374,-287,-282,-365,-378,-353,-300,-43,-2,-522,-492,-246,-403,-526,-431,-274,-305,47,131,-384,-221,16,70,83,229,473,155,-163,4,221,81,-120,-123,-78,5,-5,-59,136,292,-11,-184,68,166,105,69,-73,119,282,77,63,87,186
2018-05-17,15:53:58.910,214,-61,-515,-840,151,2238,3807,1386,-316,-281,-685,-683,-589,-553,-419,-446,-438,-267,-526,-629,-602,-469,-427,-440,-314,-222,-209,-85,-42,5,49,-140,14,-54,-94,-41,90,66,14,31,14,35,28,54,80,46,47,18,43,32,25,28,132,172,67,131,191,-64,-56,20,-16,-457,-1182,-272,1861,4255,2880,-581,-907,-641,-596,-904,-933,-670,-787,-888,-757,-792,-646,-276,-905,-1121,-672,-639,-423,-256,-595,-717,-251,-24,-472,-696,-444,-153,-16,-189,-217,-35,-195,-178,-55,-124,-79,-74,70,-7,-82,23,-31,-5,43,119,138,102,118,178,140,196,206,-6,-96,-591,-903,287,2809,4477,1437,-633
2018-05-17,15:53:59.947,-517,-574,-657,-581,-474,-418,-260,-242,-249,-314,-429,-455,-442,-489,-430,-375,-250,-119,-77,3,-23,-283,-275,-133,-109,-136,32,176,-212,-311,-157,-137,-277,-118,103,-16,-98,-169,-160,95,21,-100,25,107,126,17,-8,137,-61,-119,-1,161,-17,-1116,-928,1058,4117,4492,672,-575,-505,-567,-549,-586,-522,-427,-306,-461,-464,-318,-350,-500,-383,-238,-257,-228,-115,-10,-23,-56,-119,-226,-195,-97,-61,-1,-67,-114,-80,-107,-88,-33,30,93,130,160,181,196,204,201,217,243,345,395,365,329,311,316,288,302,203,136,-314,-953,87,2198,4387,2154,-488,-341,-425,-821,-680,-514,-769,-742,-595,-504
2018-05-17,15:54:00.984,-409,-490,-690,-561,-524,-713,-536,-213,-222,-262,-109,-142,-273,-83,-136,-369,-214,-31,-269,-483,-466,-448,-341,-219,-305,-414,-521,-479,-101,187,137,-253,-396,-318,223,296,-29,260,384,-42,24,218,223,84,-300,-696,314,2515,3948,1535,-394,-386,-660,-620,-476,-482,-448,-400,-465,-328,-486,-218,9,-305,-275,-271,-270,-284,-310,-214,-157,-192,-147,-22,-17,-17,-19,-20,-31,-24,1,-52,-3,165,192,-113,-127,251,272,144,548,-214,-626,-74,126,230,306,288,531,163,189,254,191,56,-457,-536,897,3687,4121,442,-547,-462,-831,-878,-647,-379,-614,-464,-224,-349,-518,-376,-236,-431,-477,-216,-280,-193
2018-05-17,15:54:02.056,-418,-444,-413,-452,151,-183,-274,-76,60,88,68,7,-57,-80,-72,-94,-52,-13,-50,-22,-45,-50,-29,-11,70,235,294,335,282,236,162,56,136,148,111,-79,-773,-763,807,3097,3619,427,-364,-152,-336,-287,-278,-401,-404,-99,-183,-273,-60,-57,-145,-84,-4,27,87,223,448,468,332,532,452,306,437,545,744,819,395,232,345,463,481,651,737,674,458,291,376,456,519,477,133,128,729,401,-144,-85,172,332,433,402,437,-305,-968,143,2578,4597,2409,-346,-370,-359,-407,-444,-526,-539,-514,-509,-491,-529,-575,-553,-611,-614,-586,-603,-509,-406,-369,-344,-351,-381,-434,-449,-390,-393
2018-05-17,15:54:14.820,162,217,-117,-903,-639,1403,4196,4030,251,-656,-603,-689,-726,-716,-655,-605,-587,-522,-467,-489,-538,-475,-403,-344,-304,-266,-176,-47,10,-5,-44,-137,-138,-159,-132,-123,-158,-36,50,53,36,17,50,112,95,98,129,147,128,172,250,257,256,188,300,341,377,350,398,496,492,461,502,527,506,502,502,437,220,-185,104,2010,4820,4533,497,-522,-599,136,393,143,-13,-61,-14,51,163,358,307,282,299,352,250,357,520,577,469,480,544,434,216,274,313,262,66,-45,303,316,262,118,46,116,-90,-7,65,35,14,34,16,-99,-371,-348,186,63,-318,-143,45,-148,-378,-197
2018-05-17,15:54:16.208,5,-140,-263,-255,-387,-1044,-1183,368,3171,3709,44,-1206,-1036,-1156,-1041,-1081,-1141,-1016,-950,-1159,-1209,-995,-1153,-1151,-1164,-1109,-1047,-605,-515,-366,-285,-563,-755,-726,-679,-698,-548,-654,-1195,-644,-371,-368,-363,-494,-920,-1028,-298,-284,-297,-319,-671,-837,-256,-74,-358,-423,-363,-341,-526,-872,-580,-145,-136,-223,-322,-497,-507,-413,-376,-308,-613,-1127,-92,1957,3682,1465,-834,-518,-684,-1067,-943,-925,-856,-747,-716,-671,-620,-615,-585,-510,-423,-336,-247,-132,27,63,174,-166,-361,-321,-381,-379,-390,-304,-263,-266,-225,-194,-135,-119,-135,-127,-61,85,8,-66,87,117,91,105,175,205,167,138,182,267,349,305
2018-05-17,15:54:17.245,201,286,376,254,250,349,276,-263,-814,158,2262,4582,3199,-54,-467,-418,-586,-477,-247,-376,-557,-312,-350,-482,-615,142,-79,-148,-235,-202,67,277,280,207,249,156,-2,71,-27,-22,69,-6,-56,-20,23,-138,-266,101,130,-56,-144,-74,57,246,196,121,105,61,-16,31,60,61,107,208,221,155,115,108,87,20,54,-46,-769,-1018,778,4263,5656,1375,-941,-754,-867,-891,-828,-785,-698,-610,-591,-604,-544,-532,-566,-482,-451,-417,-367,-178,-28,-29,17,60,5,-106,-153,-171,-50,-2,8,10,88,73,3,-14,15,66,101,76,61,121,158,147,124,199,193,190,141,72,165,234
2018-05-17,15:54:18.282,268,269,258,244,261,218,282,281,207,69,-554,-825,772,3748,4949,1411,-671,-456,-591,-743,-668,-540,-534,-553,-512,-473,-401,-374,-407,-420,-318,-157,-89,-51,-6,46,141,131,-35,-179,-108,-48,-69,-142,-124,-12,-40,-77,-121,-7,-3,-56,-133,-39,22,59,29,32,29,10,112,232,-2,-120,97,183,177,174,139,136,73,149,208,8,-796,-905,890,3614,4499,552,-771,-483,-679,-811,-685,-630,-607,-636,-517,-421,-584,-493,-437,-424,-388,-305,-216,-216,-129,21,56,40,-44,-180,-233,-204,-216,-228,-214,-213,-175,-176,-143,-99,-46,-72,-105,-89,-84,-19,3,33,42,4,-115,-30,48,0
2018-05-17,15:54:19.319,39,131,120,66,62,64,101,85,46,31,-157,-881,-994,921,4271,5298,1339,-948,-861,-937,-977,-891,-816,-744,-677,-640,-682,-702,-623,-516,-479,-479,-409,-285,-156,-36,-5,-62,-128,-247,-346,-363,-336,-285,-236,-178,-111,-82,-111,-102,-80,-82,-70,-46,-28,-6,-4,0,43,49,40,74,98,58,57,90,92,123,185,175,151,142,147,140,136,151,151,-74,-749,-578,1080,3658,3789,376,-421,-348,-524,-631,-580,-496,-467,-440,-397,-380,-378,-364,-344,-319,-326,-271,-227,-155,-72,-46,-19,-41,-74,-155,-142,-113,-101,-116,-112,-122,-102,-73,-143,-98,-114,-168,-150,-116,-100,-104,-89,-59,-8,-30
2018-05-17,15:54:20.356,19,26,-17,-48,-33,-2,72,68,12,26,44,53,39,38,27,-196,-779,-623,960,3338,3281,382,-497,-503,-504,-454,-414,-363,-349,-315,-276,-239,-255,-198,-181,-210,-204,-118,-33,70,176,284,368,388,384,369,381,412,469,489,483,503,372,439,584,559,508,460,440,406,435,478,490,515,526,483,498,472,436,423,435,469,479,492,461,429,389,382,363,318,229,-97,-836,-391,1850,4832,4322,178,-785,-683,-835,-908,-852,-813,-805,-809,-758,-744,-756,-755,-739,-709,-651,-586,-515,-433,-380,-344,-366,-442,-555,-642,-693,-699,-685,-636,-609,-609,-578,-590,-578,-558,-595,-587,-547,-513,-471,-413
2018-05-17,15:54:21.394,-398,-424,-479,-429,-434,-397,-440,-459,-414,-393,-334,-275,-291,-307,-322,-321,-284,-287,-300,-351,-893,-1265,37,2702,4311,1208,-938,-788,-873,-954,-933,-893,-857,-783,-745,-756,-725,-683,-666,-634,-639,-619,-560,-478,-426,-364,-265,-237,-283,-329,-286,-261,-232,-177,-179,-152,-124,-132,-158,-141,-96,-142,-124,-73,-47,-12,4,27,44,38,30,31,42,54,87,105,160,150,122,112,131,131,122,114,78,-222,-807,-251,1386,3376,2452,-80,-319,-360,-500,-505,-498,-493,-480,-415,-389,-365,-335,-339,-352,-361,-385,-356,-256,-162,-83,4,54,63,39,23,32,33,56,45,37,83,52,42,70,76,77,62
2018-05-17,15:54:22.431,1,110,115,100,113,159,144,114,122,79,66,89,123,175,210,200,161,158,236,222,200,203,136,-440,-1021,235,3116,5067,2206,-562,-576,-610,-684,-645,-594,-566,-524,-507,-480,-442,-421,-414,-407,-405,-350,-272,-214,-135,-73,-54,-61,-112,-192,-217,-190,-129,-87,-77,-51,-16,-49,-30,-24,-13,-1,22,41,53,74,87,104,140,156,122,96,100,79,53,51,77,177,227,176,151,172,169,169,191,183,88,-455,-895,242,2669,4376,1925,-457,-374,-477,-593,-566,-488,-446,-416,-388,-380,-364,-336,-333,-347,-336,-308,-265,-202,-122,-68,-23,-4,-5,-35,-77,-74,-29,-25,8,41,26,23
