2018-05-22,09:58:12.319,62,58,90,69,120,131,99,90,126,132,130,127,123,106,79,56,48,23,-13,-24,-41,-67,-101,-124,-167,-207,-231,-224,-210,-193,-172,-156,-148,-130,-118,-108,-83,-59,-56,-56,-48,-59,-61,-61,-60,-49,-55,-72,-82,-83,-65,-69,-75,-60,-52,-55,-55,-50,-37,-41,-32,0,-7,34,85,82,63,44,52,22,-46,-86,-58,-67,-77,-88,-163,-142,320,1317,1446,-136,-1044,-791,-404,-143,-8,-21,-18,-16,9,17,16,19,24,42,57,75,78,100,101,108,133,151,154,156,132,104,94,84,61,37,32,6,-14,-55,-84,-111,-138,-164,-167,-159,-167,-175,-156,-154,-153,-130
2018-05-22,09:58:13.356,-118,-105,-85,-74,-73,-56,-50,-67,-63,-58,-65,-56,-45,-46,-50,-69,-70,-51,-51,-49,-45,-48,-50,-58,-38,-25,-25,-24,17,23,25,61,98,86,79,84,71,3,-69,-76,-76,-78,-71,-108,-153,44,796,1677,867,-782,-1011,-563,-256,-43,-33,-30,-15,-1,0,9,17,9,19,36,46,62,80,98,108,108,126,121,109,94,89,75,48,31,27,26,15,-4,-25,-49,-82,-111,-147,-157,-167,-161,-161,-169,-159,-144,-137,-111,-107,-91,-74,-58,-58,-49,-41,-39,-58,-70,-80,-74,-72,-68,-66,-61,-59,-43,-37,-45,-51,-53,-54,-49,-41,-19,-30,-25,21,16,33,76
2018-05-22,09:58:14.393,84,39,33,53,20,-57,-85,-64,-60,-84,-95,-145,-94,322,1172,1223,-213,-1023,-776,-392,-176,-2,-4,0,26,41,44,53,39,44,62,59,67,83,95,104,111,118,133,141,132,111,96,87,68,41,27,12,-9,-25,-45,-87,-135,-177,-194,-193,-208,-208,-182,-160,-147,-137,-116,-99,-92,-75,-54,-52,-43,-47,-63,-78,-70,-54,-58,-45,-54,-68,-63,-41,-47,-47,-60,-62,-61,-61,-56,-47,-37,-33,-36,-8,16,37,74,93,63,41,37,14,-43,-107,-105,-94,-82,-82,-141,-154,147,976,1494,295,-941,-916,-514,-241,-29,1,-5,-5,8,8,14,19,25,37,39,35
2018-05-22,09:58:15.431,66,84,89,95,118,115,120,110,102,89,81,66,45,34,29,28,10,-26,-66,-99,-129,-158,-170,-167,-148,-150,-141,-119,-110,-97,-94,-76,-69,-62,-50,-52,-53,-58,-58,-52,-46,-53,-63,-65,-45,-42,-36,-55,-55,-37,-31,-33,-43,-46,-40,-26,-27,-32,-31,-7,20,20,50,94,86,58,45,51,15,-62,-96,-74,-59,-54,-66,-144,-103,429,1485,1407,-319,-1060,-713,-335,-91,-20,-35,-14,11,19,15,15,29,32,32,36,28,52,72,84,87,88,101,103,95,70,55,37,14,-1,12,12,2,-23,-60,-92,-125,-152,-176,-187,-191,-189,-180,-173,-153,-146,-129,-103
2018-05-22,09:58:16.468,-85,-78,-80,-60,-57,-49,-39,-36,-41,-37,-35,-28,-27,-26,-39,-44,-42,-32,-22,-23,-22,-26,-10,-6,-15,-16,-27,-21,1,18,16,66,104,83,69,70,49,-13,-78,-84,-68,-65,-75,-118,-160,16,727,1569,731,-821,-1020,-559,-283,-73,-12,-17,-14,5,16,11,20,44,49,57,64,75,85,88,104,117,110,121,125,116,96,80,66,47,30,15,2,1,-23,-71,-107,-142,-156,-173,-186,-192,-195,-190,-179,-160,-149,-134,-108,-95,-79,-79,-67,-60,-60,-54,-51,-53,-59,-55,-51,-54,-48,-42,-39,-32,-35,-36,-34,-26,-20,-20,-25,-14,10,4,24,81,95,77
2018-05-22,09:58:17.505,47,46,13,-55,-102,-84,-78,-82,-92,-143,-142,179,1008,1342,27,-1018,-878,-456,-227,-36,7,16,25,24,31,36,44,56,78,84,78,93,90,89,105,120,118,122,130,117,102,78,54,51,48,35,18,-8,-34,-79,-122,-152,-174,-195,-209,-205,-201,-195,-187,-162,-133,-107,-101,-93,-89,-90,-89,-79,-66,-62,-66,-59,-59,-60,-69,-72,-67,-71,-63,-51,-49,-59,-68,-69,-43,-33,-44,-40,-36,-2,8,18,64,103,69,42,53,49,-12,-82,-84,-87,-83,-85,-123,-172,22,782,1605,706,-803,-983,-562,-257,-47,-23,-31,2,16,12,21,17,25,38,63,60,72,91
2018-05-22,09:58:18.542,102,106,107,111,111,102,108,94,77,55,36,38,34,24,11,-12,-34,-62,-102,-139,-153,-157,-163,-156,-137,-137,-115,-107,-91,-79,-75,-67,-62,-49,-35,-25,-27,-39,-50,-47,-78,-82,-40,-28,-33,-56,-49,-34,-36,-38,-44,-51,-56,-44,-22,-16,-12,-8,-5,29,82,83,47,37,40,-4,-57,-82,-80,-80,-81,-75,-146,-140,304,1351,1579,-140,-1095,-789,-385,-136,-35,-59,-52,-14,1,1,-8,-3,10,30,46,50,52,63,67,61,75,96,90,83,79,66,34,13,21,32,34,15,-13,-45,-73,-104,-137,-157,-180,-185,-173,-157,-146,-155,-140,-130,-116,-92,-83,-88
2018-05-22,09:58:19.580,-74,-51,-35,-41,-45,-36,-20,-25,-30,-37,-53,-54,-56,-53,-46,-50,-48,-47,-36,-33,-23,-22,-29,-22,-11,20,12,35,96,101,74,68,70,25,-43,-54,-58,-66,-63,-80,-149,-56,444,1290,1029,-503,-1053,-684,-325,-142,4,13,24,39,62,58,53,65,67,66,67,71,79,98,110,116,132,133,124,114,113,102,78,53,25,12,4,-21,-49,-74,-102,-147,-180,-194,-201,-203,-204,-196,-178,-165,-150,-139,-131,-112,-88,-72,-54,-38,-37,-51,-47,-44,-45,-43,-55,-57,-57,-58,-54,-63,-60,-59,-67,-57,-40,-37,-43,-45,-21,-19,3,13,-1,48,88,69,56,49
2018-05-22,09:58:20.617,33,-6,-69,-83,-77,-64,-69,-109,-163,3,701,1545,811,-711,-993,-590,-295,-86,-29,-35,-24,-13,-7,5,9,21,36,48,45,57,73,85,99,95,94,91,95,90,86,70,55,41,23,14,7,-1,-22,-69,-116,-162,-175,-192,-201,-197,-185,-161,-168,-158,-141,-127,-105,-92,-95,-97,-96,-78,-55,-59,-61,-57,-66,-66,-51,-65,-63,-62,-57,-54,-50,-42,-35,-28,-24,-14,-8,-12,-14,-18,-28,-22,3,-2,26,83,88,57,46,59,25,-34,-71,-69,-88,-73,-85,-153,-149,280,1270,1558,20,-1015,-799,-394,-148,-19,-20,-7,10,16,24,29,28,36,39,46,47,62
2018-05-22,09:58:21.654,78,92,97,106,107,111,110,101,83,77,50,31,42,40,28,4,-25,-67,-96,-122,-146,-162,-168,-158,-145,-150,-139,-113,-109,-100,-83,-81,-68,-53,-53,-54,-61,-67,-64,-63,-57,-54,-65,-83,-71,-57,-56,-56,-47,-33,-46,-51,-48,-47,-41,-54,-53,-30,-16,-25,5,8,19,58,95,79,56,57,49,-6,-62,-76,-74,-61,-55,-79,-154,-10,662,1597,946,-657,-990,-587,-305,-107,-43,-44,-24,-8,7,17,5,5,15,42,65,65,73,87,88,103,111,109,110,107,96,90,73,57,37,30,21,-9,-34,-63,-90,-127,-147,-167,-194,-197,-189,-182,-175,-152,-139,-124
2018-05-22,09:58:22.691,-101,-84,-67,-81,-60,-49,-45,-48,-54,-62,-56,-50,-52,-56,-60,-56,-51,-36,-33,-35,-29,-19,-14,-16,-24,-15,-17,-14,20,34,43,101,123,94,74,71,34,-35,-76,-66,-68,-78,-85,-133,-157,106,899,1445,223,-981,-898,-485,-266,-63,-15,-4,0,30,40,37,40,47,56,60,72,82,79,89,97,99,105,114,117,110,100,92,55,33,17,7,-8,-36,-84,-114,-142,-162,-192,-221,-222,-210,-204,-200,-184,-170,-155,-137,-127,-106,-98,-94,-91,-83,-75,-71,-56,-53,-61,-61,-65,-60,-53,-57,-69,-55,-60,-63,-50,-48,-40,-33,-24,-33,-36,-36,-34,-31,-5,21
2018-05-22,09:58:23.729,26,71,109,84,54,64,65,16,-47,-60,-48,-37,-34,-90,-146,48,796,1648,828,-763,-993,-576,-287,-72,-42,-39,-27,-4,0,7,17,16,14,23,46,56,63,72,79,95,107,101,104,102,78,72,53,36,31,36,33,24,-5,-44,-87,-123,-151,-170,-176,-171,-168,-181,-166,-157,-151,-128,-114,-96,-91,-89,-73,-73,-74,-68,-55,-67,-76,-64,-50,-42,-45,-51,-52,-45,-41,-36,-44,-31,-7,-10,-20,-20,-11,-10,-9,-16,-6,20,28,34,75,105,74,59,78,62,-3,-73,-66,-60,-68,-83,-137,-186,69,923,1671,606,-871,-944,-499,-241,-79,-78,-77,-60,-49,-27
2018-05-22,09:58:24.766,-17,-19,-5,-3,12,29,34,59,92,93,97,111,122,120,109,100,82,70,59,42,37,24,-2,-25,-40,-72,-121,-142,-164,-176,-157,-153,-138,-139,-143,-121,-109,-95,-88,-83,-62,-58,-53,-60,-58,-54,-40,-28,-25,-24,-37,-46,-42,-42,-42,-57,-57,-53,-44,-52,-47,-40,-50,-41,-46,-44,-10,6,12,56,105,87,55,41,48,4,-74,-85,-63,-66,-64,-80,-133,-1,579,1362,781,-669,-1007,-603,-287,-108,13,24,31,37,42,44,45,58,55,52,66,101,97,95,86,104,116,114,111,114,98,71,51,30,5,-3,0,-13,-36,-71,-103,-142,-181,-198,-198,-189
2018-05-22,09:58:25.803,-180,-175,-162,-152,-142,-140,-114,-87,-74,-67,-70,-65,-49,-34,-42,-49,-41,-59,-70,-65,-66,-62,-54,-50,-62,-48,-48,-38,-35,-35,-25,-28,-21,-15,-28,-21,-17,-28,-8,5,29,78,100,80,48,43,35,-22,-81,-72,-61,-70,-79,-124,-153,92,925,1630,514,-896,-960,-542,-257,-68,-47,-50,-37,-16,-19,-7,10,22,30,44,47,51,54,62,78,72,82,101,108,103,89,70,58,51,34,20,0,-10,-18,-53,-92,-119,-139,-158,-173,-167,-158,-144,-144,-131,-105,-107,-100,-90,-76,-64,-58,-58,-48,-44,-40,-53,-46,-40,-52,-66,-70,-60,-55,-46,-36,-39,-55,-64
2018-05-22,09:58:26.840,-43,-36,-29,-38,-61,-42,-36,-50,-42,-39,-17,15,12,55,94,85,51,42,52,12,-62,-82,-72,-82,-86,-83,-163,-93,491,1512,1232,-446,-1059,-679,-331,-123,-51,-59,-57,-55,-38,-14,8,11,9,5,25,49,49,67,86,92,105,119,119,121,116,109,83,64,39,30,31,20,-6,-27,-55,-95,-131,-157,-166,-158,-153,-166,-153,-134,-105,-82,-82,-77,-69,-57,-32,-36,-41,-30,-28,-43,-46,-61,-66,-45,-40,-40,-45,-48,-37,-42,-41,-51,-44,-26,-13,-8,-20,-22,-26,-28,2,10,41,108,118,75,50,61,31,-34,-84,-74,-72,-90,-97,-141,-129,209,1090,1374
2018-05-22,09:58:27.878,-142,-1068,-821,-402,-181,-21,-3,12,32,24,26,38,35,32,43,51,53,64,62,81,88,89,82,80,80,59,49,25,9,2,-3,-14,-24,-47,-63,-95,-128,-162,-179,-189,-185,-172,-147,-129,-130,-112,-98,-89,-86,-71,-73,-66,-36,-31,-35,-35,-46,-41,-40,-51,-43,-39,-52,-50,-44,-53,-71,-67,-66,-54,-40,-49,-43,-33,-14,-18,-13,-15,-3,13,16,38,80,88,49,34,43,32,-25,-90,-90,-78,-68,-81,-141,-138,209,1127,1566,131,-1054,-867,-438,-186,-35,-40,-38,-11,3,4,13,21,19,26,41,56,70,67,71,88,88,82,88,84,72,68,62,41
2018-05-22,09:58:28.915,20,10,3,2,-6,-14,-30,-61,-105,-129,-140,-137,-128,-114,-117,-115,-117,-113,-94,-89,-93,-88,-77,-69,-41,-31,-29,-50,-55,-50,-52,-58,-53,-48,-45,-46,-46,-49,-45,-48,-43,-49,-52,-48,-38,-30,-36,-34,-12,3,-7,41,91,58,32,50,48,-14,-90,-97,-81,-77,-89,-133,-186,1,765,1626,840,-743,-996,-538,-255,-74,-26,-27,-20,-15,-15,8,6,16,12,18,30,39,45,47,72,84,85,97,91,82,74,73,51,40,32,26,14,-2,-33,-48,-82,-117,-150,-177,-194,-192,-174,-159,-151,-136,-116,-93,-91,-84,-65,-57,-36,-20,-38,-63,-53,-46,-46,-31
2018-05-22,09:58:29.952,-43,-34,-34,-36,-35,-37,-38,-40,-34,-43,-44,-25,-23,-26,-14,34,33,29,78,111,68,41,57,22,-50,-105,-81,-59,-62,-67,-125,-120,223,1061,1312,-43,-1007,-836,-433,-213,-12,31,27,44,51,49,53,49,49,52,64,72,83,77,89,83,92,93,91,91,80,55,23,5,3,7,0,-7,-18,-48,-83,-119,-161,-198,-204,-201,-195,-187,-170,-160,-144,-132,-119,-94,-78,-73,-69,-71,-74,-76,-68,-58,-55,-54,-59,-64,-54,-43,-53,-69,-68,-67,-48,-52,-51,-47,-34,-18,-29,-23,11,23,46,83,104,85,67,66,23,-31,-74,-68,-70,-86,-102,-170,-171,215
2018-05-22,09:58:30.989,1214,1549,-20,-1065,-844,-444,-186,-48,-46,-33,-4,-3,-9,-2,1,10,22,10,23,57,69,78,90,103,97,99,105,100,85,57,32,19,13,19,20,-4,-20,-56,-78,-108,-137,-152,-151,-146,-127,-112,-111,-118,-122,-113,-100,-90,-75,-72,-62,-55,-56,-54,-40,-44,-58,-69,-61,-57,-64,-67,-65,-59,-55,-67,-48,-46,-38,-32,-39,-47,-33,12,10,21,91,107,66,49,70,40,-32,-85,-70,-74,-68,-53,-116,-156,172,1121,1706,345,-989,-896,-460,-222,-63,-59,-71,-52,-33,-27,-12,0,10,17,28,31,44,53,41,57,76,77,78,63,68,68,53,20,-2,-13
2018-05-22,09:58:32.027,4,14,5,-20,-47,-82,-111,-127,-149,-167,-171,-161,-155,-139,-119,-100,-80,-75,-82,-78,-64,-47,-53,-41,-51,-45,-43,-44,-42,-58,-66,-66,-50,-57,-66,-62,-60,-42,-30,-26,-25,-14,-20,-3,15,25,60,113,115,68,65,74,19,-61,-72,-60,-51,-53,-82,-129,-4,553,1375,886,-592,-999,-610,-283,-96,19,22,28,37,48,37,24,41,64,66,67,76,79,90,98,107,123,133,143,131,106,94,73,54,43,29,12,-11,-33,-57,-89,-117,-157,-189,-209,-222,-211,-190,-174,-154,-137,-124,-113,-104,-84,-65,-64,-58,-62,-58,-48,-64,-76,-66,-62,-77,-67,-56,-58
2018-05-22,09:58:33.064,-64,-61,-62,-63,-81,-71,-62,-65,-63,-59,-47,-8,3,13,54,94,72,47,47,36,-7,-73,-81,-78,-87,-81,-154,-193,128,1007,1581,307,-952,-903,-489,-230,-59,-39,-27,0,8,-2,16,20,15,22,36,44,61,67,70,59,70,97,116,112,100,91,67,47,32,24,23,12,-8,-23,-43,-74,-109,-145,-163,-155,-165,-158,-151,-149,-126,-103,-98,-98,-88,-67,-64,-76,-64,-58,-68,-66,-59,-60,-54,-57,-60,-67,-69,-56,-42,-40,-46,-53,-52,-57,-29,-24,-31,-25,-24,-21,8,13,25,79,104,74,45,51,38,-6,-67,-72,-74,-77,-72,-110,-148,91,946,1781
2018-05-22,09:58:34.101,601,-917,-958,-519,-246,-58,-40,-41,-27,-29,-20,-8,5,7,18,34,46,56,78,83,86,98,89,85,87,90,74,59,38,19,5,4,-8,-28,-37,-45,-80,-117,-140,-154,-166,-168,-164,-160,-143,-128,-131,-122,-105,-102,-94,-76,-58,-56,-54,-42,-42,-53,-57,-49,-49,-64,-67,-56,-53,-69,-75,-70,-76,-65,-60,-62,-43,-29,-33,-39,-44,-33,-32,-35,4,16,14,55,102,85,60,57,63,27,-44,-75,-54,-47,-55,-82,-146,-32,625,1654,1184,-587,-1040,-609,-298,-91,-44,-60,-41,-15,-18,-19,-6,-3,-4,-3,13,27,38,46,67,65,74,82,82,93,82,58
2018-05-22,09:58:35.138,53,42,16,5,6,2,-12,-51,-68,-82,-119,-160,-185,-185,-178,-170,-165,-142,-113,-108,-95,-94,-94,-78,-73,-72,-87,-67,-56,-56,-61,-67,-75,-65,-56,-50,-39,-52,-51,-43,-24,-25,-28,-25,-22,-20,-22,-20,-19,-26,-14,-3,-19,17,83,104,78,43,44,24,-41,-80,-65,-60,-50,-49,-104,-56,354,1163,1172,-284,-1016,-729,-352,-164,8,24,24,43,53,61,52,45,68,77,77,74,94,102,98,101,110,129,129,120,110,80,58,32,13,0,-24,-25,-51,-77,-102,-134,-150,-164,-170,-183,-191,-178,-169,-165,-150,-129,-111,-88,-86,-83,-73,-65,-57,-42,-28,-44
2018-05-22,09:58:36.176,-38,-33,-47,-52,-68,-64,-45,-48,-37,-27,-26,-25,-18,-16,-25,-26,-18,-19,-16,-19,-20,0,1,11,57,91,60,37,29,26,-25,-77,-71,-65,-75,-68,-128,-159,122,952,1526,358,-959,-948,-517,-250,-49,-41,-41,-19,-8,-2,0,6,16,20,28,45,67,83,85,92,101,102,113,106,99,91,75,54,45,28,26,30,17,-16,-53,-65,-103,-136,-152,-156,-161,-152,-143,-136,-123,-104,-106,-110,-98,-81,-76,-68,-61,-59,-71,-67,-69,-69,-69,-72,-82,-76,-69,-59,-52,-50,-60,-67,-56,-50,-46,-63,-55,-39,-38,-50,-53,-41,-5,5,13,73,134,104,52,53
2018-05-22,09:58:37.213,69,11,-51,-63,-45,-53,-55,-91,-134,67,853,1658,730,-782,-966,-543,-236,-42,-18,-27,-16,-13,3,1,5,13,19,27,48,53,67,77,85,86,83,85,95,95,85,75,61,45,33,28,12,0,-25,-47,-71,-92,-126,-147,-163,-159,-157,-157,-139,-118,-103,-95,-91,-85,-85,-73,-58,-49,-61,-63,-58,-60,-76,-64,-63,-64,-64,-60,-62,-63,-52,-51,-45,-47,-43,-37,-43,-37,-24,-22,-29,-38,-43,-2,7,11,54,91,70,33,28,20,-30,-99,-91,-91,-109,-106,-154,-177,96,969,1609,441,-908,-917,-493,-236,-69,-57,-57,-28,-17,-8,4,12,15,35,50,56
2018-05-22,09:58:38.250,82,95,104,103,104,117,119,132,123,107,94,70,49,24,12,0,-16,-23,-34,-62,-89,-115,-138,-153,-148,-152,-145,-124,-113,-107,-106,-89,-66,-43,-26,-29,-38,-33,-33,-35,-28,-25,-39,-48,-50,-53,-57,-52,-54,-60,-53,-49,-46,-40,-40,-38,-41,-34,-37,-26,-9,-19,24,82,82,48,23,32,-7,-72,-99,-83,-81,-72,-87,-156,-48,476,1362,927,-612,-1043,-687,-356,-134,-10,-11,2,21,15,6,18,24,28,46,57,57,56,62,69,81,94,96,113,117,98,82,75,62,32,15,3,-9,-21,-32,-66,-117,-144,-162,-184,-182,-168,-165,-164,-164,-138,-119,-116
2018-05-22,09:58:39.287,-107,-91,-86,-78,-65,-56,-47,-60,-75,-84,-86,-73,-82,-79,-72,-71,-59,-48,-55,-58,-66,-62,-42,-33,-33,-28,-37,-26,20,27,28,75,119,85,52,58,56,-10,-82,-75,-65,-73,-70,-116,-143,95,889,1597,489,-959,-989,-546,-259,-48,-38,-39,-13,5,16,28,20,31,29,43,62,73,69,79,94,108,122,122,121,112,104,87,61,33,26,17,7,0,-15,-43,-81,-102,-139,-168,-177,-164,-167,-149,-145,-131,-122,-108,-81,-76,-80,-75,-59,-47,-51,-38,-42,-66,-68,-58,-57,-56,-50,-45,-45,-49,-42,-26,-35,-44,-36,-35,-16,-2,-1,11,27,21,43,94
2018-05-22,09:58:40.325,121,92,60,73,43,-28,-89,-89,-74,-59,-53,-110,-127,222,1138,1595,215,-1013,-908,-487,-213,-42,-53,-41,-25,-19,-6,2,8,13,12,36,38,42,47,46,59,58,54,57,61,53,40,15,12,5,-2,1,0,-11,-32,-67,-98,-125,-147,-168,-175,-167,-151,-142,-133,-131,-115,-95,-94,-90,-61,-50,-54,-62,-55,-57,-69,-65,-69,-81,-65,-61,-64,-60,-51,-57,-52,-46,-38,-46,-40,-24,-25,-16,-1,-11,-9,35,43,66,111,133,104,92,102,73,-11,-66,-54,-45,-45,-61,-136,-127,280,1194,1332,-133,-1029,-786,-391,-182,-26,-28,-31,2,33,35,23,37,50,55
2018-05-22,09:58:41.362,84,87,102,96,98,119,111,116,116,114,105,76,50,42,28,14,3,8,-1,-32,-54,-96,-143,-159,-170,-181,-175,-177,-170,-178,-167,-141,-127,-102,-89,-78,-81,-80,-82,-87,-85,-90,-100,-91,-95,-88,-79,-65,-71,-80,-75,-63,-61,-65,-71,-53,-28,-17,-11,16,28,37,74,101,90,71,69,51,3,-61,-69,-65,-57,-53,-102,-149,51,795,1485,406,-918,-958,-537,-260,-36,15,7,20,17,31,40,37,37,50,55,70,91,92,108,122,117,123,110,101,91,79,59,51,29,21,13,0,-7,-36,-67,-92,-136,-183,-208,-202,-192,-182,-169,-155,-133,-123,-117,-97
2018-05-22,09:58:42.399,-92,-78,-76,-84,-85,-72,-64,-70,-61,-50,-59,-69,-57,-58,-45,-33,-41,-50,-58,-46,-51,-64,-59,-41,-36,-21,5,24,15,62,109,98,65,49,66,32,-43,-93,-84,-68,-81,-103,-147,-80,434,1378,1305,-344,-1100,-759,-352,-93,-10,-32,-18,1,11,18,24,34,35,30,43,49,52,42,59,78,97,100,83,83,76,57,56,50,31,8,-8,-4,-7,-23,-56,-83,-124,-150,-169,-183,-183,-177,-155,-144,-128,-113,-99,-96,-96,-82,-70,-60,-55,-48,-51,-55,-55,-45,-48,-66,-58,-39,-32,-29,-34,-62,-67,-54,-49,-46,-31,-27,-22,-43,-36,-2,-9,19,72,79
2018-05-22,09:58:43.437,55,27,53,30,-23,-83,-78,-80,-85,-88,-146,-156,208,1130,1553,160,-1026,-886,-467,-203,-40,-44,-31,-8,11,7,10,14,34,55,60,62,82,78,88,105,105,100,108,111,101,84,64,37,23,28,15,13,11,-4,-22,-53,-94,-135,-165,-180,-180,-180,-168,-158,-141,-128,-126,-116,-105,-103,-88,-69,-79,-67,-51,-55,-68,-68,-67,-67,-60,-71,-86,-89,-67,-66,-64,-46,-41,-42,-32,-22,-25,-34,-40,-31,-14,11,2,27,102,135,97,52,66,36,-18,-85,-80,-74,-65,-54,-126,-144,191,1117,1568,201,-961,-842,-432,-202,-46,-44,-33,-10,7,12,4,-1,14,34
2018-05-22,09:58:44.474,38,35,45,61,75,93,96,82,84,91,93,89,74,53,29,1,-2,0,-2,-5,-14,-54,-89,-115,-151,-165,-172,-151,-140,-136,-123,-115,-111,-105,-85,-76,-71,-63,-72,-75,-67,-65,-61,-65,-73,-88,-92,-89,-102,-85,-67,-70,-66,-75,-65,-58,-82,-72,-60,-44,-38,-26,-2,2,25,74,90,66,50,51,15,-52,-96,-72,-60,-55,-58,-117,-100,293,1165,1221,-253,-1033,-766,-384,-177,-24,-4,10,23,37,42,36,30,46,51,55,73,97,96,96,99,112,121,121,117,103,90,72,50,32,20,18,28,19,-1,-18,-46,-79,-125,-161,-161,-166,-167,-168,-170,-151
2018-05-22,09:58:45.511,-137,-123,-110,-90,-71,-56,-40,-38,-35,-39,-43,-37,-49,-57,-59,-63,-62,-59,-52,-48,-51,-43,-44,-53,-42,-48,-41,-35,-25,-20,-9,-17,13,11,30,82,103,77,57,57,31,-35,-79,-59,-59,-63,-58,-120,-118,225,1139,1557,54,-1049,-877,-460,-183,-18,-15,-20,3,19,14,20,32,36,49,46,54,47,59,72,69,81,99,98,111,102,80,74,57,32,16,-7,-8,-3,-13,-37,-55,-83,-125,-152,-161,-162,-144,-140,-138,-126,-122,-116,-105,-103,-82,-78,-81,-80,-69,-69,-71,-68,-64,-63,-60,-81,-82,-79,-71,-59,-54,-57,-56,-43,-41,-41,-46,-48,-35,-38
2018-05-22,09:58:46.548,-25,-23,-8,-4,7,58,78,53,48,50,34,-25,-93,-98,-84,-71,-54,-90,-128,100,908,1652,561,-927,-971,-516,-237,-53,-44,-36,-19,-15,-9,5,19,19,15,17,35,38,35,53,72,71,74,82,71,54,52,53,17,-6,-13,-12,-12,-19,-19,-33,-51,-78,-107,-125,-135,-139,-134,-134,-152,-143,-115,-96,-75,-54,-60,-55,-37,-36,-47,-57,-45,-48,-61,-64,-57,-48,-61,-61,-59,-63,-58,-53,-63,-51,-40,-31,-17,-28,-31,-41,-47,-43,-45,-11,8,29,92,129,93,45,43,38,-27,-85,-80,-78,-74,-67,-115,-147,50,784,1516,582,-846,-951,-483,-223,-47,-25
2018-05-22,09:58:47.586,-39,-17,10,7,-5,1,11,19,19,18,36,62,78,85,97,92,92,104,107,88,81,63,45,46,47,38,23,3,-14,-38,-64,-111,-141,-161,-175,-174,-165,-150,-139,-121,-110,-92,-71,-68,-68,-63,-57,-67,-72,-53,-41,-54,-56,-60,-58,-51,-42,-50,-49,-61,-67,-67,-55,-47,-50,-45,-55,-58,-56,-35,-19,-17,-15,30,94,95,47,48,52,1,-80,-97,-85,-78,-81,-107,-157,-4,598,1378,706,-742,-1003,-586,-277,-63,34,21,21,26,40,32,27,48,57,55,58,74,81,81,75,73,80,73,64,49,44,46,35,13,-4,-9,-12,-21,-34,-49,-67,-83
2018-05-22,09:58:48.623,-130,-142,-160,-160,-154,-140,-139,-141,-116,-106,-88,-72,-70,-71,-75,-61,-53,-47,-46,-56,-59,-70,-70,-68,-70,-63,-49,-50,-50,-34,-51,-56,-49,-39,-39,-29,-35,-38,-21,-3,17,5,37,90,107,75,64,72,39,-15,-69,-62,-48,-47,-59,-133,-121,269,1201,1442,-59,-1055,-837,-430,-164,-26,-47,-50,-26,-14,0,4,8,18,5,3,12,27,41,52,62,67,83,99,95,90,76,54,37,20,10,8,15,10,-9,-23,-50,-84,-111,-134,-124,-122,-134,-144,-139,-130,-115,-106,-84,-74,-63,-62,-66,-64,-65,-63,-39,-28,-50,-66,-63,-58,-45,-38,-44,-43,-49,-40
2018-05-22,09:58:49.660,-30,-28,-44,-43,-28,-32,-35,-46,-40,-9,9,0,44,99,85,52,38,54,2,-81,-114,-96,-88,-82,-89,-157,-68,558,1588,1173,-540,-1038,-639,-309,-84,-18,-24,-8,-10,-3,6,-2,-6,15,32,33,45,33,55,76,87,90,69,59,65,46,29,23,16,0,-4,-9,-2,2,-21,-53,-83,-115,-139,-158,-164,-174,-173,-164,-143,-122,-113,-103,-96,-90,-87,-77,-51,-53,-65,-60,-49,-54,-59,-56,-56,-54,-54,-68,-74,-74,-60,-62,-65,-53,-40,-30,-9,-12,-26,-22,-12,-1,28,30,38,95,127,92,66,73,55,-9,-67,-61,-54,-42,-43,-100,-125,194,1046,1423
2018-05-22,09:58:50.697,-30,-1028,-803,-362,-160,-8,-5,-3,27,45,52,51,47,45,55,44,49,53,59,70,88,95,100,98,98,84,77,71,52,36,9,-1,12,7,-24,-43,-68,-120,-152,-162,-169,-172,-167,-156,-145,-127,-117,-103,-92,-106,-92,-95,-81,-62,-62,-72,-74,-51,-60,-67,-72,-70,-67,-63,-56,-42,-47,-59,-58,-52,-69,-70,-49,-41,-46,-45,-22,0,5,52,99,82,47,53,55,2,-59,-62,-59,-66,-74,-106,-152,4,643,1457,751,-754,-1001,-567,-258,-35,27,18,35,42,48,36,42,67,71,73,95,102,112,111,123,125,110,102,106,92,88,65,50,20,-1,1
2018-05-22,09:58:51.735,-13,-31,-26,-39,-62,-100,-139,-165,-189,-205,-199,-189,-179,-159,-142,-138,-120,-95,-72,-67,-79,-68,-50,-45,-48,-52,-46,-47,-59,-56,-59,-54,-52,-71,-56,-41,-43,-32,-36,-42,-41,-45,-34,-26,-30,-15,11,-7,11,65,79,50,34,49,11,-58,-99,-83,-80,-75,-86,-158,-142,283,1232,1450,-52,-1055,-823,-395,-133,-23,-39,-2,20,17,8,15,24,34,34,44,52,48,56,68,72,78,91,96,93,76,53,41,48,32,12,0,-9,-11,-15,-36,-58,-91,-119,-143,-163,-171,-179,-176,-171,-158,-141,-131,-131,-125,-105,-89,-82,-78,-68,-59,-48,-52,-57,-54,-62,-58
2018-05-22,09:58:52.772,-62,-51,-62,-57,-52,-64,-73,-69,-53,-39,-33,-27,-25,-24,-30,-28,1,21,39,83,116,91,74,53,53,1,-62,-71,-56,-58,-62,-93,-158,-21,664,1590,969,-644,-1004,-592,-285,-98,-62,-68,-48,-41,-37,-19,-9,1,11,28,40,46,53,72,78,71,73,75,63,60,61,47,33,14,10,22,21,-4,-16,-29,-45,-88,-111,-142,-162,-166,-162,-159,-140,-141,-126,-109,-79,-63,-58,-49,-48,-34,-34,-35,-36,-45,-43,-29,-34,-54,-58,-51,-54,-62,-65,-60,-61,-53,-47,-41,-32,-31,-53,-40,-29,-26,0,23,28,65,104,94,63,61,52,2,-61,-69,-64,-64
2018-05-22,09:58:53.809,-58,-82,-138,-21,551,1325,739,-685,-985,-571,-256,-78,32,45,48,60,68,73,67,65,68,81,83,92,87,99,112,112,113,116,119,121,122,108,82,64,35,7,0,-6,-8,-22,-63,-104,-137,-161,-196,-196,-187,-193,-194,-186,-185,-160,-137,-128,-108,-95,-88,-71,-53,-54,-55,-59,-50,-47,-50,-69,-76,-81,-72,-52,-48,-54,-41,-58,-56,-56,-49,-58,-45,-42,-45,-18,1,9,65,101,67,19,10,0,-50,-116,-135,-107,-99,-97,-117,-168,-23,627,1538,888,-724,-1036,-637,-308,-67,-18,-23,0,27,29,33,33,37,46,62,74,68,63,71,76,87,88,85,78
2018-05-22,09:58:54.846,76,72,50,39,27,10,7,12,1,-23,-34,-52,-84,-131,-163,-167,-162,-164,-154,-136,-134,-124,-117,-104,-84,-73,-57,-49,-52,-50,-45,-50,-53,-52,-39,-31,-19,-26,-18,-18,-7,-2,-5,-7,-8,-23,-31,-5,6,3,13,1,-22,-5,2,9,76,113,84,63,57,45,-11,-74,-90,-90,-100,-109,-135,-183,4,731,1577,760,-845,-1055,-597,-282,-67,-38,-47,-36,-12,10,14,17,20,32,30,11,13,35,45,65,74,74,77,79,78,68,38,15,13,13,17,17,17,11,-4,-36,-89,-120,-152,-176,-176,-166,-163,-159,-141,-120,-113,-105,-83,-66,-68,-50,-34,-27
2018-05-22,09:58:55.884,-27,-49,-56,-40,-40,-39,-51,-58,-52,-56,-59,-52,-36,-32,-35,-25,-16,-5,1,0,-12,-15,-12,-12,13,21,20,78,120,85,59,66,61,1,-62,-77,-44,-42,-58,-99,-149,24,742,1605,814,-788,-1002,-546,-247,-53,-36,-41,-18,0,15,18,18,27,41,37,30,40,47,55,48,43,43,60,65,74,68,61,41,26,12,-3,-2,4,-15,-35,-48,-78,-108,-138,-157,-168,-171,-154,-138,-117,-107,-100,-105,-106,-73,-45,-43,-45,-42,-34,-38,-38,-45,-61,-59,-53,-47,-49,-52,-60,-65,-67,-68,-61,-52,-38,-35,-37,-26,-30,-20,-33,-9,3,18,48,111,95
2018-05-22,09:58:56.921,56,65,57,-18,-77,-85,-53,-51,-69,-116,-156,33,689,1313,425,-862,-968,-532,-277,-105,-9,-1,22,30,44,45,35,41,51,63,65,55,66,84,98,99,116,116,118,118,95,77,67,64,49,32,10,0,3,-34,-71,-93,-122,-144,-154,-165,-175,-164,-160,-143,-137,-133,-117,-103,-92,-85,-80,-79,-70,-68,-72,-74,-78,-91,-79,-86,-72,-66,-68,-68,-61,-65,-71,-63,-68,-85,-82,-65,-50,-36,-21,16,9,34,89,108,81,44,50,5,-59,-90,-80,-81,-77,-83,-136,-86,348,1235,1330,-167,-1037,-799,-431,-171,-27,-24,-14,2,8,28,35,41,44,47,60,59
2018-05-22,09:58:57.958,58,70,82,90,94,87,87,89,81,79,49,28,15,15,14,-4,-4,-17,-55,-97,-130,-157,-176,-189,-186,-174,-150,-148,-136,-115,-105,-83,-69,-66,-53,-44,-37,-46,-43,-52,-64,-69,-66,-67,-58,-53,-41,-42,-55,-63,-46,-39,-40,-24,-29,-29,-16,-14,-13,-16,7,13,7,41,84,66,37,39,34,-13,-72,-77,-82,-82,-81,-121,-162,57,850,1646,604,-856,-952,-541,-239,-31,-15,-17,-14,0,15,22,15,4,13,20,43,53,61,58,68,94,95,99,106,100,80,61,48,29,-2,-13,-10,-3,-3,-15,-52,-88,-112,-127,-129,-138,-126,-122,-124,-116,-117,-111
2018-05-22,09:58:58.995,-96,-78,-72,-64,-58,-57,-58,-58,-64,-67,-70,-58,-51,-46,-46,-54,-69,-64,-50,-41,-29,-20,-26,-24,-29,-27,-26,-13,-12,-19,18,31,22,59,102,96,57,50,61,0,-90,-117,-90,-74,-85,-101,-183,-116,463,1493,1245,-508,-1089,-693,-329,-100,-32,-38,-37,-22,-8,5,6,8,17,32,33,46,48,41,46,53,69,77,67,59,55,41,20,0,-6,-17,-26,-19,-20,-44,-69,-82,-119,-157,-172,-181,-179,-162,-143,-129,-116,-119,-113,-91,-73,-70,-55,-35,-26,-23,-22,-23,-28,-36,-33,-24,-31,-18,-11,-21,-25,-18,-12,3,0,-17,-15,-6,-22,-4,1,5
2018-05-22,09:59:00.033,21,37,30,53,100,124,96,78,84,45,-5,-52,-56,-62,-67,-54,-109,-117,190,974,1291,-39,-1038,-859,-434,-215,-40,-1,-1,21,31,15,18,25,34,49,47,60,90,102,100,95,107,118,112,106,122,111,86,66,47,36,23,3,-11,-29,-47,-84,-114,-128,-153,-178,-179,-176,-183,-178,-153,-135,-135,-128,-109,-89,-76,-69,-53,-47,-41,-39,-52,-68,-73,-67,-73,-77,-63,-45,-41,-47,-47,-48,-53,-51,-60,-62,-61,-52,-39,-36,-5,5,21,79,102,62,40,44,20,-38,-99,-95,-73,-77,-78,-127,-147,111,884,1435,298,-959,-951,-504,-235,-37,-26,-25,-13,-10
2018-05-22,09:59:01.070,-9,-3,12,21,25,30,48,79,65,62,70,71,77,73,86,89,82,60,39,20,22,18,21,12,8,-30,-53,-82,-116,-135,-162,-165,-162,-157,-138,-127,-119,-120,-113,-80,-72,-64,-60,-56,-55,-53,-65,-76,-84,-82,-81,-75,-75,-78,-74,-50,-40,-47,-51,-40,-38,-30,-16,-7,-8,-11,-17,-15,13,15,18,74,100,67,39,34,28,-34,-96,-90,-70,-88,-84,-108,-151,46,770,1568,708,-800,-991,-556,-253,-36,-17,-34,-23,-2,7,15,16,21,37,56,52,53,53,44,65,69,71,83,92,64,47,36,16,1,-6,-10,-14,-14,-23,-30,-45,-71,-100,-137
2018-05-22,09:59:02.107,-152,-155,-161,-146,-126,-118,-115,-94,-77,-84,-87,-56,-30,-23,-25,-32,-35,-26,-27,-14,-14,-34,-56,-64,-68,-65,-51,-54,-71,-64,-59,-43,-33,-35,-31,-35,-47,-65,-44,-14,-25,10,44,53,28,20,44,6,-61,-86,-67,-67,-67,-89,-165,-101,439,1447,1288,-363,-1049,-710,-354,-115,-34,-47,-26,-9,12,18,33,28,23,37,46,51,53,69,76,77,74,81,99,99,94,76,57,31,4,-7,-5,-7,-21,-36,-33,-60,-110,-134,-169,-169,-159,-157,-156,-140,-119,-89,-83,-72,-63,-43,-39,-47,-59,-56,-37,-36,-48,-46,-47,-40,-41,-52,-48,-45,-46,-50,-56,-55
2018-05-22,09:59:03.144,-64,-49,-46,-51,-42,-23,-11,0,0,-9,11,39,35,51,89,97,70,60,65,18,-45,-79,-64,-67,-55,-69,-137,-60,419,1284,1003,-483,-1007,-667,-328,-134,-7,-1,14,28,32,41,42,43,58,64,62,70,78,91,104,109,106,110,108,101,102,88,70,56,50,33,20,7,-8,-26,-43,-78,-113,-132,-144,-162,-160,-150,-152,-142,-124,-130,-121,-111,-108,-101,-99,-91,-90,-90,-85,-80,-81,-81,-69,-72,-81,-80,-80,-82,-63,-62,-58,-44,-35,-49,-33,-25,-25,-22,-26,-19,-26,-3,6,27,66,88,72,49,40,15,-43,-102,-102,-107,-108,-94,-123,-123,199,1083
2018-05-22,09:59:04.182,1557,117,-1021,-873,-443,-187,-24,-17,-5,11,17,27,32,38,50,36,40,61,83,82,81,98,105,99,89,95,88,94,81,56,28,10,15,11,1,-10,-25,-46,-75,-103,-136,-154,-156,-153,-144,-141,-126,-102,-86,-82,-74,-72,-63,-64,-59,-61,-75,-74,-72,-72,-76,-80,-81,-74,-75,-70,-67,-67,-51,-33,-35,-42,-40,-34,-48,-32,-30,-39,-55,-41,-1,-2,30,87,98,66,41,67,40,-29,-82,-79,-80,-82,-84,-145,-114,309,1284,1463,-146,-1091,-805,-392,-132,-28,-40,-10,9,13,11,4,-3,5,26,34,47,49,60,71,73,69,77,84,80,78,71,62
2018-05-22,09:59:05.219,60,28,0,-6,-2,-8,-12,-18,-43,-79,-117,-153,-175,-172,-161,-148,-139,-102,-80,-96,-75,-69,-71,-76,-67,-72,-82,-78,-73,-77,-74,-57,-53,-55,-47,-46,-42,-54,-46,-37,-30,-32,-32,-33,-26,-26,-9,-15,-24,-7,26,32,38,93,135,98,69,55,31,-20,-75,-84,-81,-77,-92,-135,-180,28,790,1612,730,-842,-1018,-569,-272,-68,-59,-56,-32,-23,-22,-27,-23,-22,-10,1,11,27,43,59,77,85,76,68,74,79,71,66,41,22,6,5,4,-6,-12,-22,-40,-65,-102,-140,-159,-158,-163,-161,-149,-132,-133,-117,-99,-90,-82,-72,-64,-72,-53,-44,-38,-36
2018-05-22,09:59:06.256,-37,-50,-60,-56,-53,-49,-54,-51,-46,-37,-35,-46,-33,-25,-21,-14,-8,2,4,6,24,23,37,110,130,90,78,83,36,-51,-99,-61,-43,-49,-64,-101,-77,288,1111,1201,-211,-1044,-783,-386,-195,-12,1,-2,13,35,40,35,48,55,53,68,90,94,85,69,74,80,77,76,78,72,68,53,21,18,16,9,-2,-11,-16,-29,-60,-92,-117,-141,-159,-157,-156,-142,-139,-129,-118,-103,-93,-87,-73,-50,-45,-41,-36,-40,-39,-31,-21,-24,-42,-69,-70,-56,-55,-63,-61,-61,-56,-43,-32,-28,-39,-43,-39,-44,-52,-37,-25,-16,-12,25,65,53,21,29,41,6
2018-05-22,09:59:07.293,-74,-101,-81,-76,-73,-98,-163,-102,413,1361,1252,-340,-1072,-751,-377,-129,-23,-21,-7,9,11,16,5,12,34,37,36,38,42,46,57,71,83,87,91,92,79,60,44,20,2,-4,2,-18,-32,-23,-37,-54,-86,-130,-152,-153,-155,-166,-165,-148,-139,-129,-118,-93,-86,-83,-61,-59,-49,-44,-36,-38,-31,-31,-30,-45,-53,-51,-49,-46,-40,-39,-40,-39,-39,-39,-42,-25,-8,-8,0,-3,-8,-18,16,34,44,87,112,69,51,58,37,-26,-102,-102,-90,-104,-98,-145,-170,84,894,1591,495,-914,-981,-540,-251,-74,-67,-73,-45,-19,-10,-9,-18,-12,9,23,3,13
2018-05-22,09:59:08.331,24,18,42,53,52,61,65,49,25,11,13,5,-13,-5,5,-9,-27,-36,-67,-91,-104,-147,-188,-179,-159,-151,-139,-127,-120,-118,-101,-76,-69,-57,-41,-21,-29,-31,-26,-23,-30,-36,-29,-29,-34,-30,-22,-31,-35,-42,-35,-33,-35,-41,-37,-35,-22,-17,-28,-31,-25,-29,-13,11,11,43,90,79,40,28,44,13,-65,-85,-58,-45,-51,-78,-148,-78,489,1489,1237,-427,-1026,-644,-299,-105,-41,-49,-33,-10,-2,3,27,42,49,52,49,52,61,74,68,76,88,94,89,81,85,74,55,50,27,18,32,21,13,19,5,-44,-87,-117,-142,-162,-175,-172,-167,-146
2018-05-22,09:59:09.368,-130,-118,-117,-116,-93,-72,-60,-31,-40,-34,-29,-32,-21,-18,-35,-43,-67,-69,-63,-63,-53,-49,-47,-40,-28,-37,-27,-15,-5,-9,-10,-6,0,24,28,17,46,97,100,65,62,69,11,-70,-82,-56,-64,-75,-100,-171,-80,465,1376,852,-685,-1048,-646,-336,-153,-43,-49,-37,-13,-4,14,27,33,49,66,63,73,90,93,89,89,99,103,105,105,94,81,50,37,26,12,4,-7,-18,-22,-46,-80,-108,-137,-171,-174,-176,-168,-164,-162,-150,-134,-123,-118,-101,-103,-97,-89,-86,-81,-77,-79,-79,-86,-88,-90,-87,-92,-91,-74,-60,-55,-61,-68,-64,-60,-66,-50,-34
2018-05-22,09:59:10.405,-33,-30,-38,-14,2,29,36,44,97,153,134,97,98,85,19,-53,-59,-47,-54,-70,-113,-165,20,778,1635,711,-861,-1000,-567,-266,-65,-56,-55,-27,-23,-13,1,23,39,37,27,20,4,30,42,48,67,60,57,54,61,68,66,54,24,16,10,5,-1,-1,-6,-19,-42,-81,-118,-144,-160,-179,-181,-157,-147,-140,-128,-108,-110,-98,-92,-97,-75,-50,-48,-52,-53,-49,-38,-36,-38,-24,-29,-39,-39,-45,-43,-42,-35,-27,-33,-32,-28,-17,-23,-11,-5,-7,-3,24,22,63,123,126,90,83,90,40,-27,-85,-96,-92,-76,-76,-153,-130,328,1305,1455,-195,-1110,-801
2018-05-22,09:59:11.442,-388,-131,-33,-30,-22,4,13,11,12,13,10,11,13,23,47,61,65,67,67,66,69,77,64,57,31,9,6,6,-2,2,-2,-9,-2,-36,-66,-95,-130,-149,-153,-149,-142,-124,-97,-74,-58,-58,-56,-52,-58,-66,-55,-45,-49,-51,-50,-43,-40,-61,-55,-59,-61,-52,-57,-60,-51,-53,-53,-66,-69,-50,-46,-41,-27,-24,-3,2,-29,-23,4,5,38,87,88,62,56,66,20,-58,-76,-58,-64,-54,-56,-121,-62,464,1422,1262,-403,-1062,-683,-313,-119,-41,-42,-26,-14,2,9,13,2,5,12,20,40,51,60,57,54,67,88,92,107,106,73,49,31,26
2018-05-22,09:59:12.480,1,-7,-6,-19,-26,-42,-70,-103,-159,-186,-188,-210,-207,-196,-181,-168,-150,-124,-113,-115,-97,-84,-77,-75,-72,-52,-58,-72,-61,-62,-66,-48,-50,-41,-39,-34,-32,-31,-40,-62,-67,-56,-40,-38,-32,-32,-30,-2,28,16,50,113,118,99,95,105,64,-13,-27,-24,-45,-52,-66,-128,-95,343,1236,1182,-338,-1055,-745,-371,-167,-17,-23,-21,-3,15,18,14,25,34,37,40,60,69,74,80,83,84,81,73,82,72,56,40,27,14,-8,-13,-22,-34,-41,-40,-70,-110,-149,-169,-189,-191,-182,-167,-160,-136,-136,-125,-92,-76,-70,-58,-52,-38,-24,-21,-20,-28,-23,-43
2018-05-22,09:59:13.517,-61,-56,-35,-35,-37,-50,-47,-53,-46,-39,-48,-42,-25,-25,-24,-12,-3,20,31,41,71,94,75,37,36,36,-31,-90,-89,-89,-79,-93,-133,-178,28,810,1561,582,-879,-1013,-581,-269,-62,-52,-44,-23,-9,6,10,28,51,57,59,63,60,65,82,82,70,58,58,66,58,49,50,37,13,2,-3,-1,2,-1,0,-23,-64,-111,-151,-173,-168,-161,-148,-144,-139,-131,-118,-112,-99,-85,-75,-78,-64,-60,-73,-81,-76,-80,-77,-79,-80,-88,-68,-63,-75,-66,-49,-56,-55,-45,-45,-32,-22,-22,-23,-24,-24,18,39,46,105,138,101,79,94,75,16,-48,-45,-40
2018-05-22,09:59:14.554,-43,-42,-109,-142,141,1024,1634,354,-945,-904,-482,-215,-49,-35,-25,-18,-8,0,12,10,20,18,20,28,29,40,48,63,58,47,43,45,55,57,55,45,35,15,-11,-16,3,1,-23,-49,-86,-129,-162,-175,-187,-188,-180,-173,-170,-143,-126,-119,-124,-112,-89,-69,-52,-49,-49,-40,-43,-52,-53,-49,-50,-47,-27,-14,-18,-27,-46,-36,-40,-50,-42,-32,5,9,1,-7,-8,7,33,45,62,105,143,124,105,100,77,13,-42,-38,-33,-31,-40,-110,-147,117,968,1552,304,-957,-903,-474,-247,-58,-28,-30,-8,7,17,25,25,19,36,39,41,57,74,75,71,76
2018-05-22,09:59:15.592,81,79,77,87,89,72,55,37,30,13,-13,-22,-12,-28,-67,-92,-118,-136,-161,-173,-162,-150,-143,-135,-129,-122,-115,-102,-96,-88,-84,-57,-47,-52,-63,-70,-81,-72,-55,-50,-57,-53,-57,-67,-73,-57,-44,-45,-41,-44,-48,-34,-35,-30,-12,10,20,54,110,102,59,36,45,11,-49,-79,-75,-70,-57,-52,-108,-90,336,1266,1318,-281,-1073,-748,-378,-160,-13,-2,5,13,13,13,8,13,14,18,28,41,48,65,64,72,87,87,92,102,96,88,66,48,42,32,0,-8,-11,-37,-61,-76,-118,-163,-179,-185,-196,-181,-169,-162,-141,-124,-112,-109,-99,-84,-75,-59
2018-05-22,09:59:16.629,-48,-43,-46,-44,-48,-42,-32,-41,-55,-50,-44,-61,-67,-65,-51,-44,-49,-42,-31,-32,-27,-17,-22,-17,-16,-2,5,15,58,87,52,34,44,9,-53,-94,-84,-81,-72,-84,-139,-134,262,1208,1563,85,-1022,-829,-414,-178,-29,-45,-41,-9,-5,-10,0,13,22,40,46,43,52,67,69,69,72,80,81,80,62,47,51,36,21,12,4,-20,-36,-46,-64,-87,-119,-142,-159,-178,-179,-184,-187,-175,-151,-135,-124,-111,-108,-92,-80,-70,-58,-35,-48,-64,-47,-41,-49,-44,-38,-35,-33,-40,-40,-45,-53,-47,-33,-31,-19,-17,-25,-22,-13,-16,-26,-31,-6,12,16,59
2018-05-22,09:59:17.666,108,89,55,42,44,8,-62,-79,-56,-50,-46,-65,-141,-21,620,1584,1118,-560,-1053,-641,-294,-84,-24,-41,-30,-14,-8,-1,10,7,10,22,44,48,63,65,62,69,88,85,88,80,82,76,52,35,19,14,10,0,-3,-14,-30,-62,-106,-140,-154,-166,-168,-165,-154,-146,-130,-115,-115,-118,-110,-105,-95,-77,-74,-49,-48,-51,-45,-33,-29,-30,-33,-31,-20,-16,-24,-28,-28,-24,-19,-28,-27,-41,-44,-51,-41,-28,-29,-19,-7,0,42,95,82,50,57,64,15,-60,-60,-57,-57,-52,-80,-130,47,706,1427,612,-776,-964,-556,-301,-126,-32,-32,-7,11,6,5,-5
2018-05-22,09:59:18.703,23,30,19,38,43,42,56,58,59,54,59,70,66,63,56,37,11,2,-3,0,-3,-20,-35,-61,-91,-113,-151,-171,-164,-150,-159,-152,-127,-114,-105,-102,-97,-91,-78,-64,-54,-51,-33,-20,-48,-57,-51,-42,-35,-36,-47,-34,-27,-25,-23,-25,-22,-26,-20,-27,-31,-31,-29,-33,-39,-50,-46,-33,-31,5,59,78,37,5,12,-10,-80,-117,-88,-80,-71,-74,-131,-72,414,1374,1319,-267,-1030,-742,-382,-147,-23,-35,-29,-3,1,10,43,45,37,51,58,58,55,68,69,79,94,106,107,92,82,78,68,54,43,30,15,19,26,10,-21,-53,-99,-131,-158,-174
2018-05-22,09:59:19.741,-183,-168,-152,-139,-127,-115,-103,-98,-73,-63,-62,-40,-40,-47,-55,-51,-54,-61,-71,-68,-58,-62,-52,-58,-62,-61,-54,-67,-67,-57,-59,-56,-57,-36,-25,-21,-15,-8,-1,-14,-2,1,6,54,99,78,29,24,15,-35,-86,-82,-78,-96,-86,-111,-138,95,911,1656,585,-857,-951,-508,-206,-34,-23,-25,-7,0,6,23,18,12,6,2,12,24,14,10,24,49,71,76,61,63,60,53,32,18,3,5,9,0,-9,-18,-31,-60,-105,-129,-149,-160,-154,-165,-166,-142,-149,-133,-104,-89,-71,-64,-68,-64,-53,-32,-31,-32,-27,-25,-38,-41,-50,-41,-44,-53,-59,-54
2018-05-22,09:59:20.778,-50,-47,-54,-48,-51,-37,-28,-33,-38,-28,-29,-31,-24,-10,7,19,46,104,122,70,45,66,22,-39,-75,-76,-78,-87,-82,-142,-111,332,1297,1370,-188,-1036,-746,-344,-125,-27,-37,-23,-7,8,20,8,10,15,21,39,51,55,77,88,85,92,108,106,105,96,95,75,57,37,20,1,2,9,1,-17,-34,-65,-97,-114,-123,-138,-139,-143,-129,-111,-95,-85,-87,-69,-56,-63,-61,-55,-55,-50,-60,-63,-62,-65,-65,-63,-60,-66,-61,-43,-28,-36,-49,-49,-59,-74,-61,-60,-79,-70,-57,-62,-55,-41,-12,0,29,73,96,72,52,50,20,-46,-82,-77,-76,-77
2018-05-22,09:59:21.815,-80,-135,-118,250,1111,1229,-209,-1052,-804,-395,-182,-29,-20,-7,3,4,5,11,16,35,54,45,43,49,63,68,67,77,100,107,109,98,91,79,60,34,22,21,15,2,-2,-20,-51,-87,-123,-149,-173,-183,-171,-162,-163,-141,-122,-107,-101,-88,-83,-64,-67,-67,-53,-50,-58,-68,-74,-57,-69,-92,-96,-83,-73,-53,-42,-59,-78,-67,-63,-67,-72,-67,-57,-47,-46,-48,-45,-31,-7,2,33,75,80,40,0,13,10,-32,-83,-73,-54,-62,-58,-122,-121,236,1154,1553,113,-1000,-827,-400,-142,5,-20,-25,-6,6,16,20,33,46,47,39,55,74,80,81,87,81
2018-05-22,09:59:22.852,82,89,72,78,77,48,44,37,8,-13,-4,-21,-30,-40,-65,-88,-106,-134,-165,-170,-165,-163,-154,-156,-151,-131,-113,-86,-82,-73,-62,-51,-50,-44,-44,-45,-47,-52,-49,-54,-48,-59,-59,-61,-50,-47,-47,-44,-45,-51,-51,-39,-34,-38,-36,-51,-41,-7,10,20,69,105,91,69,70,63,16,-49,-65,-49,-47,-65,-113,-164,11,788,1708,807,-827,-1012,-564,-249,-51,-43,-49,-16,11,4,-1,13,14,7,23,26,33,50,72,82,77,92,88,75,97,90,64,52,35,21,25,20,17,2,-11,-13,-48,-78,-104,-140,-163,-163,-151,-137,-127,-115,-111,-93,-63,-71
2018-05-22,09:59:23.890,-60,-69,-73,-57,-56,-42,-33,-37,-39,-36,-52,-63,-65,-57,-57,-60,-65,-61,-69,-56,-40,-26,-28,-31,-20,-17,-12,-14,16,25,24,64,105,80,57,60,42,-16,-74,-80,-66,-63,-73,-131,-186,32,799,1563,610,-877,-988,-508,-267,-79,-29,-33,-17,0,4,15,15,-4,12,24,19,29,57,59,67,82,84,87,83,79,85,86,66,31,1,-10,-11,-24,-36,-31,-55,-101,-132,-140,-138,-160,-174,-176,-157,-133,-105,-94,-89,-81,-68,-64,-53,-41,-58,-57,-45,-47,-68,-80,-91,-86,-74,-63,-64,-62,-60,-64,-73,-74,-75,-70,-54,-59,-58,-49,-7,-9,-7,43
2018-05-22,09:59:24.927,60,31,16,34,3,-61,-95,-80,-72,-68,-59,-116,-130,203,1071,1431,81,-976,-835,-421,-198,-28,-22,-31,-12,23,44,61,71,66,54,61,61,64,78,84,78,88,85,93,95,80,66,68,56,41,25,15,9,-8,-6,-25,-57,-84,-113,-143,-156,-159,-153,-155,-155,-143,-144,-132,-100,-86,-83,-65,-54,-45,-45,-57,-48,-59,-67,-62,-50,-57,-59,-65,-72,-68,-72,-63,-49,-46,-38,-27,-25,-27,-30,-17,-6,11,3,23,73,94,78,70,74,51,-3,-64,-55,-54,-77,-82,-132,-144,171,1057,1572,271,-989,-929,-504,-223,-60,-56,-43,-22,-15,-3,1,8,26,29
2018-05-22,09:59:25.964,37,59,58,64,52,72,75,68,64,67,72,64,50,30,15,8,10,12,0,0,-10,-48,-84,-119,-154,-162,-145,-149,-149,-133,-108,-109,-103,-87,-82,-71,-60,-51,-47,-46,-46,-29,-28,-37,-36,-48,-41,-41,-40,-41,-41,-41,-41,-41,-36,-21,-4,-11,-13,-5,3,-12,-28,-9,-7,5,62,89,53,34,56,53,-11,-89,-84,-60,-56,-72,-160,-222,65,945,1592,339,-1015,-1009,-597,-314,-131,-133,-128,-92,-74,-75,-63,-48,-42,-39,-35,-38,-25,-9,10,13,28,55,80,97,98,87,85,84,56,39,47,55,54,27,26,4,-30,-71,-88,-107,-120,-134,-132,-101
2018-05-22,09:59:27.001,-78,-66,-73,-75,-58,-43,-52,-52,-35,-41,-46,-44,-53,-56,-55,-55,-63,-51,-28,-13,-26,-21,-19,-17,-23,-21,-21,-29,-22,-7,2,4,24,27,38,97,132,107,80,88,79,24,-46,-60,-46,-41,-48,-97,-147,60,792,1555,554,-853,-948,-525,-248,-61,-19,-24,-8,-6,0,11,26,36,47,58,80,85,87,108,111,123,141,163,157,150,141,126,103,70,43,32,29,9,-5,-19,-52,-81,-115,-155,-178,-187,-197,-186,-170,-148,-145,-143,-135,-119,-105,-97,-103,-106,-97,-95,-86,-80,-87,-98,-113,-119,-119,-123,-111,-96,-87,-81,-73,-61,-43,-48,-48,-32,-49,-54
2018-05-22,09:59:28.039,-43,0,3,20,73,77,60,53,85,49,-14,-53,-50,-39,-52,-68,-123,-133,213,1096,1465,66,-1014,-830,-431,-217,-34,-21,-9,5,3,8,-1,-10,2,-2,3,22,34,36,41,52,73,78,84,102,117,119,105,80,65,57,47,31,21,9,-14,-44,-90,-130,-151,-165,-175,-168,-164,-153,-144,-129,-113,-103,-103,-98,-93,-92,-88,-83,-71,-70,-89,-89,-73,-82,-76,-69,-80,-67,-50,-37,-42,-41,-43,-41,-30,-36,-37,-35,-42,-46,-36,3,6,20,70,107,74,52,68,45,-18,-84,-75,-81,-89,-91,-144,-166,129,988,1619,434,-946,-932,-487,-218,-44,-47,-33,5
2018-05-22,09:59:29.076,12,15,7,7,19,33,34,30,55,63,61,70,75,77,78,84,67,63,65,57,31,19,6,0,4,2,-15,-45,-58,-93,-123,-134,-149,-154,-141,-148,-125,-110,-104,-98,-82,-82,-72,-69,-70,-51,-52,-45,-33,-38,-51,-53,-65,-75,-57,-41,-47,-48,-47,-48,-47,-31,-32,-46,-47,-52,-53,-47,-51,-69,-42,-17,-5,35,84,79,43,31,48,-17,-89,-108,-93,-71,-54,-86,-140,34,768,1634,854,-749,-1022,-609,-307,-89,-50,-47,-22,2,11,9,9,11,19,31,31,40,46,58,75,85,88,98,109,104,98,89,72,60,35,18,16,11,10,-13,-37,-65
2018-05-22,09:59:30.113,-97,-127,-159,-174,-175,-174,-179,-179,-168,-142,-121,-109,-100,-86,-66,-55,-61,-50,-36,-8,-2,-13,-8,0,8,0,-6,-13,-8,-7,-1,7,14,-1,-21,-29,-16,-18,-18,-23,-27,-23,-9,9,39,65,59,47,27,27,-16,-63,-64,-69,-70,-76,-143,-58,456,1338,1057,-453,-1005,-645,-290,-103,9,1,-2,-1,9,19,18,-2,-2,4,25,45,68,73,82,105,113,122,128,137,137,130,97,62,53,33,20,6,-17,-36,-54,-83,-114,-140,-182,-186,-184,-191,-177,-158,-139,-142,-123,-104,-93,-77,-59,-55,-46,-41,-36,-39,-41,-50,-58,-64,-69,-71,-65,-70,-66,-65
2018-05-22,09:59:31.150,-62,-53,-48,-57,-43,-36,-37,-36,-35,-43,-27,-5,1,11,27,6,0,10,-19,-65,-68,-73,-79,-76,-138,-118,285,1248,1486,-55,-1023,-814,-419,-174,-34,-19,-22,-11,6,9,10,-3,6,14,10,19,31,41,40,42,34,41,44,54,64,61,49,37,32,23,8,9,1,-22,-43,-60,-85,-118,-140,-153,-149,-146,-145,-143,-145,-125,-97,-83,-77,-55,-47,-50,-59,-69,-57,-35,-50,-67,-49,-44,-54,-58,-64,-77,-69,-61,-65,-46,-38,-50,-45,-37,-19,-18,-30,-29,-20,20,7,25,58,47,33,22,32,13,-34,-72,-64,-64,-58,-78,-143,-34,571,1589,1285,-480
2018-05-22,09:59:32.188,-1049,-663,-321,-90,-43,-57,-39,-30,-31,-30,-33,-13,-1,7,7,10,13,25,46,52,52,62,55,41,49,62,40,23,7,-11,-23,-28,-30,-34,-36,-53,-74,-112,-139,-151,-154,-141,-118,-120,-112,-95,-94,-83,-74,-61,-48,-36,-9,1,5,-20,-21,-1,-10,-16,-32,-32,-39,-46,-35,-44,-52,-51,-47,-52,-56,-52,-59,-48,-36,-48,-10,2,9,47,66,60,30,16,16,-16,-73,-61,-42,-39,-50,-115,-142,144,1017,1697,517,-930,-947,-506,-237,-56,-67,-55,-28,-23,-4,9,32,42,20,30,51,40,41,60,75,73,64,68,75,75,58,51,35,20,24,6
2018-05-22,09:59:33.225,16,15,-4,-23,-42,-54,-89,-119,-139,-143,-137,-142,-145,-124,-104,-102,-109,-114,-111,-93,-81,-77,-82,-72,-70,-69,-73,-75,-71,-58,-56,-69,-70,-63,-61,-65,-68,-70,-67,-52,-44,-44,-33,-26,-19,-14,9,20,26,59,86,70,47,43,28,6,-30,-33,-27,-29,-42,-85,15,536,1353,952,-544,-1019,-644,-305,-121,-4,-10,-8,9,13,8,31,16,8,17,39,34,36,50,52,57,64,82,81,64,67,59,52,34,14,1,0,-5,-23,-31,-70,-97,-110,-144,-191,-200,-186,-196,-192,-186,-166,-146,-131,-105,-99,-88,-79,-68,-59,-48,-50,-52,-55,-55,-51,-47,-67
2018-05-22,09:59:34.262,-55,-52,-55,-51,-62,-69,-66,-46,-56,-55,-41,-42,-37,-32,-2,14,20,68,89,56,48,59,46,-1,-52,-60,-48,-59,-55,-92,-153,35,780,1598,728,-775,-983,-561,-260,-59,-19,-20,-7,0,-6,0,0,-2,15,20,33,42,48,55,78,79,86,97,90,93,94,80,60,47,34,18,8,13,4,-6,-31,-72,-104,-136,-167,-185,-174,-163,-143,-130,-117,-107,-99,-91,-79,-85,-69,-55,-55,-69,-71,-63,-77,-91,-91,-75,-60,-62,-73,-72,-60,-69,-76,-81,-78,-62,-39,-48,-63,-55,-43,-2,2,28,76,99,75,56,56,19,-62,-114,-113,-109,-101,-102,-161,-150
2018-05-22,09:59:35.300,254,1252,1582,-11,-1053,-819,-414,-148,-31,-53,-38,-25,-13,-8,0,17,30,35,31,55,75,87,90,93,101,109,109,106,105,93,63,30,19,21,24,29,11,7,-6,-34,-71,-110,-138,-151,-157,-161,-157,-141,-131,-120,-111,-93,-77,-68,-67,-52,-63,-64,-51,-44,-45,-45,-49,-65,-76,-71,-47,-52,-59,-52,-57,-60,-65,-73,-71,-64,-63,-43,-37,-38,-30,13,23,28,86,132,117,89,81,58,5,-49,-48,-38,-46,-64,-106,-144,96,900,1631,500,-906,-922,-470,-231,-54,-11,1,16,21,20,40,48,35,31,33,46,57,62,60,52,58,66,80,69,60,58
2018-05-22,09:59:36.337,64,53,28,31,20,9,5,9,2,-23,-56,-93,-117,-144,-149,-143,-132,-129,-138,-130,-114,-91,-87,-78,-50,-44,-43,-40,-33,-36,-45,-42,-46,-64,-70,-71,-53,-52,-60,-70,-70,-62,-57,-64,-47,-49,-37,-27,-44,-30,6,19,62,105,93,60,50,56,3,-78,-108,-102,-108,-108,-126,-191,-78,512,1355,811,-690,-1033,-614,-310,-135,-41,-34,-10,8,33,37,38,33,33,40,55,64,68,60,51,50,66,76,97,84,72,75,59,40,21,17,3,-19,-21,-27,-46,-84,-118,-136,-157,-168,-159,-149,-153,-159,-134,-123,-121,-117,-104,-83,-71,-67,-65,-57,-38,-29,-44
2018-05-22,09:59:37.374,-67,-67,-77,-79,-66,-49,-55,-63,-54,-52,-47,-35,-19,-17,-33,-41,-33,-23,-40,-41,-16,-3,-3,40,95,79,36,18,31,2,-63,-90,-80,-75,-67,-101,-138,73,787,1589,772,-754,-988,-564,-249,-66,-51,-62,-43,-31,-25,0,-5,0,0,6,17,31,37,52,60,70,92,100,98,107,100,92,74,50,26,21,8,11,21,5,-8,-28,-60,-89,-113,-147,-156,-165,-155,-132,-134,-126,-112,-116,-110,-102,-94,-76,-66,-59,-47,-43,-51,-46,-49,-56,-60,-62,-64,-70,-67,-62,-59,-50,-44,-39,-41,-41,-34,-22,-32,-31,-32,-14,13,19,63,116,124,90,74,86
2018-05-22,09:59:38.411,48,-42,-92,-78,-62,-71,-104,-182,-114,431,1440,1305,-336,-1054,-736,-362,-129,-47,-69,-72,-42,-31,-19,-8,-9,-1,9,4,20,38,46,50,50,47,60,64,76,74,53,43,35,23,18,8,4,20,12,-5,-34,-64,-101,-143,-171,-169,-152,-146,-135,-133,-121,-104,-105,-99,-67,-58,-48,-34,-31,-34,-49,-46,-34,-42,-49,-47,-28,-30,-37,-37,-31,-28,-28,-33,-36,-36,-46,-43,-19,-5,-17,-33,-42,-30,-15,5,7,30,78,90,79,79,76,22,-42,-60,-43,-35,-51,-74,-120,-5,557,1433,965,-561,-978,-574,-242,-60,9,0,13,15,15,12,20,35,39,39
2018-05-22,09:59:39.449,37,71,84,96,85,85,92,82,75,66,77,79,59,41,26,6,-8,6,4,-3,-18,-46,-91,-131,-157,-163,-170,-187,-178,-174,-177,-170,-159,-126,-97,-91,-96,-85,-71,-80,-79,-64,-63,-54,-54,-55,-60,-55,-63,-52,-56,-67,-56,-61,-73,-65,-75,-78,-64,-45,-42,-43,-28,0,4,21,90,92,54,54,63,13,-46,-61,-52,-48,-42,-59,-130,-50,469,1356,1072,-472,-1033,-680,-331,-125,3,-7,-13,2,14,21,21,28,41,40,37,52,67,69,78,80,94,99,87,97,84,76,78,56,34,22,23,15,-2,-6,-34,-76,-97,-126,-153,-172,-188,-181,-166,-146
2018-05-22,09:59:40.486,-154,-153,-148,-136,-121,-116,-110,-96,-85,-82,-92,-97,-88,-60,-55,-60,-69,-79,-73,-70,-59,-54,-50,-44,-52,-53,-38,-53,-53,-50,-41,-36,-42,-32,6,7,22,76,109,86,53,50,36,-17,-65,-64,-57,-45,-48,-88,-131,101,903,1674,629,-857,-941,-498,-217,-16,-2,-11,16,15,2,15,31,24,29,31,27,40,54,56,48,56,68,76,87,78,55,55,47,29,22,8,1,-2,-6,0,-11,-40,-85,-108,-126,-145,-135,-147,-160,-150,-133,-122,-106,-102,-90,-68,-74,-76,-65,-57,-48,-39,-44,-49,-50,-52,-48,-47,-54,-65,-59,-52,-56,-61,-57,-47,-58,-58
2018-05-22,09:59:41.523,-52,-39,-46,-47,-16,19,10,21,66,85,46,35,67,32,-46,-98,-66,-47,-39,-48,-125,-97,328,1308,1525,-122,-1092,-812,-401,-150,-37,-49,-53,-39,-25,-25,-19,-17,-16,-8,9,18,28,41,59,77,60,69,82,70,57,55,46,43,20,16,6,-6,-15,-18,-44,-66,-84,-120,-154,-156,-162,-168,-169,-152,-143,-138,-116,-106,-90,-70,-58,-34,-31,-44,-39,-26,-23,-24,-26,-21,-11,-21,-33,-37,-37,-34,-28,-24,-31,-40,-63,-63,-67,-40,-28,-40,-35,1,2,16,57,81,54,30,48,29,-24,-63,-63,-70,-69,-56,-120,-126,196,1038,1503,183,-983,-859,-430,-208
2018-05-22,09:59:42.560,-26,-15,-20,8,28,27,26,40,52,48,50,44,47,43,47,69,65,61,69,94,94,87,68,56,33,18,22,9,0,-5,-19,-47,-98,-133,-161,-184,-191,-203,-192,-170,-159,-137,-122,-103,-94,-95,-78,-55,-50,-50,-45,-69,-81,-83,-92,-81,-69,-56,-53,-66,-81,-76,-64,-53,-49,-54,-41,-27,-20,-20,-7,0,-21,12,75,94,68,49,57,21,-51,-87,-81,-78,-74,-80,-138,-35,502,1348,952,-572,-1052,-682,-338,-129,-12,-6,3,12,2,21,21,19,21,26,47,55,66,97,106,109,115,116,119,119,119,117,112,92,69,52,31,18,-1,-36,-48,-67
2018-05-22,09:59:43.598,-101,-142,-169,-175,-189,-172,-165,-149,-138,-127,-104,-93,-80,-75,-77,-69,-56,-37,-32,-37,-42,-35,-40,-47,-47,-54,-72,-76,-74,-71,-63,-48,-35,-45,-43,-43,-55,-51,-50,-49,-7,8,17,69,93,48,19,24,27,-21,-88,-76,-52,-68,-84,-117,-138,115,941,1614,485,-895,-943,-526,-242,-61,-55,-60,-48,-38,-24,-10,-11,-1,7,26,41,58,63,70,70,70,80,78,82,85,96,91,81,71,44,35,32,13,0,-19,-48,-72,-103,-126,-137,-160,-168,-154,-133,-137,-123,-107,-97,-85,-82,-79,-55,-46,-56,-62,-52,-54,-55,-65,-56,-47,-53,-71,-66,-58,-59,-61
2018-05-22,09:59:44.635,-59,-54,-32,-35,-48,-47,-51,-42,-41,-34,-30,-2,-4,23,81,95,74,58,77,56,-7,-52,-35,-27,-23,-27,-100,-97,253,1193,1655,215,-970,-849,-452,-188,-34,-30,-29,-12,7,7,-3,-3,8,13,14,27,41,40,40,55,64,60,48,73,74,64,50,29,15,-5,-13,-27,-48,-37,-43,-74,-104,-127,-157,-180,-175,-182,-170,-147,-122,-114,-91,-74,-64,-60,-54,-37,-28,-22,-33,-31,-34,-39,-35,-38,-46,-57,-55,-45,-35,-36,-42,-39,-44,-44,-32,-35,-36,-43,-46,-28,-24,-33,-30,-22,-3,2,21,82,106,70,43,48,18,-23,-84,-87,-67,-52,-55,-106
2018-05-22,09:59:45.672,-124,142,984,1561,296,-940,-890,-451,-216,-63,-33,-11,0,0,5,3,4,17,32,42,38,35,33,50,57,51,52,59,64,65,63,62,46,49,27,-50,-190,-121,-80,-83,83,95,12,-63,-124,-153,-169,-184,-181,-149,-143,-138,-134,-108,-96,-72,-21,9,14,22,11,-11,-18,-14,-36,-70,-75,-81,-83,-73,-89,-74,-54,-35,-33,-21,-19,-30,-45,-51,-48,-43,-38,-32,-30,3,29,112,96,69,94,65,-14,-88,-104,-127,-175,-111,-39,-73,111,812,1401,299,-935,-923,-469,-196,-18,11,10,56,80,48,33,37,23,64,97,100,82,89,85,64,77,97,106,116
2018-05-22,09:59:46.709,126,127,125,96,92,63,27,12,-7,-47,-76,-58,-83,-135,-178,-203,-182,-191,-192,-177,-193,-203,-131,-74,-77,-78,-84,-51,-41,-46,-59,-56,-59,-79,-81,-78,-93,-127,-138,-82,-77,-105,-86,-68,-67,-48,-46,-42,-40,-40,-44,-41,-58,-49,-46,-38,-17,-4,16,78,133,115,89,73,56,6,-60,-84,-86,-80,-64,-97,-158,-14,650,1560,876,-799,-1087,-618,-284,-61,-9,-24,-5,9,15,20,24,31,33,34,49,57,66,68,74,84,88,87,81,84,82,73,63,57,39,25,21,15,-5,-30,-47,-69,-111,-137,-177,-193,-196,-185,-193,-195,-169,-144,-137,-134,-106,-105
2018-05-22,09:59:47.747,-97,-93,-98,-96,-94,-90,-83,-79,-75,-64,-67,-66,-58,-43,-34,-29,-16,-15,-18,-25,-24,-11,-8,-1,-1,-11,-12,-10,-11,-18,-2,3,17,71,118,102,78,75,69,6,-58,-74,-56,-58,-58,-92,-140,52,787,1683,858,-832,-1063,-588,-271,-70,-37,-37,-26,-5,-1,7,20,31,45,59,67,69,71,76,92,87,94,109,112,132,123,109,84,49,34,19,11,0,2,-4,-37,-72,-98,-132,-152,-163,-189,-190,-182,-157,-148,-141,-138,-126,-119,-101,-87,-77,-64,-59,-50,-58,-48,-56,-49,-53,-64,-48,-47,-46,-41,-50,-53,-48,-45,-49,-47,-43,-59,-51,-48,-52
2018-05-22,09:59:48.784,-37,-26,-1,14,28,63,94,83,55,44,36,-15,-88,-88,-53,-49,-53,-78,-109,36,569,1318,757,-711,-1027,-625,-304,-119,-15,-15,32,49,55,61,70,77,71,94,85,65,72,89,97,97,97,102,93,114,124,100,86,63,47,45,44,5,-18,-41,-81,-106,-135,-165,-194,-204,-212,-198,-204,-199,-181,-162,-122,-122,-124,-101,-100,-91,-81,-75,-66,-58,-48,-50,-52,-49,-46,-63,-62,-56,-52,-46,-53,-65,-54,-38,-29,-15,-20,-20,-25,-16,-11,-9,-22,0,15,23,95,132,104,82,84,88,25,-40,-65,-57,-40,-39,-91,-140,40,721,1504,738,-811,-1058,-598,-265
2018-05-22,09:59:49.821,-36,11,15,2,7,32,40,38,40,55,55,62,68,71,87,99,85,30,-58,43,182,211,187,142,89,59,28,13,-2,-36,-63,-82,-128,-171,-174,-175,-176,-179,-177,-177,-178,-160,-143,-135,-129,-107,-82,-79,-52,-56,-57,-34,-32,-35,-38,-48,-55,-57,-66,-66,-56,-40,-41,-52,-53,-50,-51,-60,-62,-37,-50,-38,-13,-19,-21,-15,17,17,15,65,97,97,58,17,27,-2,-69,-102,-86,-69,-59,-68,-134,-23,546,1432,1104,-594,-1186,-770,-348,-53,-14,-50,7,-3,-11,19,33,49,20,6,42,57,45,56,64,50,68,107,104,100,108,99,88,78,43,16
2018-05-22,09:59:50.858,14,-3,-30,-31,-25,-38,-58,-105,-178,-176,-157,-162,-181,-185,-172,-170,-158,-126,-113,-86,-62,-57,-63,-66,-67,-71,-75,-59,-74,-106,-73,-46,-40,-57,-69,-58,-38,-33,-41,-40,-50,-66,-38,-16,-4,-7,-6,-15,-19,-11,12,9,13,79,78,93,110,101,24,-55,-79,-72,-65,-65,-106,-142,31,673,1477,777,-833,-1117,-628,-270,-61,-23,-28,0,14,26,26,9,-3,88,127,127,144,133,137,129,114,119,123,106,112,108,61,54,31,38,31,9,-11,-12,-27,-50,-64,-92,-135,-168,-190,-205,-200,-193,-193,-180,-145,-109,-92,-78,-84,-87,-68,-61,-61,-70,-74,-94
2018-05-22,09:59:51.896,-89,-90,-96,-97,-82,-79,-100,-86,-45,-36,-37,-30,-27,-17,-24,-42,-72,-60,-39,-38,6,65,100,75,57,47,39,-17,-81,-90,-75,-87,-92,-121,-124,108,766,1283,268,-969,-1021,-577,-290,-88,10,21,40,57,71,65,85,76,76,93,77,83,127,124,124,143,160,133,121,152,151,134,115,98,55,34,29,14,3,-11,-51,-88,-94,-141,-196,-191,-187,-196,-182,-155,-148,-138,-117,-92,-58,-35,-48,-56,-64,-63,-46,-38,-37,-36,-50,-56,-72,-57,-44,-46,-64,-72,-69,-64,-56,-63,-66,-45,-31,-20,-11,11,9,26,66,80,55,35,36,0,-87,-143,-137,-110
2018-05-22,09:59:52.933,-90,-89,-146,-78,373,1248,1184,-399,-1156,-836,-425,-127,-9,-20,-24,16,58,61,42,30,42,54,54,64,89,101,110,118,110,107,114,139,142,108,94,74,62,48,18,5,-1,2,-12,-59,-97,-124,-168,-208,-221,-202,-198,-200,-201,-165,-133,-106,-86,-76,-62,-60,-66,-65,-42,-52,-58,-57,-58,-56,-57,-72,-67,-65,-59,-41,-34,-36,-19,-14,-21,-25,8,19,7,32,93,96,30,14,25,-12,-75,-108,-101,-106,-106,-102,-142,-25,533,1441,1148,-599,-1175,-747,-347,-80,0,-17,-29,-12,25,34,40,57,63,61,64,72,68,74,85,77,87,90,115,101,95,72
2018-05-22,09:59:53.970,69,49,28,-2,-16,-28,-23,-29,-51,-84,-125,-153,-183,-196,-195,-187,-186,-175,-168,-166,-150,-133,-112,-97,-77,-61,-61,-60,-67,-76,-49,-59,-58,-44,-38,-33,-24,-14,-19,-32,-37,-25,-19,-25,-19,7,24,41,103,140,106,73,84,62,0,-67,-66,-60,-63,-68,-93,-112,83,723,1384,536,-878,-1053,-597,-290,-84,5,14,39,53,70,58,59,58,54,47,67,75,90,108,113,120,136,127,126,116,110,96,79,62,45,37,20,10,-8,-25,-50,-87,-110,-137,-163,-188,-201,-179,-177,-166,-161,-160,-136,-110,-84,-54,-44,-41,-48,-44,-46,-49,-52,-58,-56,-74,-77
2018-05-22,09:59:55.007,-83,-76,-83,-76,-39,-40,-49,-18,22,24,57,111,121,69,47,38,0,-72,-102,-83,-84,-95,-90,-114,-31,440,1298,1033,-550,-1109,-747,-377,-124,30,27,29,49,52,49,61,74,70,60,63,65,74,87,102,104,93,101,127,113,116,121,110,87,57,26,17,-7,-10,-20,-49,-81,-109,-128,-168,-184,-171,-177,-180,-158,-155,-145,-118,-113,-85,-66,-61,-40,-35,-25,-24,-40,-68,-78,-70,-83,-67,-59,-81,-88,-78,-77,-72,-54,-48,-41,-25,10,0,24,72,68,42,31,39,12,-42,-77,-81,-82,-68,-82,-134,-44,440,1303,1207,-397,-1165,-836,-417,-143,-11,-24,16
2018-05-22,09:59:56.045,27,31,39,27,20,40,56,64,78,81,71,80,98,111,106,109,103,99,84,59,49,37,33,21,8,-2,-28,-47,-79,-111,-140,-155,-174,-200,-204,-199,-199,-187,-152,-130,-119,-101,-70,-57,-46,-37,-29,-16,0,-14,-23,-21,-16,-22,-36,-23,-33,-52,-58,-54,-43,-48,-48,-46,-39,-4,15,22,64,89,82,52,35,25,-14,-92,-129,-123,-106,-102,-138,-179,-11,662,1541,890,-749,-1108,-677,-334,-97,-39,-50,-26,0,11,0,-5,-2,9,37,64,56,62,79,95,93,96,95,108,123,128,109,99,83,66,53,18,4,-8,-24,-38,-72,-110,-143,-173,-179,-171
2018-05-22,09:59:57.082,-157,-146,-147,-127,-130,-128,-115,-97,-101,-87,-92,-93,-81,-70,-78,-66,-50,-69,-62,-59,-64,-63,-64,-58,-67,-76,-68,-70,-60,-47,-47,-13,-6,28,91,96,66,51,41,15,-62,-103,-70,-44,-36,-44,-93,-47,337,1112,1125,-378,-1109,-815,-419,-194,-3,29,35,62,61,47,56,65,69,81,90,102,121,116,125,135,149,150,151,154,140,131,111,97,57,43,35,29,21,-6,-26,-41,-86,-128,-146,-163,-177,-174,-165,-158,-145,-126,-124,-103,-94,-72,-72,-71,-49,-33,-47,-62,-69,-65,-69,-79,-55,-46,-57,-69,-75,-68,-73,-70,-61,-40,-38,-42,-33,-28,-3,20
2018-05-22,09:59:58.119,15,41,94,91,61,33,30,-4,-70,-105,-87,-63,-67,-102,-159,-8,612,1427,863,-730,-1116,-700,-346,-101,-15,-30,1,15,16,17,11,20,27,35,42,46,65,81,73,81,98,109,110,102,82,80,72,53,29,21,1,-11,-16,-27,-40,-64,-102,-133,-153,-161,-166,-164,-158,-137,-114,-93,-81,-70,-66,-71,-67,-72,-55,-41,-56,-68,-73,-77,-68,-68,-77,-87,-87,-75,-64,-56,-46,-45,-63,-62,-62,-50,-49,-46,-42,0,41,29,59,113,102,63,64,74,44,-39,-89,-81,-70,-59,-61,-109,-7,504,1375,1153,-471,-1145,-791,-369,-81,20,5,25,52,63,57,54
2018-05-22,09:59:59.157,43,35,20,40,49,65,69,69,75,78,90,77,65,69,72,51,38,30,22,1,-2,0,-13,-33,-52,-71,-113,-148,-170,-169,-155,-155,-147,-132,-122,-115,-111,-106,-98,-90,-91,-90,-96,-89,-85,-75,-59,-64,-72,-77,-77,-80,-81,-66,-68,-76,-79,-64,-49,-41,-40,-32,-29,-29,-21,-14,16,17,42,100,99,69,54,39,-4,-81,-101,-84,-97,-94,-102,-160,-92,439,1385,1166,-464,-1093,-725,-341,-111,2,-12,-6,10,19,17,8,11,7,23,25,43,52,60,64,87,123,127,123,120,116,115,106,88,64,55,47,29,19,-7,-22,-54,-97,-121,-147,-173,-170
2018-05-22,10:00:00.194,-158,-171,-176,-151,-145,-120,-96,-74,-69,-68,-74,-66,-59,-45,-41,-45,-53,-62,-74,-75,-56,-51,-57,-61,-58,-52,-52,-61,-55,-47,-54,-51,-46,-17,15,10,40,112,137,111,87,86,41,-47,-110,-95,-96,-108,-108,-154,-116,228,994,1136,-255,-1089,-877,-461,-213,-12,36,38,39,40,54,69,76,71,57,55,60,75,80,90,97,94,93,105,104,107,107,89,79,52,29,9,-5,-27,-42,-43,-57,-95,-129,-167,-190,-194,-200,-213,-205,-181,-159,-145,-142,-123,-108,-107,-85,-59,-51,-50,-32,-35,-43,-42,-55,-74,-83,-82,-86,-92,-79,-65,-62,-60,-125,-243,-235,10
2018-05-22,10:00:01.231,23,-15,-41,-177,-54,-91,-235,-199,5,91,-14,126,211,45,-144,-137,-13,-356,-180,72,337,1384,1551,7,-916,-902,-463,-212,-124,36,-65,-141,15,146,88,-122,-161,-100,-79,-68,272,256,-96,50,-12,-113,408,-9,-376,173,224,195,50,-53,-79,-660,-162,218,99,-67,-50,33,-28,-79,-73,-64,-71,-73,-85,-148,-182,-164,-110,-83,-39,-7,8,17,85,87,24,41,96,89,51,48,25,-37,-29,-36,-54,-48,-16,-6,-5,-16,-34,-35,-65,-10,87,100,48,38,97,124,137,70,43,48,65,-37,-133,-125,179,1074,1445,153,-860,-684,-290,-179,-72,-45,-8,-422,-455,256
2018-05-22,10:00:02.268,304,124,-5,191,220,-214,-532,-93,169,400,410,277,190,28,0,176,306,339,252,-34,-42,243,156,-177,-170,-40,-147,-140,2,-266,-463,-330,-378,-295,-172,-87,-133,-159,-163,-142,-97,-100,-119,-159,-139,-90,-46,51,91,4,-67,-47,-38,-53,-85,-67,-60,-53,-58,52,96,49,141,150,117,119,157,111,50,-26,-138,-235,-151,231,905,675,-714,-1208,-864,-554,-434,-268,-41,143,270,236,77,-326,-293,18,-24,-278,-420,-186,-314,-455,-287,-652,-1300,-630,-373,-606,-790,-111,-52,-757,-505,-92,104,-403,-215,8,-333,-494,-679,-634,-624,-749,-615,-325,-180,-195,-405,-175,76,27,-30,7
2018-05-22,10:00:03.306,-9,106,182,209,247,165,180,216,284,274,332,225,258,324,284,253,221,99,-63,-195,-151,-65,-55,-59,-110,-66,-187,-18,851,1020,-151,-700,-525,-354,-448,-96,286,73,-210,-236,-344,-758,-280,113,36,25,154,134,199,-385,138,340,416,700,612,376,436,139,244,68,-99,-33,-134,-247,-149,4,104,174,52,-100,-7,134,207,158,189,175,61,-7,10,-42,-75,-53,26,101,153,207,115,3,15,-2,50,172,274,320,375,358,276,150,-28,-110,-230,-346,-165,-113,-174,-114,268,1031,1504,164,-743,-691,-1274,-1749,-1052,-163,593,830,172,-587,-1027,-458,-40,-308,192,1589,1058,850
2018-05-22,10:00:04.343,621,215,43,444,437,255,46,26,141,112,70,0,-20,-27,0,77,32,-62,-106,-115,-154,-82,50,158,199,142,101,28,11,-62,-92,-66,32,39,0,0,49,72,72,112,169,174,110,-32,-203,-335,-315,-315,-386,-619,-571,-100,-211,-307,-372,402,1495,453,-974,-777,-265,-106,-223,-149,-132,-460,-428,-8,-293,-998,-61,-285,146,596,795,472,498,404,212,41,-53,-91,-118,17,276,342,35,-162,18,197,239,288,167,-5,18,48,81,112,116,110,17,-43,78,145,127,243,282,181,87,-8,-147,-256,-223,-83,5,102,253,306,223,2,-425,-647,-1086,-723,-148,13,10,78
2018-05-22,10:00:05.380,77,-22,77,1175,1520,58,-606,-279,-184,-303,-371,-324,-703,-1109,-615,-1013,-476,488,70,118,485,697,749,496,361,297,217,10,-102,141,520,476,234,348,423,333,248,142,67,22,39,51,132,174,17,-16,10,21,-13,3,-80,-65,43,95,140,120,0,-166,-249,-165,-59,101,199,118,-187,-550,-688,-635,-334,-171,-181,-214,-256,-215,-273,-358,-336,225,1575,1248,20,-484,-601,-675,-156,-308,-721,-359,331,532,97,-391,-146,-557,-1161,620,790,891,748,346,195,177,91,-77,77,152,335,0,-221,-19,174,274,182,67,-60,-133,-92,-110,-39,34,144,191,81,33,-109,-253,-110,-20
2018-05-22,10:00:06.417,-104,-45,28,4,-30,-39,3,35,120,212,221,164,19,-223,-738,-662,-469,-441,-314,-111,-79,-296,-420,-99,780,1593,307,-1267,-1347,-796,-324,-26,-225,-55,38,50,70,-100,-412,-339,438,690,763,584,587,285,-115,-56,-116,-165,-104,-87,-113,346,507,57,-258,-196,99,272,235,118,48,77,66,74,161,235,175,8,-127,-190,-234,-174,-40,73,91,99,40,60,11,2,52,153,180,118,-66,-309,-492,-666,-565,-475,-348,-420,-418,-332,-413,60,1194,1547,85,-982,-602,-160,-33,-133,-694,-469,-164,-641,-587,-12,-3,480,584,704,455,194,231,84,0,189,141,-91,-88,227,300,-100
2018-05-22,10:00:07.455,-374,-254,-51,-90,-65,-13,-20,-30,-49,-117,-138,-110,-134,-50,90,82,63,0,33,70,120,176,174,-12,63,151,59,-12,-9,34,36,0,9,-16,-75,-227,-453,-775,-686,-599,-418,-314,-187,580,1419,518,-996,-1097,-664,-402,29,-163,55,590,415,-171,-287,-419,60,219,-84,285,491,668,514,424,317,203,33,-159,-166,-197,-104,-81,26,171,133,215,159,181,123,-58,-134,-168,-165,45,104,121,177,164,108,29,-60,-90,-79,-126,-112,-242,-273,-67,40,116,181,109,100,123,82,-11,-350,-310,-770,-1119,-597,-228,-220,-88,552,1397,714,-536,-756,-519,-434,-345,-173,-193,-150,-219
2018-05-22,10:00:08.492,-449,-158,1,-791,-459,122,-702,117,762,149,67,581,876,681,463,582,491,273,70,78,137,-98,-110,222,131,-349,-120,93,29,-104,-107,-138,-142,-31,123,212,175,181,109,11,-123,-249,-319,-293,-199,-67,68,110,131,172,107,-7,-100,-53,35,57,8,-9,-135,-410,-754,-177,1023,381,-836,-1012,-680,-522,-546,-725,-747,-292,49,-17,354,722,799,335,-749,-512,176,271,16,312,1089,1223,698,273,66,40,72,83,0,-233,-271,-96,90,61,-196,-183,-323,-344,-172,-199,-111,-61,-44,-5,-2,38,116,108,185,212,133,38,-60,-173,-121,-125,-97,102,214,218,174,93,37,-65
2018-05-22,10:00:09.529,-165,-98,-75,-98,-155,289,1413,523,-1134,-1343,-830,-523,-701,-570,-170,-174,-235,-133,-5,100,92,-70,-251,-271,-132,59,168,-80,132,396,181,112,-172,162,736,904,585,285,666,653,209,40,-28,-151,-206,-425,-558,-458,-314,-247,-261,-184,-204,-149,-122,-41,26,82,157,119,85,82,142,13,127,251,86,53,327,407,276,14,-73,-64,-1,116,679,1234,338,-831,-905,-647,-645,-681,-1051,-715,-162,-37,-7,-52,-59,25,23,-24,-26,69,-75,-91,-152,-298,-517,-595,-736,-642,-491,-551,96,249,-567,255,1281,1065,457,493,527,501,293,-68,-244,-88,-174,-215,-60,282,178,-86,-148,-75
2018-05-22,10:00:10.567,6,-24,10,-12,119,254,419,358,135,70,96,107,127,74,64,172,166,166,363,993,1332,119,-1104,-1012,-459,-233,-136,-99,-491,-712,-750,-311,-57,-1,-61,-4,144,91,136,168,104,60,-153,-172,199,300,216,-28,-658,-559,-752,-465,451,5,411,343,-956,-344,673,545,986,536,-484,-406,-208,47,193,275,201,-76,-168,-432,-674,-385,-2,202,152,114,181,137,59,74,40,47,131,42,-126,-213,-48,549,1451,912,-693,-1034,-620,-397,-234,-80,-105,-109,-106,-55,-4,-97,-181,-423,-271,-268,-103,103,82,-67,-58,-80,-74,-128,-156,-430,-468,-394,-75,282,105,255,-58,-1393,-1020,-566
2018-05-22,10:00:11.604,-182,782,481,984,547,229,338,71,446,219,49,-478,-809,-280,49,207,113,13,-80,-172,-198,-212,-317,-400,-315,-168,-119,-27,23,208,545,1330,1774,529,-785,-751,-466,-426,-191,-18,-1,4,173,344,280,227,350,422,399,277,181,-206,-765,-432,-439,-150,168,137,-16,76,201,91,-91,-34,-324,-869,46,-85,-730,607,1051,99,-634,29,-1001,-738,659,880,876,898,8,-284,-178,-82,-141,-210,-133,-107,-148,-159,-264,-409,-386,-214,-111,-105,-126,-163,87,789,1671,978,-582,-719,-240,-83,47,129,185,175,234,274,120,82,71,65,144,190,115,108,52,-92,-196,-430,-597,-535,-288,-39
2018-05-22,10:00:12.641,-16,-41,-20,-59,-120,-195,-785,-608,-115,-102,-296,-15,52,-199,-398,-726,-639,-851,-330,357,446,268,160,349,366,257,177,169,204,170,-23,-190,-301,-295,-558,-616,-417,-149,94,378,1030,1520,438,-713,-718,-351,4,279,417,387,283,206,205,269,248,177,150,107,45,0,-21,-36,-96,-473,-436,-265,-318,205,325,-171,-254,-96,-105,-165,38,66,-3,-143,-734,-241,54,-1261,-939,280,230,36,-237,-385,-490,-597,358,570,366,499,360,94,34,99,-11,-110,-94,-299,-183,-94,-20,-152,-182,60,740,1319,484,-590,-651,-202,35,85,122,154,158,124,106,149,228,242,156,131,138,70
2018-05-22,10:00:13.678,85,153,97,76,44,-494,-489,-103,116,100,-192,-302,-178,-95,-93,-337,-284,-218,-160,-410,-1167,-280,364,-332,-1117,-149,559,578,58,-88,642,964,663,288,172,171,133,62,-69,59,80,-149,-126,-412,-367,-372,-152,328,978,883,-484,-1045,-707,-241,138,261,294,253,251,280,240,182,96,54,31,-26,-82,-43,15,4,36,145,225,333,340,170,-609,-431,-421,-504,-247,-60,-17,-111,-102,-144,-276,-285,-288,-742,-794,-181,-734,-563,341,360,-182,-1207,58,1096,735,111,-137,312,1032,491,-72,-46,55,-54,-178,-306,-466,-294,497,1491,764,-928,-1286,-872,-562,-355,-223,-77,-47,-17,5,29
2018-05-22,10:00:14.716,109,186,276,219,173,246,376,380,352,319,280,289,251,140,104,152,160,79,-39,-206,-407,-556,-437,-314,-333,-332,-412,-526,-693,-752,-301,-146,-285,-435,-413,-377,-749,-425,233,320,-23,-499,-300,-691,-1108,385,1011,-322,78,1089,315,297,1422,2110,756,-681,-1007,-568,-198,-138,-398,-604,-302,52,120,58,61,-1,17,103,176,302,401,396,307,280,340,388,384,356,339,347,218,141,92,57,86,108,114,171,142,12,-26,-154,-499,-892,-1115,-1193,-674,-240,-149,-211,-179,-254,-472,-700,-329,-200,-360,-234,-271,-308,-335,-1045,-1245,-243,-1234,-759,1862,1924,675,0,43,508,674,666,375,31
2018-05-22,10:00:15.753,24,32,-48,57,267,84,-70,-160,208,535,431,277,236,134,111,171,256,397,423,435,434,315,251,249,297,320,211,58,84,-27,-140,-178,-211,-231,-77,30,23,-56,-374,-624,-696,-838,-612,-334,-226,-222,-335,-390,-351,-341,-421,-417,-573,-931,-453,972,1398,266,-951,-888,-391,-591,-1024,567,844,433,273,407,283,352,413,63,111,174,165,128,50,6,2,30,80,-15,-5,33,-37,-72,42,107,116,177,238,189,104,230,200,148,78,11,-28,-181,-185,-8,57,175,52,-160,-186,-113,-181,-250,-188,-35,98,114,-95,-423,-861,-986,-696,-312,922,1176,-455,-1525,-1579,-1069,-701,-1076
2018-05-22,10:00:16.790,-997,-70,62,-299,-77,131,56,-95,-218,-373,-360,-273,39,874,1179,944,837,687,966,706,579,408,233,189,87,213,67,132,228,172,32,7,7,-15,1,25,-4,26,66,14,66,178,155,46,140,171,142,115,131,98,28,87,37,-55,126,720,1407,802,-515,-768,-462,-363,-832,-939,-906,-688,-352,-204,-214,-227,-195,-459,-662,-18,313,120,-34,17,-26,-168,-34,-149,-538,-507,-294,-116,530,815,1213,1060,541,320,324,287,361,169,124,20,-168,-277,-109,25,-58,-104,46,198,185,142,95,24,-51,-65,15,133,7,-49,72,6,6,888,1948,1129,-557,-698,-316,-199,-122,-23
2018-05-22,10:00:17.827,-26,20,67,136,192,83,-63,-309,-840,-934,-835,-491,-248,-264,-216,-264,-528,-451,-176,-147,-135,-149,-87,-136,-926,-386,-48,-669,-188,669,363,99,298,239,481,410,509,509,320,570,1032,43,329,-477,-630,-473,-714,-416,-96,-92,-17,-56,-117,-82,386,1244,1765,659,-881,-920,-485,-373,-227,-166,-175,-192,-25,354,501,300,143,56,18,-89,-105,-90,-188,-502,-735,-510,-88,43,-48,-130,-176,-129,-88,-29,-69,-47,41,-81,-157,-179,-196,-294,-179,-198,-227,-606,-1303,-964,-1217,-1280,104,846,786,264,817,1500,757,905,680,595,394,-186,-714,-579,355,1653,1071,-452,-1354,-1373,-864,-143,83,138
2018-05-22,10:00:18.865,170,318,397,314,288,163,199,221,227,211,131,156,214,210,209,169,29,13,-24,-20,-63,32,134,120,137,247,271,115,-219,-911,-738,-788,-548,-148,-177,-286,-329,-348,-196,-59,-206,-332,-346,-315,-252,-399,-700,-534,-215,-407,-1286,-1109,-912,328,1777,1297,681,332,211,-147,263,751,634,785,-357,-897,-76,189,0,29,-81,-489,-790,-156,149,-29,-98,248,335,334,276,264,388,453,408,318,240,128,6,-158,-416,-724,-417,-5,432,1243,1254,849,417,170,231,197,58,0,-88,-351,-717,-1115,-1063,-549,-249,-262,-350,-457,-383,212,1292,1515,15,-869,-681,-450,-646,-368,-95,-46,-409,-836
2018-05-22,10:00:19.902,371,232,-844,-206,379,470,448,653,726,706,559,375,124,119,76,-167,-182,-156,28,174,213,210,237,205,175,136,130,62,-47,-71,-59,-109,-134,-101,-105,-13,108,100,125,34,-18,-118,-226,-325,-256,-119,-24,-49,-86,391,1612,1623,-272,-1669,-1397,-1050,-760,-395,-352,-456,-459,-440,-366,-361,-400,-538,-313,-78,-103,-139,-153,-117,-45,-10,-194,-310,-543,-1263,-600,355,1184,1652,1450,1208,845,630,476,363,247,141,-10,-233,-355,-324,-194,8,29,17,-42,-108,-129,-118,-86,-141,-148,-192,-213,-107,-114,-207,-44,819,1919,1272,-566,-994,-642,-392,-197,-51,-130,-102,-84,-62,-33,5,9,-4
2018-05-22,10:00:20.939,-5,-97,-289,-832,-908,-896,-423,-275,-230,-236,-253,-370,-335,-139,-342,-362,-242,-131,91,-48,-183,-448,-882,-1249,-1399,-120,-723,-404,1917,1858,791,407,250,154,14,12,265,97,-14,84,-35,-4,64,157,392,1101,1470,216,-971,-852,-416,-46,134,129,60,138,156,158,94,84,67,-11,-7,88,74,15,26,54,84,114,131,187,204,156,98,-128,-517,-905,-696,-62,159,171,155,52,-24,7,-1,-71,-192,-263,-100,-82,-351,-228,121,157,24,-228,-792,-883,-596,-1064,-429,157,1022,891,1018,2400,2390,406,-427,-230,-308,-436,-600,-511,-201,-84,-112,-442,-221,-118,-179,-93,-69,3,-3,37
2018-05-22,10:00:21.976,46,71,78,129,106,169,183,157,107,90,135,225,211,211,230,173,111,15,-45,-12,39,62,64,21,9,-51,-170,-668,-675,-668,-719,-485,-264,-250,-401,-440,-575,-854,-539,157,1261,1507,138,-1088,-1521,-794,-44,-351,-26,350,-147,-1058,-1076,188,679,643,888,715,813,683,308,188,385,155,-82,-168,-395,-329,113,190,1,-244,-103,96,-11,-16,42,41,-46,-100,1,7,-13,-8,-48,-88,12,82,118,71,113,142,174,75,-52,-56,-59,-65,-35,109,659,1584,1242,-401,-954,-663,-804,-965,-556,-660,-522,-287,-289,-386,-381,-369,-433,-443,-484,-371,-343,-430,-159,-109,-178,-80,-153,-128
2018-05-22,10:00:23.014,-358,-644,-378,141,31,738,1223,1536,1145,847,596,484,794,550,186,49,-224,-94,1,-117,-270,-262,-201,-205,-87,-69,-96,-147,-174,-67,-71,16,89,436,1314,1151,-464,-1144,-655,-172,61,72,66,69,52,5,-45,-59,-43,-18,13,49,73,88,-25,-392,-496,-642,-634,-99,52,-67,-59,-14,-22,22,54,154,-13,-344,-191,104,-35,20,104,-639,-965,-166,268,120,-612,132,180,253,857,449,-83,126,257,-74,-339,-369,-229,182,1112,1253,-317,-1365,-1021,-375,12,129,138,78,19,205,404,384,231,80,-2,-120,-103,-63,62,93,81,-1,-19,-92,-153,-177,-183,-162,-141,18,320,472
2018-05-22,10:00:24.051,499,380,278,182,19,-655,-964,-953,-330,64,50,-72,-102,-19,-140,-329,-318,-355,-441,-484,-342,-341,-349,-318,-523,-524,291,1977,1911,12,-851,-1124,-1564,-717,-279,-654,56,866,1511,1034,-258,307,280,22,848,1236,575,-250,-293,-29,-14,50,270,165,59,87,61,43,98,72,88,148,83,59,75,112,138,135,10,-59,-148,-184,-78,4,91,116,182,47,-242,-368,-446,-288,-100,-74,15,346,1041,1194,-238,-1460,-1226,-1299,-962,-381,-278,-257,-334,-475,-452,-358,-408,-180,-210,-356,-49,-92,-611,-546,-90,-93,-482,-766,-262,966,404,-643,605,1209,1038,1200,1189,823,397,-32,-279,-61,365,421
2018-05-22,10:00:25.088,219,26,-62,-232,-488,-323,-21,6,-39,-156,-161,-84,-66,-95,-109,-89,18,535,1415,1254,-324,-1026,-801,-505,-225,45,-90,-216,-248,-191,-85,-32,-45,-58,5,143,288,230,-2,-284,-667,-441,-385,-250,34,122,32,-76,66,61,-6,41,101,107,-4,-5,8,58,-60,-361,-133,361,-230,-1060,-174,368,129,297,1093,1018,655,301,-103,112,145,2,553,1411,1696,44,-1195,-958,-515,-316,-418,-479,-424,-296,-239,-148,-153,-140,-60,-68,-57,3,48,52,83,72,24,-7,157,406,504,480,367,319,305,269,263,276,252,149,74,33,13,-22,-113,-332,-743,-1091,-598,-174,-147,-220,-326,-285
2018-05-22,10:00:26.126,-245,-363,-503,-431,-289,-434,-497,17,1286,1613,148,-734,-736,-788,-815,-1015,-815,-164,-218,-87,827,384,-896,2,1741,1360,835,404,104,-8,-124,42,107,-116,-164,-17,64,99,199,241,222,177,151,102,89,64,100,70,0,-107,-257,-620,-601,-20,431,587,324,53,-41,-236,-338,-215,-76,-144,-344,-402,453,1806,1178,-652,-1066,-783,-1145,-776,-588,-549,-301,-55,-69,-85,-49,11,62,-94,-372,-76,91,-105,57,-50,-232,162,184,-373,70,657,676,761,743,460,662,607,456,213,-66,-76,-237,-358,-161,-161,-164,-173,-180,-36,-22,-139,-172,-143,-170,-320,-436,-422,-377,-266,159,1093,1409,37
2018-05-22,10:00:27.163,-912,-614,-302,-204,-171,-295,-305,-143,19,67,9,26,107,165,169,172,173,160,69,-15,-42,-172,-423,-450,-299,-13,8,-32,-29,-3,-102,-172,-4,18,-219,-565,-189,183,57,-90,-24,-532,-1309,-601,411,-316,-332,438,331,372,-215,707,1106,706,302,1413,1908,266,-1005,-1017,-554,-387,-313,-232,-149,-191,-191,-53,11,-71,-134,-63,-20,59,108,85,74,155,138,108,67,-205,-298,-147,-145,230,746,762,421,180,8,-140,-248,-314,-177,19,1,-125,-201,-251,-257,-307,-361,-390,-308,-218,-405,-444,-492,-449,-393,-569,-641,78,1354,1224,-507,-1057,-807,-549,-389,-614,-705,-850,-885,-321,-147,-20
2018-05-22,10:00:28.200,34,321,250,239,759,429,546,777,660,491,333,469,342,88,-133,-82,257,409,282,183,158,130,69,32,-10,-38,-53,-4,5,58,184,328,401,240,89,-62,-137,-169,-184,-153,-232,-241,-16,569,1106,151,-1120,-1158,-682,-335,27,154,111,106,67,52,-19,-205,-681,-903,-604,-252,-9,65,-37,-61,-353,-644,-48,369,255,93,38,25,-73,-325,-366,-15,94,-306,-551,-376,-312,-742,-66,679,770,537,275,136,106,108,260,221,-3,-77,-160,-261,-294,-62,369,1126,1258,-272,-1129,-969,-576,-153,99,109,106,169,225,248,251,278,247,209,223,259,277,248,164,252,197,193,220,174
2018-05-22,10:00:29.237,135,122,139,184,209,253,197,-53,-519,-701,-577,-599,-268,-179,-265,-272,-296,-267,-259,-251,-288,-343,-427,-504,-335,-175,-491,-375,-164,-279,132,1628,1438,-142,62,320,249,573,-140,-425,309,174,257,471,-75,-338,-85,129,-44,55,125,-441,-168,91,140,142,180,218,306,357,360,296,212,168,72,-30,-25,38,76,42,39,24,56,98,83,45,-35,-54,-20,-78,-102,-51,-67,-72,-69,-183,-190,133,815,-140,-1509,-1270,-747,-457,-277,-202,-213,-252,-218,-98,-98,-189,-179,-229,-769,-525,-216,-711,-269,46,-940,-1774,332,30,-1223,1149,1476,1472,1694,1306,518,281,74,-181,-147,-73,-37,18
2018-05-22,10:00:30.275,-76,37,193,108,-40,-77,0,47,13,-36,-48,-106,-8,123,263,563,1134,1076,-456,-1347,-787,-282,-64,160,66,-102,-107,-71,-8,23,14,54,115,156,147,48,-86,-349,-628,-282,-382,-260,9,95,-29,-125,-200,-106,-72,-156,-556,-554,-293,-362,-728,-829,-165,-220,-367,-424,-735,-729,-704,290,949,752,671,379,595,698,97,156,1594,2864,1072,-708,-534,-43,-100,-253,-416,-441,-457,-340,-99,-119,-201,-147,46,226,348,307,334,313,281,265,207,211,279,482,651,575,406,227,152,57,-13,-22,10,-113,-88,-30,-5,-77,-111,-126,-152,-197,-389,-663,-1098,-1009,-546,-298,-196,-269,-433,-586
2018-05-22,10:00:31.312,230,1413,1120,-164,-656,-766,-1003,-244,280,-650,-942,469,913,-264,-1513,481,1310,400,657,1417,746,352,1282,593,-130,293,249,255,154,-96,-251,-204,16,18,-283,-389,-140,-46,-51,-63,-29,-111,-92,82,9,-170,-176,-141,-224,-283,-176,-163,-227,-213,-312,-176,503,1223,363,-967,-1032,-606,-338,-181,-138,-252,-498,-945,-897,-521,-287,-77,-128,-253,-376,-331,-197,-359,-189,-162,-157,-164,-103,-107,-218,-268,-132,-114,-470,-149,-389,-501,434,-257,326,1207,1318,1672,567,78,931,664,270,382,302,97,3,-146,-287,-253,-299,-363,181,1124,721,-859,-1260,-798,-309,6,93,155,244,236,155,153,151,148
2018-05-22,10:00:32.349,208,197,122,132,274,276,263,168,151,149,91,61,72,91,99,192,55,-304,-908,-1000,-771,-465,-229,-192,-237,-342,-273,-258,-335,-274,-46,-154,-177,-131,-207,-424,-575,-707,-968,-588,654,948,-43,-1298,334,761,1086,682,401,392,226,32,137,629,383,122,-95,-118,-78,15,9,-91,-68,-63,-20,51,68,73,111,162,156,114,141,61,-47,-132,-246,-243,-100,-22,-41,-18,90,90,-21,-85,-94,-141,-233,-289,-304,-285,-380,-457,-539,-260,1140,579,-904,-1102,-707,-459,-249,-215,-209,-268,-84,87,21,-293,-205,95,-330,-492,290,-239,-1329,-348,-113,-2333,-466,2113,251,275,2073,1910,875,524
2018-05-22,10:00:33.386,484,51,132,178,-311,-361,-45,42,-21,-174,-231,-203,-80,11,-41,-89,-127,-161,-153,-119,-128,59,432,1243,1539,-12,-1056,-688,-274,-33,156,116,64,51,-1,-26,-43,-68,-85,-1,2,31,185,163,53,-102,-481,-530,-436,-189,-5,-6,-93,-170,-199,-210,-279,-179,-332,-829,-593,-423,-56,298,81,-765,-436,242,-670,-1133,346,1656,928,110,473,387,287,596,1621,1222,-95,-773,-522,-283,-137,-85,-58,49,-10,-68,-128,-288,-278,-155,-64,2,38,80,189,195,270,367,361,318,199,98,48,108,97,6,-8,54,-66,-218,-224,-105,-92,-130,4,188,160,-1,-195,-279,-350,-816,-947,-740
2018-05-22,10:00:34.424,-823,-479,-347,-392,193,1670,1416,-447,-1072,-815,-550,-304,-362,-333,-75,-2,-54,-13,12,-85,-330,-514,-147,-714,-777,1030,643,435,276,-346,-62,713,980,926,838,446,209,-34,-140,-38,-96,-343,-379,-199,-23,-99,-186,-143,-41,9,-42,-209,-121,-195,-171,-51,-79,-135,122,879,1568,336,-980,-779,-297,-226,-178,-76,-38,-43,-50,-13,4,-15,40,149,131,103,-19,-199,-645,-849,-332,-186,-176,-169,-130,-119,-141,-58,-127,-432,-451,33,-20,-99,-119,-71,-287,-82,181,196,73,-533,-355,90,390,627,931,755,525,264,153,603,1294,950,-86,-32,-195,-243,-14,-217,-363,-196,-146,-96,-19,24
2018-05-22,10:00:35.461,12,41,80,82,60,94,230,253,259,205,175,72,93,154,214,216,161,169,122,17,-36,-137,-216,-205,-183,-120,-105,-103,-127,-100,-93,-161,-367,-609,-927,-912,-349,-168,-246,139,1131,800,-597,-901,-553,-208,-135,-273,-121,-141,-316,-92,-63,-381,-23,-504,-1116,-647,333,802,79,190,633,999,654,304,777,697,521,263,-135,-131,75,-46,-71,203,-286,-536,-163,-67,-84,9,5,-58,-21,-33,-76,-130,-122,-31,-75,-198,-253,170,1250,1501,-198,-1232,-749,-344,-183,-93,-83,-141,-90,-44,13,71,105,62,11,-34,-31,-3,-81,-242,-406,-585,-557,-258,-73,-109,-289,-338,-224,-273,-279,-338
2018-05-22,10:00:36.498,-417,-616,-469,-833,-433,212,234,-318,-534,-135,-66,-339,-399,-651,-330,120,98,379,1312,2319,1811,455,-202,-247,52,-122,-40,335,82,-109,124,285,318,296,297,241,178,153,180,159,164,239,300,232,135,96,60,47,62,24,-49,-49,50,4,-69,-83,-29,0,-27,-84,-43,95,190,148,-11,-212,-528,-1109,-922,-766,-630,-500,-226,548,1395,135,-1319,-1312,-932,-491,-326,-571,-562,-441,-840,-526,-201,8,-79,-185,374,719,340,468,471,-103,262,699,472,627,936,529,421,430,437,379,20,-256,-84,264,-27,-486,-350,47,60,45,31,50,32,-70,-124,-53,-3,3,-152,-205,121,1111
2018-05-22,10:00:37.535,1230,-493,-1302,-759,-366,-358,-139,-49,-6,-20,48,138,177,139,84,15,-73,-247,-666,-600,-536,-298,-10,-16,91,97,92,58,95,91,18,106,117,-27,-56,11,-104,-285,-703,-1231,-415,891,188,-431,-297,213,514,311,310,76,767,1067,1922,1451,-374,-676,-384,-359,-210,-121,-224,-196,-143,-123,-89,12,54,70,67,41,107,178,262,298,375,397,394,246,201,220,95,38,-16,42,20,-76,-68,-106,-115,-110,-127,-102,-26,-28,-93,-180,-202,-324,-588,-996,-1057,-830,-673,-369,-25,880,1354,-24,-1149,-997,-636,-140,4,78,74,129,-60,-372,-663,-834,-42,485,-71,-37,322,782,418,438
2018-05-22,10:00:38.573,434,191,132,651,681,350,222,262,61,-56,160,61,-279,-327,-407,-596,-277,-46,34,-39,-112,-103,-126,-238,-261,-255,-209,-76,-66,32,678,1690,911,-1023,-1252,-745,-488,-274,-121,-108,-100,-65,11,65,37,-2,-105,-364,-694,-725,-691,-233,27,252,95,-108,-88,54,141,270,206,-172,-176,241,275,-263,-321,166,-157,-683,-681,-357,-137,699,545,628,674,-49,324,224,-76,244,400,1039,1589,253,-1009,-963,-658,-336,-325,-738,-448,-95,-130,-93,-154,-102,110,110,0,141,226,323,327,234,125,78,144,149,131,152,178,174,80,-24,-83,-155,-150,-109,-109,-97,-69,-24,-49,-268,-630,-512
2018-05-22,10:00:39.610,-479,-524,-362,-230,-292,-391,-444,-410,170,1458,1095,-555,-965,-794,-766,-324,-226,-650,-284,241,283,-377,-310,164,-376,-567,108,325,1619,1271,545,801,933,562,140,-224,49,444,527,319,176,72,219,279,-214,-681,-493,-86,100,220,92,-17,-4,77,59,24,20,2,-47,-52,90,517,1201,692,-822,-1182,-683,-409,-190,-4,10,-10,78,189,198,122,81,3,-343,-843,-554,-414,-197,57,92,18,-106,12,154,234,152,83,-8,-307,-466,-422,-505,-256,191,11,564,708,-458,-315,62,-103,1059,1103,124,512,530,236,-10,410,1554,1298,-431,-1171,-827,-504,-327,-123,-49,25,8,-72,-146,34
2018-05-22,10:00:40.647,14,0,47,84,68,148,150,106,87,71,90,121,154,108,14,179,364,243,61,-51,-130,-158,-166,-153,-124,-6,5,-45,-79,-58,-81,-187,-347,-629,-1115,-829,-685,-402,281,1463,1204,-603,-1233,-924,-583,-246,-256,-235,-201,-109,-64,-60,-23,15,35,-238,-582,-612,-446,235,800,264,-296,576,1270,817,357,416,489,596,385,-3,-43,154,44,-378,-144,55,-465,-425,-149,20,30,-65,-164,-193,-177,-145,-138,-160,152,1034,1541,234,-925,-719,-316,-231,-110,-48,-39,-84,-44,-51,-69,-107,-86,-51,1,98,130,105,52,-37,-218,-544,-717,-603,-209,19,-6,-146,-300,-389,-249,-141,-202,-262
2018-05-22,10:00:41.684,-307,-545,-270,-70,-50,-209,-1182,-1080,291,-356,-965,398,236,366,1311,2225,1813,612,117,-306,-646,-597,-301,4,147,423,521,82,-309,-504,-2,184,169,152,164,153,209,189,169,222,314,336,294,260,166,53,-78,-208,-330,-366,-334,-280,-215,-163,-83,-25,-86,-113,-64,-61,-119,-188,-442,-867,-606,-548,-537,84,1332,1584,-154,-1136,-833,-505,-262,-327,-367,-171,-84,15,17,15,-273,-546,-665,-892,352,949,438,8,160,360,-66,27,111,516,1281,1574,887,266,141,-5,-230,-247,-302,-312,-10,239,-148,-421,-203,55,4,-143,-162,-39,-16,-64,38,431,1184,1174,-408,-1192,-863,-438,-233,-153
2018-05-22,10:00:42.722,-74,-68,-171,-101,-16,-13,3,80,102,98,117,229,240,172,63,84,-182,-745,-495,-306,16,192,40,-86,-49,-164,-198,-271,-316,-261,-250,-552,-395,386,522,30,-730,-1101,-1164,-844,-574,-427,797,2206,2687,1287,-741,-1038,-216,-206,-179,-157,-228,-421,-494,-215,19,-87,-429,-578,-458,-144,31,32,-13,30,179,315,325,221,168,132,64,-14,-32,51,97,119,-76,-180,-276,-291,-192,-71,-12,-5,-14,-44,-112,-198,-285,-348,-347,-441,-561,-222,996,1164,-639,-1249,-561,-234,-145,-214,-213,-109,-100,-292,-212,70,116,89,64,-142,-508,-489,-603,-22,594,581,526,299,71,462,1202,1178,480,441
2018-05-22,10:00:43.759,482,238,96,-16,-301,-422,-311,2,105,-283,-235,-141,-203,-240,-196,-133,-134,-114,168,852,1366,158,-1102,-1020,-525,-236,27,107,122,150,150,80,105,65,0,45,90,165,218,268,306,295,203,156,148,34,-237,-581,-370,-268,-75,2,-122,-350,-207,-385,-227,178,-6,-134,-5,-235,-353,26,-605,-889,450,767,-280,-868,546,1241,736,-173,21,270,593,692,306,160,21,-132,42,196,93,182,299,243,160,106,76,212,246,202,224,185,219,263,187,166,229,93,-103,-72,-8,36,38,-13,-24,7,12,-30,-34,-53,-130,-223,-253,-236,-199,-191,-251,-15,988,1746,-67,-1531,-1308,-1019
2018-05-22,10:00:44.796,-354,-63,-301,-268,-128,-63,-38,-22,-2,-238,-579,-73,-400,-365,569,699,338,-94,61,-57,-1035,148,414,324,975,1285,621,393,-84,49,55,5,-161,-344,-181,-292,-290,-312,-235,-215,-470,-263,-193,-295,-215,411,1229,474,-1121,-1281,-706,-215,45,14,60,105,141,225,301,286,220,84,52,107,143,131,91,99,128,106,120,179,204,176,104,-23,-366,-702,-539,-288,-191,-128,132,-46,-133,-131,-61,25,-188,-357,-408,-585,-115,169,-227,-700,-208,1180,1173,-103,-944,-652,6,161,437,699,611,244,-30,326,235,-8,-43,-214,-206,-74,223,344,-61,-15,220,223,223,247,263,309,279,141
2018-05-22,10:00:45.833,88,-2,-63,15,-21,-70,-21,-34,-81,-83,-49,-83,-201,-289,-275,-246,-252,-368,-302,464,1860,1417,-579,-1045,-688,-596,-593,-602,-326,-484,-474,-161,20,-26,-149,-394,-457,-91,-210,-35,298,295,146,-335,-583,-36,-402,-167,1049,1097,385,-112,3,-502,-579,63,705,277,388,695,349,-48,49,165,-206,-473,-476,-479,-381,-246,-30,817,1288,-220,-1330,-1105,-734,-293,-48,-67,-46,43,114,169,185,173,179,122,100,102,142,191,252,292,225,210,195,171,170,195,134,135,141,56,-66,-409,-839,-577,-539,-303,-84,5,-176,-328,-353,-186,-126,-194,-372,-509,-747,-706,604,1280,44,-545,-381,-592
2018-05-22,10:00:46.871,-255,215,-322,46,127,144,692,333,6,312,741,496,332,289,150,-17,-179,-258,-266,-38,165,256,177,-73,-174,-147,-178,-253,-199,-64,-39,15,37,27,5,-51,-128,-126,-159,-168,-194,-244,-288,-192,535,1580,777,-1078,-1345,-841,-589,-271,-142,-139,-101,-112,-147,-293,-775,-414,-465,-318,26,47,-43,-210,-322,65,222,91,62,128,92,-124,18,204,122,-79,-250,-492,-932,-426,412,-136,98,186,-111,398,215,229,753,382,88,-111,-256,219,1807,1752,-457,-1304,-1032,-704,-182,-55,-117,-26,-64,-114,-66,21,50,59,211,267,199,209,228,245,222,217,216,244,265,213,147,27,-72,-144
2018-05-22,10:00:47.908,-195,-197,-168,-128,-85,-37,-83,-131,-317,-760,-756,-709,-471,-277,-236,-409,-576,-242,348,1179,1012,-330,-1488,-1322,-170,220,14,-383,-523,-196,688,1195,394,481,652,994,1209,702,-63,-33,411,528,637,486,294,483,229,-101,-489,-179,-146,9,-28,-50,-59,-68,56,136,115,102,145,43,-146,-226,-235,-155,-189,-187,14,813,1477,101,-1380,-1282,-772,-479,-203,-91,-50,0,96,175,84,-4,-143,-560,-435,-260,-100,356,342,185,133,102,108,136,197,289,294,159,157,21,-214,-797,-828,-102,211,-224,61,614,470,-162,18,567,444,784,1057,937,351,18,1311,2230,738,-617,-564,-380,-279,-112
2018-05-22,10:00:48.945,-512,-727,-234,-88,-131,-166,-169,-65,63,96,73,107,113,117,121,285,435,379,352,291,194,-26,-182,-52,-156,-259,-200,-210,-316,-269,-172,-153,-250,-287,-298,-330,-530,-746,-921,-916,-772,-640,-199,689,1185,-77,-1057,-937,-583,-296,-64,-109,-124,-124,-30,-95,-266,-65,85,-262,23,790,341,-613,201,880,149,173,815,944,897,799,550,472,355,268,25,-187,-345,-180,36,-60,-206,-42,53,9,-71,-92,-153,-179,-244,-243,-128,396,1364,1137,-559,-1173,-889,-614,-419,-393,-376,-297,-225,-144,-115,-77,-32,-94,-198,-154,-50,-5,-113,-289,-576,-633,-387,-240,-4,138,79,-19,-81,-180,-218,-80
2018-05-22,10:00:49.983,-43,-102,-1,-6,-555,-629,-392,-427,273,835,310,2,64,-630,-240,-58,975,2958,1629,-419,-384,-622,-807,-326,-119,-142,-217,-137,-65,-305,-675,-589,-315,-50,213,286,245,174,152,145,194,284,363,412,415,279,94,-29,-16,-126,-204,-221,-204,-219,-138,-67,-92,-56,-21,-84,-181,-223,-252,-251,-239,-253,-70,480,736,-584,-1695,-1419,-730,-326,-35,-132,-10,240,271,180,1,68,-484,-505,82,619,807,459,10,-163,55,419,146,267,765,522,929,915,1031,729,381,317,260,-265,-57,229,1,-193,-260,-308,-167,-349,-509,-368,-236,-228,-138,363,1170,549,-1010,-1145,-558,-77,40,-110,-77,-23
2018-05-22,10:00:51.020,-58,-80,-18,34,29,-58,-130,-53,-19,40,108,143,147,165,75,43,-43,-295,-509,-432,-445,-233,8,-56,-382,-448,-34,52,56,75,42,-80,-59,-49,-448,-479,-159,-277,-123,14,548,1681,897,-786,-1320,-416,610,892,493,-55,-511,-17,140,51,42,-51,82,236,148,-39,-87,-32,107,172,127,113,150,142,68,40,-47,-25,71,60,-4,-79,-100,-40,-1,-60,-92,-45,-60,-165,-247,-313,-314,-289,-301,-165,386,1055,340,-1011,-1194,-860,-924,-583,-381,-381,-165,-139,-87,-91,-137,-129,-247,-57,44,-155,105,24,120,261,87,102,-37,63,234,143,248,163,135,327,780,817,400,-3
2018-05-22,10:00:52.057,544,493,423,85,-308,-61,-262,-326,-193,-83,-37,-312,-281,134,635,-259,-1257,-1050,-501,-107,-5,-46,-5,54,67,125,114,86,122,200,166,64,114,214,306,357,389,365,323,265,220,222,191,77,20,-48,-247,-626,-957,-659,-620,-318,-189,-148,-221,-430,-590,-419,-159,-157,-269,-457,-533,-127,928,1162,-333,-883,-658,-524,-15,412,198,295,-136,157,527,340,568,393,620,497,3,55,-8,48,273,463,510,327,180,262,242,100,29,-45,-120,-117,-139,-90,-14,28,12,44,83,5,-101,-186,-229,-325,-345,-350,12,567,970,5,-1381,-1527,-1042,-648,-368,-197,-92,-21,110,100,-23,-190
2018-05-22,10:00:53.094,-352,-563,-604,-480,-268,36,230,129,-21,-53,30,13,-191,-205,85,197,32,-65,8,-131,-548,-357,-614,-617,-259,1044,1277,630,130,481,434,-284,161,507,48,212,1607,2120,210,-1466,-1283,-423,16,-664,-591,-174,22,-40,-80,-50,17,79,151,154,275,388,418,318,240,236,269,263,227,181,175,106,10,-109,-203,-251,-255,-238,-141,-50,-2,-56,-102,-129,-335,-639,-808,-1212,-789,-190,-171,-176,433,1248,419,-848,-757,-372,-353,-557,-62,99,-731,-542,-59,229,-287,466,693,1009,609,364,583,773,520,281,489,477,211,196,264,192,-15,-289,-432,-566,-383,-110,-16,29,57,15,-51,-79
2018-05-22,10:00:54.132,32,-22,-127,-165,-190,-333,-484,-391,342,1512,879,-899,-1126,-640,-443,-254,-128,-116,-54,13,24,-6,-63,-146,-415,-197,-441,-28,293,225,66,-13,44,99,74,145,169,26,-40,-56,-109,-116,-139,-196,-263,-653,-691,101,356,-297,354,1001,682,-31,1,345,90,575,1547,1912,357,-937,-1054,-818,-554,-122,5,-517,-921,-549,-242,-121,-32,16,26,46,143,232,277,322,367,371,401,401,295,174,87,110,103,-37,-198,-287,-237,-176,-150,-116,-74,-106,-125,-96,-155,-238,-309,-275,-437,-811,-897,-807,199,1172,592,-922,-1159,-809,-645,-329,-161,-228,-183,-129,-41,29,-217,-930,-791,-303,-249,104
2018-05-22,10:00:55.169,1380,1547,831,-533,-394,-85,499,624,291,298,0,250,676,1053,672,293,189,302,159,-101,-340,-380,-96,63,-60,-172,-159,-152,-178,27,781,1340,198,-1056,-983,-514,-261,-190,-275,-301,-196,58,174,175,147,123,114,142,209,281,216,160,113,-19,-121,-554,-566,-224,-268,-130,-12,38,-86,-226,-214,-115,-84,-45,-63,-123,-168,-288,-384,-651,-908,-171,427,119,-282,-744,71,2007,1713,507,-27,-697,-133,881,644,425,297,-237,-207,-305,-513,-406,-78,166,159,-130,-338,56,384,255,262,325,340,326,226,157,166,113,14,-80,-175,-225,-187,-156,-91,-35,-54,-153,-273,-334,-356,-336,-208,-172
2018-05-22,10:00:56.206,-165,194,1050,894,-684,-1515,-1758,-1270,-640,-216,11,-73,-246,-133,48,-15,-174,-385,-297,26,90,118,186,228,216,158,-101,-32,20,-241,-140,201,856,625,-130,-806,73,699,584,907,641,21,155,467,253,-135,-80,14,-58,-24,-232,215,1138,351,-1058,-1216,-910,-481,25,40,-67,-40,-17,-32,-16,0,62,143,141,120,119,146,176,136,119,142,289,404,450,413,310,138,0,-29,-88,-102,-121,-146,-177,-170,-397,-452,-362,-192,-46,-188,-303,-305,-636,-601,-18,769,1918,1106,-572,-754,-400,-212,-665,-961,-119,161,-698,-706,405,862,160,-199,167,702,547,514,591,503,461,298,107,52
2018-05-22,10:00:57.243,38,-53,-46,-14,-111,-203,-98,-35,-85,-119,-75,-83,-141,-172,-164,-196,-258,-273,-198,-154,-163,-53,461,1258,749,-774,-1164,-792,-492,-190,-84,-66,-30,-38,-13,54,81,80,81,43,-14,34,-135,-504,-546,-89,168,168,-17,64,308,209,-1,-55,-198,-237,-315,-134,1,-206,-392,-400,-876,-727,-328,-754,-788,191,75,-516,-1687,-293,3068,3136,1047,261,21,17,33,-145,-275,-405,-228,0,340,166,-179,77,408,294,40,-81,-17,214,402,351,331,327,274,339,331,239,65,-82,-147,-232,-295,-281,-96,-50,-124,-160,-123,-117,-182,-285,-403,-362,-271,-376,-436,335,1521,907,-793,-1271,-914,-592
2018-05-22,10:00:58.281,-216,-206,-379,-318,-337,-320,-371,-303,-354,-335,-409,-762,-287,300,419,358,53,-616,-351,-229,958,1542,1041,534,332,360,595,328,439,525,555,234,56,39,-116,-266,-118,-196,-321,-429,-439,-291,161,824,459,-851,-1196,-812,-480,-3,88,91,323,384,283,186,161,93,141,174,83,16,-6,66,130,73,50,157,218,233,175,102,-2,-132,-264,-433,-838,-706,-598,-682,-218,8,-85,-241,-316,-385,-378,-380,-352,-250,-253,-17,1068,1421,195,-808,-1433,-640,451,76,-679,225,462,249,337,686,-155,-315,979,925,354,210,-48,-59,57,168,183,11,-61,-116,-137,45,-239,-283,-96,60,13,-37
2018-05-22,10:00:59.318,34,16,13,-27,-59,-81,-58,-132,-194,-191,-215,-108,307,1236,1189,-547,-1330,-990,-667,-440,-162,-68,6,93,110,96,113,-32,-279,-696,-440,-381,-37,246,234,93,-11,70,189,316,199,80,0,-136,-255,-189,-192,-381,-581,-142,151,-484,-862,-422,-128,49,635,810,225,-65,460,1095,1490,785,-141,-621,-637,-470,-307,-239,-101,-120,-132,-45,38,156,156,236,296,291,310,329,377,416,419,384,330,325,311,258,79,-67,-163,-346,-349,-249,-226,-182,-127,-173,-203,-159,-93,-168,-247,-196,-176,-231,-405,-629,-276,636,240,-904,-1315,-1015,-699,-344,-253,-277,-319,-439,43,404,319,297,319,113
2018-05-22,10:01:00.355,-37,-403,-741,-348,71,541,748,445,270,559,349,-269,408,1290,851,480,281,41,-68,41,247,-71,-429,-596,-534,-60,48,-724,-477,-292,-162,510,1107,42,-1144,-1061,-617,-20,115,120,350,428,325,229,218,240,193,168,199,200,214,251,167,114,131,130,111,129,174,165,55,-108,-257,-306,-398,-538,-904,-843,-359,-144,-202,-341,-344,-304,-305,-332,-237,-252,-417,-319,706,1372,354,-664,-705,-951,-1242,-1025,-836,182,637,343,71,305,783,274,-169,5,287,1075,1176,689,315,367,358,198,107,131,-111,-296,12,57,-48,-41,152,176,57,0,-21,-68,-109,-105,-48,-176,-328,-521,-600,-390
2018-05-22,10:01:01.392,350,1418,748,-1050,-1272,-757,-466,-218,-116,-114,-65,-71,-152,-202,-174,-95,-348,-572,-162,-297,-187,116,146,65,-152,-272,159,430,310,174,-101,-311,-596,-514,166,363,899,882,14,44,184,-1118,-1371,-454,814,2023,1215,436,1074,1995,935,-749,-968,-681,-505,-206,-102,-98,4,0,-95,6,98,14,-24,31,76,145,200,257,311,423,587,552,407,244,97,-52,-130,-197,-214,-228,-202,-195,-161,-155,-191,-220,-167,-109,-123,-178,-241,-188,-239,-520,-926,-42,814,-28,-1098,-1093,-795,-387,-180,-286,-414,-88,113,-33,-160,-136,-613,-611,-163,-50,101,387,569,316,-37,-59,1433,2079,591,647,1334,529
2018-05-22,10:01:02.430,337,157,-33,47,-60,-304,-192,-42,-38,-113,-217,-507,-340,-171,-176,-189,-97,331,1170,751,-905,-1318,-776,-341,21,32,39,33,-4,-17,-61,-108,-68,-17,-6,28,71,164,189,153,92,34,-41,-196,-473,-445,-407,-190,-89,-45,-113,-77,-1,-17,-30,-196,-409,-439,-354,-163,-48,-280,-637,-593,-676,-500,1005,1831,781,-345,9,136,-69,-202,625,23,-252,148,244,638,284,-363,-26,520,247,4,27,-52,-95,60,64,89,115,77,-7,-13,-47,-87,-81,-49,27,180,224,104,26,29,76,13,-52,-98,-113,-113,-64,142,685,1029,-59,-1315,-1261,-699,-326,-84,-43,-90,-173,-510,-671,-907
2018-05-22,10:01:03.467,-473,215,345,217,111,71,15,-69,18,90,92,156,226,150,154,40,-206,-584,-391,125,-450,-734,515,455,-199,-320,260,802,585,167,-16,75,461,529,538,1531,1836,276,-761,-764,-501,-367,-982,-1171,-447,-139,-102,-58,-12,112,121,100,122,171,290,384,481,400,273,321,352,273,196,158,49,-90,-206,-285,-297,-252,-196,-84,-83,-115,-112,-98,-213,-410,-516,-666,-813,-985,-625,119,1136,856,-777,-1284,-875,-535,-144,-199,-241,-241,-684,-186,417,270,-69,-195,-539,-438,-83,188,180,86,780,1335,628,-245,184,552,758,707,556,364,320,141,-97,43,283,75,-122,-207,-150,-248,-344,-328
2018-05-22,10:01:04.504,-336,-371,-205,312,959,366,-882,-1061,-700,-220,207,192,51,-20,24,105,76,-3,-52,56,52,24,9,25,66,52,119,217,255,250,180,13,-186,-612,-604,-509,-719,-411,-139,-104,-226,-311,-277,-234,-297,-265,-288,-396,-696,-646,-821,-893,672,2437,1609,-363,-1123,-828,-320,113,346,73,-26,594,728,491,216,164,61,-61,-102,-98,8,257,54,19,105,203,190,137,182,38,-107,-91,-49,-77,2,133,85,65,-15,-58,-207,-215,-47,-75,-186,-203,-41,441,970,-4,-1450,-1457,-931,-519,-119,114,192,90,-24,-439,-604,-448,-194,69,255,216,131,248,345,325,186,219,173,128,48,406
2018-05-22,10:01:05.541,373,-453,-243,348,15,-380,-325,-431,-136,1150,1304,676,395,413,518,259,-61,-288,-70,122,944,1075,-456,-1252,-1113,-1068,-549,13,25,-525,-421,55,281,242,137,120,154,124,159,251,319,165,87,143,242,258,236,186,91,-2,-151,-194,-255,-300,-263,-159,-160,-180,-206,-283,-452,-476,-531,-942,-679,-193,-302,-308,581,1466,369,-1069,-889,-315,-35,-81,-112,-197,-333,77,78,-548,-244,38,38,-86,390,389,376,425,453,324,741,1301,406,324,26,-269,91,44,-102,-333,-415,-445,-460,-1132,-1058,-276,162,402,401,120,0,-36,-31,173,876,1668,804,-932,-1120,-575,-341,-174,-122,-89,-126,-65
2018-05-22,10:01:06.579,-58,-70,21,103,157,209,176,100,28,30,-191,-524,-373,71,274,130,-71,-163,-180,-232,-202,-112,-152,-223,-121,-60,-155,-119,-322,-707,-386,-101,-478,-481,-665,238,1617,844,-145,81,-154,-496,656,376,637,987,645,-23,104,174,-7,145,-43,71,268,-110,-410,-60,243,370,384,388,443,374,290,183,137,79,82,49,-6,-20,-83,-150,-202,-135,-230,-426,-351,-180,-165,-402,-424,289,1598,1239,-447,-961,-960,-1081,-525,-725,-1015,-697,-368,-276,-308,-388,-360,-380,-300,64,10,-273,13,307,-6,-317,-272,-629,-1634,-531,175,-363,-327,1411,2381,1550,579,352,370,40,-131,240,274,137,45,-123
2018-05-22,10:01:07.616,-114,-171,-352,29,1164,751,-800,-1154,-811,-413,-143,-65,-31,81,114,122,165,351,452,383,340,317,209,176,222,302,303,362,428,369,252,108,22,-65,-167,-205,-164,-169,-166,-164,-417,-885,-863,-1028,-775,-350,-262,-360,-402,-370,-410,390,1472,697,-728,-913,-718,-791,-476,-8,186,-140,-940,-449,484,35,-195,86,534,904,974,422,386,887,1174,589,159,209,190,178,56,-145,-408,-189,136,-263,-452,-83,167,399,271,35,-149,-227,-269,-224,-221,-298,-48,827,1479,106,-1051,-705,-424,-296,-165,-229,-312,-327,-281,-218,-124,-50,20,45,9,-12,-60,-356,-629,-380,-497,-190,159,178,62,-62
2018-05-22,10:01:08.653,-117,-163,-194,-163,-232,-174,-29,-50,-13,-141,-200,-38,-169,-439,-434,-467,-772,-91,639,1675,1300,236,-410,-238,400,209,209,580,508,238,135,271,170,55,-142,-240,-234,-112,250,192,177,264,267,331,312,262,158,76,75,45,80,85,112,143,163,66,-93,-146,-172,-290,-389,-448,-451,-427,-397,-148,502,896,-167,-1146,-989,-560,-386,-376,-805,-668,-339,-165,-44,-136,-215,-403,-182,132,115,240,226,187,85,156,190,109,154,203,-6,-371,-260,79,326,-174,6,-28,203,507,441,510,461,466,199,-81,-170,-306,-559,-236,1457,2153,-28,-1840,-1829,-905,-150,-54,-168,-151,9,102,168,186
2018-05-22,10:01:09.691,219,174,168,155,207,294,377,376,368,348,351,401,361,250,88,-85,-234,-291,-240,-154,-84,9,1,-60,-48,-160,-528,-815,-1093,-999,-389,-285,-393,-173,651,932,-364,-1063,-731,-539,-454,-314,-61,-155,-561,-225,221,-38,-512,-300,-248,31,-371,-34,1219,1323,987,885,700,825,727,345,542,348,78,-39,337,381,18,-215,-376,-194,-23,-77,-260,-266,-109,-46,-124,-58,264,913,1116,-183,-1287,-1099,-669,-287,15,75,89,98,34,52,36,76,101,-14,17,128,247,236,252,163,-202,-571,-305,-315,-415,-294,-117,-143,-263,-377,-372,-379,-356,-301,-352,-236,-9,-80,-414,-572,-512,-974,-521,483
2018-05-22,10:01:10.728,750,2755,2607,193,-1029,-154,-123,-416,502,352,53,385,346,146,55,57,5,-166,-294,6,278,186,-213,-240,228,253,205,154,72,-35,-104,-95,-97,-69,52,214,241,108,-52,-130,-184,-273,-362,-362,-306,-322,-214,224,904,374,-1107,-1454,-1077,-677,-213,57,4,-122,-228,-312,-500,-565,-333,-288,-482,-416,-593,-372,516,741,513,261,157,118,131,-106,-517,-440,-18,413,531,-240,-430,189,342,65,255,381,544,503,720,1878,2477,1309,-821,-1238,-570,-562,-842,-817,-692,-471,-356,-543,-512,-435,-402,-230,-20,-167,-216,60,298,367,286,247,279,253,190,132,113,123,46,-86,-22,46,-36,-109
2018-05-22,10:01:11.765,-93,-115,-162,-221,-257,-280,-273,-346,-470,-563,-694,-990,-1352,-1250,-517,947,1328,-496,-1670,-1095,-339,6,-40,-148,-288,-123,-405,-442,269,493,307,144,-13,-226,162,124,16,839,1125,1047,1023,887,1248,1064,723,704,538,194,127,217,47,-356,-80,211,22,-158,-199,-114,-88,-105,-59,170,810,816,-405,-1054,-787,-310,213,303,207,175,150,120,239,196,145,98,88,89,83,94,129,135,111,130,149,110,0,-66,-184,-506,-665,-972,-907,-307,-151,-304,-459,-536,-369,-215,-329,-331,-337,-432,-588,-946,-494,663,1717,1033,-597,-1205,-939,-426,8,-227,-381,69,35,-368,23,-64,366,577,617,399
2018-05-22,10:01:12.802,-296,-322,-67,54,248,345,155,112,-141,-530,-456,-126,67,-17,-43,15,58,5,-39,-18,-105,-116,-148,-140,-199,-289,-360,-70,883,1947,821,-1093,-1226,-768,-560,-272,-43,13,49,72,144,192,219,210,228,176,78,-204,-146,-208,-31,210,224,112,-74,166,410,53,-45,95,-113,-526,-565,32,465,430,152,39,-390,-1195,-695,-528,-179,-163,1094,2216,1067,-11,-260,-627,-308,116,435,606,158,-171,193,704,457,-59,-235,115,360,427,442,395,322,299,319,339,271,181,80,22,84,21,-58,-136,-82,34,65,22,-30,29,5,-149,-331,-402,-352,-364,-361,-4,812,1177,-272,-1288,-1152,-1137
2018-05-22,10:01:13.840,-721,-599,-750,-496,-172,-153,-291,-293,-198,-168,-129,-170,-21,75,60,128,171,-41,-108,215,169,145,592,310,-16,52,275,860,958,352,418,649,722,286,118,-156,-21,52,-554,-815,-504,405,1870,890,-1846,-1821,-797,-225,45,-23,-92,-59,-24,9,46,95,305,412,310,186,14,26,213,380,394,334,328,379,334,157,-58,-178,-192,-167,-155,-102,-35,-128,-307,-841,-1054,-844,-793,-465,-384,-388,-513,-482,90,1028,787,-680,-1303,-1065,-700,-295,-78,37,70,-51,-56,-588,-1076,-1027,-571,980,1782,1481,681,672,616,422,658,561,337,637,240,33,99,-93,-296,-290,-257,-168,-23,-73,-120,-15
2018-05-22,10:01:14.877,-2,-153,-168,-211,-205,-198,-67,604,1412,544,-1095,-1177,-464,-63,0,12,18,10,-13,-57,-109,-79,-38,-18,-11,60,128,144,124,98,7,-142,-327,-571,-474,-498,-434,-134,-8,-100,-204,-167,-153,-164,-6,69,12,-65,-210,-273,-569,-1048,-1361,-404,1071,2318,1970,396,-646,-852,-927,-117,0,-7,876,524,121,2,-36,18,48,-285,-336,-128,91,124,-77,-14,109,287,257,180,81,-20,-128,-166,-147,-9,158,170,71,-31,-9,75,64,-41,-9,-29,-168,-246,46,822,994,-516,-1419,-1144,-682,-314,20,126,78,-10,-252,-667,-612,-520,-109,67,18,-13,159,191,151,266,289,206,39,63
2018-05-22,10:01:15.914,95,-19,11,44,-546,-782,-283,-883,-862,389,1308,1413,1299,235,22,549,77,-106,428,28,451,1669,476,-1150,-1037,-564,-356,-227,-105,133,160,133,149,149,169,144,185,269,301,273,226,179,241,378,466,490,398,255,172,67,-89,-88,-114,-157,-209,-193,-127,-106,-132,-205,-300,-618,-944,-566,-893,-695,-355,185,1300,766,-1057,-1258,-706,-335,-161,-153,-157,-128,-500,-945,-1004,-436,591,1089,997,381,-570,-706,7,522,233,582,1261,1344,825,619,582,249,-180,-326,-38,243,272,-41,-336,-138,265,-352,-788,-524,-229,-181,-233,-69,530,939,-125,-1058,-689,-314,-116,-8,-83,-141,-127,-138,-162,-64
2018-05-22,10:01:16.951,-91,-60,89,162,234,261,255,269,303,262,42,-453,-428,-419,-566,-419,-202,-198,-320,-473,-357,-365,-685,-357,134,138,-111,-214,-581,-935,-686,-551,-255,1255,2058,720,-801,-1222,-621,247,-34,-174,945,1220,653,304,350,268,213,188,112,-111,-321,-85,386,553,-96,-193,64,277,349,231,47,6,43,60,29,24,-28,-133,-144,-155,-265,-525,-440,-117,33,-26,-7,531,1505,767,-1226,-1610,-1039,-645,-356,-169,-101,-48,-25,-48,-175,-407,-260,-350,-270,4,85,73,46,18,-251,-331,271,425,297,167,5,-48,-219,-648,-542,-365,-271,407,622,192,611,390,291,-32,187,472,606,827,371,950
2018-05-22,10:01:17.989,-229,-1480,-1057,-505,-101,229,38,-226,-380,-66,66,71,86,136,49,18,118,269,270,273,313,447,478,521,441,296,190,-87,-333,-298,-174,-126,-38,55,23,-32,-37,-64,-154,-298,-335,-368,-392,-533,-621,-72,644,-767,-1901,-1455,-1066,-798,-731,-433,-147,-178,-159,-128,-122,-197,-776,-555,440,453,149,293,386,83,-378,-224,398,504,92,440,550,329,35,480,523,911,1156,-887,-1059,0,461,194,-51,-318,-422,-331,-402,-155,739,1103,-288,-1379,-1063,-456,95,228,307,286,450,543,417,342,314,301,337,366,436,445,444,419,417,427,428,439,376,268,169,14,-119,-239,-441,-709,-628,-804
2018-05-22,10:01:19.026,-423,-172,-173,-378,-518,-439,-356,-340,-311,-291,228,1088,738,-636,-983,-695,-603,-136,212,-103,-787,-269,676,59,-681,-725,-161,373,405,833,1356,1330,416,554,784,861,1332,533,-539,-586,-283,-224,-165,281,-64,-644,-391,-34,56,-36,-151,-173,-119,-94,-161,-202,12,756,1014,-467,-1562,-1182,-465,-24,92,-38,-113,-128,-62,-36,-15,15,47,87,206,286,325,225,157,32,-411,-413,-86,-70,160,190,-16,-72,-182,-317,-353,65,320,208,92,-146,-494,-932,-733,441,-42,38,546,93,1001,1843,832,302,122,-370,-172,285,268,21,125,-208,-464,-411,-149,18,24,112,416,342,-62,-593,-133,459
2018-05-22,10:01:20.063,629,532,294,130,33,-38,13,108,156,233,145,32,15,110,138,-58,-222,-269,-211,-263,-214,249,977,394,-975,-1188,-811,-430,-142,23,-65,-343,-694,-635,-632,-249,3,83,28,61,-51,-113,6,234,235,128,120,83,34,26,-162,-375,-771,-820,-833,120,914,155,-74,591,901,356,441,588,573,306,168,308,682,1141,159,-1107,-1088,-695,-616,-270,-523,-391,-125,-18,66,105,118,43,28,82,197,362,320,191,122,200,385,499,492,376,160,-164,-600,-622,-375,-369,-347,-249,-227,-203,-271,-305,-290,-310,-619,-1002,-852,-652,-558,3,1162,1028,-793,-1538,-1116,-618,-234,-139,-178,-114,-60,1
2018-05-22,10:01:21.100,6,-80,-149,193,425,80,-674,-693,-475,-413,904,1123,165,915,1196,668,320,393,284,0,-57,-38,-65,-7,221,56,-395,-673,-713,-278,-74,-173,-198,88,712,740,-521,-1225,-949,-577,-236,24,81,66,84,188,326,438,336,226,85,101,143,181,144,102,109,166,206,250,272,206,-16,-232,-477,-744,-900,-501,-10,88,-57,-199,-141,-163,-207,-201,-136,-153,-273,-202,350,1070,467,-777,-1182,-821,-456,-762,-256,689,-123,-148,256,584,684,610,701,709,650,812,841,703,400,336,398,572,214,-214,-63,-83,-367,-205,81,178,173,124,135,110,162,126,61,35,-68,-98,-43,158,465,561
2018-05-22,10:01:22.138,-388,-1226,-1104,-727,-359,-91,-39,-20,58,67,111,192,159,101,88,100,76,29,-86,-246,-402,-485,-87,36,-78,-91,-53,-167,-192,-216,-144,-45,7,-81,-151,-169,-323,-294,-133,-59,55,-56,-413,-780,-101,691,386,540,699,-310,-229,16,336,753,868,531,289,66,-58,-53,-58,74,104,37,130,215,236,219,206,263,284,273,302,248,311,286,154,163,189,201,87,28,-35,-98,-138,-246,-331,-359,-399,-459,-264,332,188,-908,-1356,-1028,-579,-355,-378,-644,-764,-572,-499,-320,-88,-31,-130,-217,-364,-295,-143,-121,-142,-326,-497,226,765,452,-223,-234,321,169,-153,-157,-112,-132,441,805
2018-05-22,10:01:23.175,932,279,724,784,-72,336,762,-66,-186,338,1345,1329,-606,-1342,-916,-453,35,78,-682,-654,-179,-40,-33,87,249,346,551,464,375,311,249,237,238,143,77,254,377,318,247,228,181,120,-26,-76,-85,-112,-124,-136,-122,-124,-286,-556,-1033,-771,-1108,-1119,-215,1226,937,-975,-1467,-1077,-806,-465,-408,-569,-275,104,246,175,98,-174,-892,-746,1,827,548,446,233,494,791,831,900,883,762,251,500,401,641,951,371,-7,21,-55,-200,-322,-399,-220,-297,-261,-231,-227,193,902,441,-997,-1323,-839,-392,51,149,173,132,83,62,126,205,204,188,246,280,222,147,90,88,136,145,125
2018-05-22,10:01:24.212,137,164,48,-91,-178,-287,-736,-903,-816,-810,-433,-279,-303,-479,-669,-734,-569,-400,-414,-567,-287,823,1314,-236,-1370,-1240,-995,-922,-335,-534,-616,-348,144,332,49,167,800,508,201,564,613,416,426,280,121,165,261,83,-162,-572,-234,-54,-104,-29,89,120,92,82,43,-12,-46,-54,-54,-42,-141,-246,-226,231,1119,714,-994,-1549,-1024,-614,-381,-202,-202,-143,-15,104,105,135,161,129,-46,-476,-425,-750,-267,20,69,26,37,40,-203,-93,50,-37,-79,-51,-130,-99,-34,-302,-796,-1708,-642,-1177,-388,1911,1812,649,253,849,1813,751,-995,-138,373,414,371,60,88,107,-220,-317,-357,-239
2018-05-22,10:01:25.250,92,276,295,372,470,471,504,540,533,502,493,510,323,73,-136,-210,-92,26,0,-37,-61,-106,-98,-143,-177,-243,-296,-327,-309,-267,-313,-204,706,1774,704,-1173,-1322,-847,-893,-545,-249,-177,-181,-221,-205,-86,-218,-192,-89,-28,-7,112,133,192,-74,-520,-838,-479,689,956,86,-141,373,684,0,-483,709,824,816,1082,764,261,321,395,-144,-519,-161,-3,353,959,72,-1150,-1216,-785,-418,-69,7,52,148,176,209,235,268,349,255,207,193,249,478,484,490,571,465,359,290,187,62,-58,-102,-136,-207,-142,24,116,78,-70,-216,-362,-459,-496,-582,-455,-404,-673,-540,527,1181,-286
2018-05-22,10:01:26.287,-1269,-1150,-662,-131,-340,-209,96,96,124,185,-242,-31,268,-67,-42,534,205,405,751,680,652,441,371,971,705,49,-350,-442,-201,-123,-218,-198,-157,-18,-373,-268,-265,-269,-243,-167,-226,-238,-20,587,1183,238,-1186,-1233,-821,-677,-501,-342,-203,-59,-30,-51,-27,88,135,70,114,238,270,245,176,129,178,199,233,271,132,-24,-306,-424,-180,-124,-102,-48,-195,-226,-123,-44,-104,-462,-807,-147,181,-83,-332,431,1337,48,-1151,-651,-679,-828,-78,597,322,335,732,-129,-350,313,584,150,247,12,-116,71,336,334,130,-134,-266,-248,-98,-21,-30,17,52,81,143,137,120,7,-84,-120
2018-05-22,10:01:27.324,-289,-396,-376,-254,-300,-556,-95,903,1842,723,-1252,-1411,-904,-545,-232,-63,-29,-43,-28,70,167,151,94,-126,-456,-422,-301,23,178,215,133,49,124,267,161,89,4,-214,-266,-679,-604,-1,267,379,-129,-519,64,-188,-923,-404,548,986,373,283,1995,1590,-78,-501,-884,-516,17,-28,15,407,164,-201,-158,-196,-176,-9,181,332,430,474,457,413,423,424,400,405,321,134,-116,-233,-195,-94,-29,34,49,-76,-159,-193,-212,-253,-295,-316,-322,-309,-323,9,1139,1812,100,-1379,-1577,-1049,-1013,-654,-333,-232,-197,-155,-187,-278,-219,12,1,75,215,164,41,-66,-133,-335,-420,-197,-5,245
2018-05-22,10:01:28.361,599,599,49,-188,-108,461,662,653,380,353,58,-95,29,-175,-455,-486,-331,-7,275,582,-117,-1098,-1131,-796,-416,90,144,67,55,74,258,355,419,302,233,260,302,324,243,197,96,135,243,254,180,125,78,-22,-61,-92,12,7,-56,-183,-695,-577,-585,-485,-277,-278,-414,-494,-530,-518,149,1085,640,-733,-1104,-854,-770,-648,-240,-557,-711,479,755,404,85,-69,78,114,625,732,489,310,396,1195,1367,818,228,27,67,157,217,-38,-134,-119,-92,-548,-1303,-994,-316,348,847,488,-44,-178,-220,-247,95,893,949,-638,-1694,-1394,-761,-222,143,161,115,38,-29,-19,71,192,188,157
2018-05-22,10:01:29.399,150,279,351,360,290,217,-174,-505,5,-187,-420,-176,-80,-229,-372,-311,-267,-166,-181,-223,-218,-225,-399,-464,-444,-205,-48,-564,-704,987,1128,-302,-799,-615,15,407,52,303,373,170,646,262,542,826,570,234,167,52,-40,191,430,442,570,147,95,237,160,86,-44,-59,-18,18,78,102,125,92,20,-54,-189,-333,-347,-268,-236,-239,181,1403,1381,-657,-1397,-936,-608,-312,-112,-53,-24,-33,-77,-263,-723,-419,-382,-248,-1,36,-31,-122,-291,-153,102,254,354,271,108,-85,-196,-259,-665,-509,215,-57,168,423,-45,-517,-228,457,298,411,483,169,412,1237,1431,96,-964,-947,-539,133
2018-05-22,10:01:30.436,231,-308,-625,-404,-263,-673,-422,6,383,490,455,413,448,377,256,306,377,401,426,296,253,181,160,79,-68,-33,58,68,7,-118,-232,-274,-310,-345,-364,-324,-277,-217,46,645,706,-648,-1628,-1791,-1687,-618,60,43,-119,-177,-128,-4,196,228,151,60,-49,-249,-30,69,-174,76,288,-373,-530,-324,-321,818,1112,427,502,518,486,568,334,-115,134,91,-357,-225,138,120,-91,-285,-84,1093,1118,-1546,-2263,-1050,76,817,585,255,155,115,143,128,188,209,168,156,210,340,373,367,405,438,448,503,444,304,168,55,-55,-170,-224,-174,-104,-138,-288,-531,-557,-123,-637,-987,-542,-323
2018-05-22,10:01:31.473,-371,-587,-507,413,1390,295,-1060,-1099,-775,-510,-361,-304,-495,-386,-51,-538,-728,-90,56,291,406,-215,-242,659,981,358,171,992,1365,1303,481,62,262,781,643,-336,-672,18,79,-78,62,-206,-540,-546,-327,-154,-138,-78,289,1023,802,-808,-1333,-906,-462,-60,127,240,281,316,201,141,120,85,46,61,99,160,210,212,203,168,225,320,297,170,-62,-265,-454,-945,-733,-485,-591,-202,-81,-136,-227,-290,-417,-440,-376,-509,-515,-464,-197,624,1412,858,-248,-698,-1142,-207,-356,-1099,-46,-181,276,452,76,134,506,382,657,360,326,208,-158,-124,-12,155,329,206,11,-161,27,-4,-100,-90
2018-05-22,10:01:32.510,0,24,20,-14,-114,-56,-88,-202,-154,12,0,-4,412,978,317,-1136,-1441,-1059,-690,-418,-221,-160,-105,-18,40,69,148,228,280,226,196,63,-274,-510,-353,-325,-162,-48,-80,-290,-292,-333,-400,-312,-163,-424,-766,-146,136,156,112,-335,-227,-276,-832,-885,-1053,-108,1872,2409,1206,144,43,147,24,18,13,132,-142,-341,-232,-224,-12,143,44,327,-365,-828,-137,356,494,477,351,294,314,198,73,-25,-85,-121,-124,-30,-5,1,109,155,31,-33,-74,-184,-362,-333,-257,-11,807,1371,87,-1200,-1174,-856,-869,-259,-497,-766,-329,-88,-159,-273,-235,-153,-102,-55,218,248,-36,-12,323,246
2018-05-22,10:01:33.548,166,74,-121,-653,-573,367,146,-7,56,1,-204,63,834,831,378,197,70,43,-105,-251,139,306,1001,893,-622,-1434,-1205,-673,-343,-118,-5,-12,-18,116,149,161,179,189,220,342,412,379,345,320,259,342,446,457,391,298,219,156,18,-127,-180,-160,-174,-212,-237,-163,-220,-418,-609,-489,-430,-653,-762,-160,1147,922,-1017,-1603,-1124,-556,-18,147,56,11,11,-25,-26,42,49,99,97,213,194,1,122,-121,-174,159,248,319,677,320,437,693,407,301,205,311,369,369,128,-127,-408,-537,-337,-128,-147,-259,-59,717,999,-184,-1085,-907,-541,-288,43,93,59,132,147,218,264,304
2018-05-22,10:01:34.585,296,224,160,10,-149,-115,51,139,193,206,201,152,116,70,71,84,147,258,466,698,535,179,-418,-702,-334,-143,-317,-501,-661,-529,123,1249,1051,-548,-1120,-894,-572,-155,-334,-369,-14,-413,-1011,-471,338,585,311,-344,-522,-43,904,1069,837,400,630,841,595,312,346,131,-62,-145,-67,-49,64,29,17,-107,-260,-287,-239,-164,-152,-180,-220,-96,449,1231,628,-868,-1093,-700,-379,-97,5,6,33,74,36,72,71,97,169,160,185,247,269,228,209,266,274,246,185,-3,-499,-553,-650,-625,-401,-268,-281,-490,-586,-534,-619,-666,-710,-917,-1222,-1008,-1120,-301,1133,2096,1060,-316,-537,-1059
2018-05-22,10:01:35.622,-1512,55,244,1010,1636,1043,994,933,204,75,594,513,1057,850,289,413,441,358,365,254,127,14,-25,43,-14,-80,-60,-8,31,5,1,-51,-107,-230,-313,-328,-306,-282,-211,338,1482,1047,-995,-1410,-855,-666,-416,-219,-227,-241,-239,-262,-307,-239,-78,208,369,206,-284,-291,-102,-299,-43,114,81,-16,-179,-375,-643,-394,-1,-148,-223,32,11,-247,-367,-151,-376,-732,-554,-218,157,272,375,371,650,451,110,-110,-490,49,814,715,317,192,376,449,11,40,234,22,-220,-96,86,149,51,99,130,111,52,17,-16,-79,-120,-120,-22,102,173,103,43,-1,-113,-247,-420,-387,-365,-420
2018-05-22,10:01:36.659,-444,-39,1032,1226,-617,-1534,-1143,-756,-421,-201,-179,-231,-314,-684,-774,-487,-674,-329,-27,-85,-334,-493,-164,220,161,169,97,-107,-223,-323,-681,-556,-216,-402,49,164,-412,-276,630,520,554,334,77,214,136,117,165,535,1674,1252,-593,-1062,-632,-528,-301,-658,-675,-178,-31,-33,3,86,64,102,232,364,483,513,558,826,930,824,679,533,347,149,43,52,-7,-17,14,23,11,-26,-42,-91,-131,-156,-140,-167,-208,-282,-584,-56,395,-524,-1365,-1207,-853,-810,-547,-81,-23,118,71,-8,-140,-261,-768,-545,684,1039,428,250,199,425,976,554,351,1205,1103,941,1287,671,585,175,-97,438
2018-05-22,10:01:37.697,544,377,171,84,104,18,-380,-911,-1026,-394,503,1130,192,-1105,-1108,-591,41,280,285,285,284,275,243,151,-16,24,67,171,222,174,97,154,228,344,459,474,351,235,118,0,-80,-168,-203,-253,-521,-398,-428,-672,-526,-320,-359,-505,-504,-574,-883,-297,1069,1155,-648,-1176,-562,-312,-254,-278,-194,-76,-598,-699,142,-445,-185,884,596,370,407,270,864,-132,856,1533,815,416,343,235,110,141,228,384,418,146,-90,-295,-202,16,-72,-224,-246,-226,-221,-171,121,794,844,-562,-1335,-1042,-698,-428,-143,25,73,-49,-72,9,27,-32,-54,-29,48,139,209,219,201,206,198,140,-182,-545
2018-05-22,10:01:38.734,-138,-586,-593,-285,-326,-346,-313,-387,-534,-475,-162,-67,-95,-221,-262,-406,-675,-1355,-848,1751,2530,355,-625,-818,-867,24,283,568,658,412,337,463,296,108,131,299,155,-34,46,179,146,117,329,-40,-116,139,9,-93,-121,-154,-57,15,-16,-57,-73,-110,-176,-222,-138,-209,-380,-356,107,742,541,-902,-1605,-1362,-940,-596,-268,-122,-81,-21,42,106,64,-13,-115,-532,-279,-566,-612,-107,95,17,-127,-193,-84,-195,-283,-91,-79,-146,-169,-95,-16,-323,-646,-978,-1052,102,720,-126,-365,405,586,-50,553,2536,2080,-238,-460,448,213,-523,-532,-323,-327,-220,-170,-157,-247,-548,-168,97,122,123
2018-05-22,10:01:39.771,115,145,212,264,278,345,357,289,272,169,77,68,91,64,91,54,-11,-129,-319,-456,-490,-443,-381,-445,-375,105,980,498,-1092,-1449,-1002,-670,-465,-502,-657,-1236,-1105,-433,-156,-112,-125,-215,-112,61,132,132,148,-86,-356,-170,229,-457,-431,62,-357,-319,-613,-43,444,168,688,284,517,1296,1174,957,441,248,231,-118,261,1362,1402,-345,-1327,-1053,-554,-95,94,-76,-2,221,286,289,270,151,200,257,295,296,316,417,474,432,433,408,380,311,180,-5,-84,-203,-200,-124,-74,-63,-59,-86,-193,-339,-523,-784,-754,-745,-1001,-539,349,1140,180,-1309,-1153,-715,-330,-138,-124,-154,-125,-8
2018-05-22,10:01:40.809,-164,-575,-228,21,-201,244,141,-115,-172,-166,-400,9,490,697,1183,1405,1076,684,502,62,294,622,366,257,155,321,167,-80,-66,52,17,-43,193,891,976,-362,-1169,-1001,-604,-232,17,72,37,44,131,261,282,255,195,38,74,156,173,109,114,166,211,213,198,128,31,-77,-265,-683,-466,-450,-689,-534,-250,-192,-289,-392,-417,-505,-562,-378,-592,-631,268,1688,1031,-897,-1388,-606,-736,-225,560,218,32,437,1016,419,-77,569,568,262,334,286,432,361,-112,36,412,427,350,359,451,406,-259,-433,-48,125,-2,-138,-148,-135,-136,-230,-226,-150,-164,-188,62,668,1203,217,-1378,-1472
2018-05-22,10:01:41.846,-930,-514,-156,16,11,-1,-56,-51,66,103,124,186,275,177,8,-271,-555,-195,-229,-223,-66,-23,-228,-470,-479,-391,-347,-208,-12,-280,-612,-270,-252,-155,-370,-36,273,-249,-570,50,1541,1723,624,507,227,-345,644,908,704,937,101,-110,-74,-11,94,247,98,-150,-56,61,431,353,-179,242,751,716,425,321,213,164,146,134,192,193,75,30,-42,-109,-86,-20,51,23,-32,-146,113,808,765,-765,-1722,-1456,-957,-566,-230,-130,-110,-69,-91,-226,-484,-961,-918,-694,-325,-85,0,-3,-77,-175,-226,38,151,-58,-160,-175,-218,-332,-467,-944,-965,22,79,-484,-260,569,444,-360,-391,-26
2018-05-22,10:01:42.883,-4,-193,145,1614,722,-470,-527,-369,-59,90,-223,-324,-186,-29,-176,-187,-59,34,133,269,353,435,499,511,547,618,631,563,403,190,9,-97,-115,-90,-72,-1,-44,-87,-106,-131,-213,-296,-335,-326,-308,-326,-174,359,1092,404,-1046,-1299,-935,-582,-578,-1041,-977,-277,-46,-7,14,0,-6,143,250,210,255,154,230,179,219,284,290,258,-5,-297,-438,-1045,-1068,122,727,697,701,824,185,-1238,-1818,-1073,1582,2057,790,407,893,1452,363,-738,-866,-562,-219,-60,-218,-290,-117,34,236,332,323,256,233,266,237,240,207,249,341,426,459,357,154,-144,-411,-448,-557,-680,-491,-274,-68,61
2018-05-22,10:01:43.920,170,282,307,424,461,185,9,-156,-435,-239,949,1304,-352,-1592,-1263,-616,-294,-354,-430,-362,-282,-261,-170,-129,-55,10,54,48,41,18,166,345,417,265,-204,-370,-647,-547,469,702,157,635,876,289,262,471,114,77,85,-93,-34,44,34,-398,-61,1048,873,-725,-1294,-1327,-747,-191,-92,-119,-41,22,123,150,140,186,276,464,586,475,373,440,508,514,495,370,288,185,66,-89,-185,-242,-234,-169,-76,-56,-80,-110,-184,-314,-426,-554,-860,-1038,-1012,-724,331,587,-917,-1605,-1331,-1083,-713,-375,-286,-217,-252,-506,-612,-287,-376,-672,19,736,192,195,463,226,961,1149,741,48,209,1105
2018-05-22,10:01:44.958,1535,665,146,181,276,37,67,182,-7,-115,-232,-191,107,-381,-946,-591,53,1003,864,-740,-1368,-918,-333,116,205,441,413,231,125,71,117,151,84,189,189,111,122,161,262,297,314,388,349,202,47,-42,-117,-231,-288,-404,-590,-657,-997,-770,-397,-426,-457,-513,-587,-666,-442,92,932,574,-883,-1129,-790,-902,-506,71,-651,-309,340,-287,-59,711,375,507,829,1219,1052,771,1021,1172,914,1089,545,409,398,200,-34,-97,-32,406,98,-639,-514,-108,366,449,91,-61,-114,-122,-138,-79,465,1206,434,-1299,-1480,-866,-393,38,132,62,41,58,14,-54,-107,-63,2,72,145,202,173,196
2018-05-22,10:01:45.995,236,183,29,-475,-442,-509,-657,-421,-347,-370,-348,-318,-400,-384,-142,-234,-324,-392,-778,-725,-246,-232,-728,-138,1297,558,-753,-1367,-279,588,-244,212,800,-171,-23,761,1214,986,614,513,382,317,442,453,372,407,125,-56,108,134,58,1,-37,-52,2,90,107,160,105,88,38,-44,-30,71,24,-143,-286,-86,753,979,-639,-1606,-1176,-743,-472,-275,-258,-221,-145,-40,45,88,123,84,-113,-532,-584,-572,-263,150,202,116,88,-96,-267,-38,91,46,-79,-142,-27,-6,-94,-582,-723,-504,-463,-400,-617,-861,-1167,-20,272,1731,2553,1104,354,259,-11,-56,81,-53,-121,-9,-63,-227,-188,-203
2018-05-22,10:01:47.032,-153,43,152,195,239,302,322,353,403,377,370,286,166,310,418,322,181,146,113,-49,-137,-236,-320,-331,-299,-307,-298,-337,-330,-22,622,432,-874,-1380,-1071,-740,-707,-649,-668,-683,-354,-111,-92,-195,-284,-237,-252,-327,-106,191,139,-34,98,196,227,-103,-108,-116,-848,-317,334,197,200,200,170,40,510,274,47,-26,156,497,248,-404,-83,1055,1528,-7,-915,-815,-762,-478,-99,-397,-922,-613,-113,96,63,146,167,161,137,119,140,171,162,210,228,285,390,361,118,6,-133,-240,-243,-184,-110,-126,-124,-97,-142,-186,-225,-308,-389,-756,-1063,-730,-173,791,17,-1305,-1438,-1161,-857,-518
2018-05-22,10:01:48.069,-542,-566,-176,-111,-131,-316,-666,-557,-332,-88,480,866,946,682,15,-328,548,1006,433,623,1504,605,421,516,404,425,1002,884,617,-150,-203,7,58,-51,-216,-306,50,842,556,-776,-1131,-698,-217,175,304,269,252,247,258,289,330,287,219,179,359,621,573,502,418,370,236,116,81,34,-88,-211,-269,-246,-137,-101,-76,-137,-467,-730,-603,-695,-585,-356,-316,-423,-454,-54,1134,1101,-384,-781,-492,-212,14,-38,-506,-395,-102,-198,134,332,321,-3,456,927,629,150,645,833,912,580,552,660,395,60,2,-71,-95,-179,-344,-298,-343,-366,-254,-260,-265,-290,-269,-329,-256,-18,521,757
2018-05-22,10:01:49.107,-355,-1164,-951,-613,-370,-77,-32,-105,-83,-47,-4,6,29,42,43,70,67,75,152,178,192,283,272,167,-46,-348,-831,-515,-749,-549,-116,-115,-202,-313,-321,-431,-612,-181,24,-143,-332,-406,-17,844,661,-139,-504,-717,-542,183,61,-654,-41,325,165,368,310,424,290,260,174,214,364,338,153,145,84,-107,-50,-22,137,106,45,9,86,245,226,177,182,269,260,124,-22,-65,0,-90,-46,576,1191,236,-1227,-1356,-893,-506,-126,34,-52,-165,-109,68,141,139,171,109,-293,-203,-551,-573,-25,163,109,57,-2,-87,-136,-170,-129,-128,-222,-245,-139,-162,-808,-803,350,524,65,-602
2018-05-22,10:01:50.144,-324,-260,-1021,-143,1307,2235,1139,-346,-123,-294,667,1035,349,292,165,177,-5,-328,-131,235,236,-597,-1008,-529,147,741,1023,984,771,631,626,411,205,69,-42,-114,-55,-51,-228,-365,-336,-149,-30,-110,-146,-91,-115,-232,95,1242,1568,-383,-1437,-1151,-661,-289,-100,-130,-409,-393,-366,-764,-673,-235,32,24,-2,-24,-78,-18,-77,-166,-194,96,492,515,175,-25,-66,-336,-440,-1418,-672,1044,414,190,907,359,-623,228,792,64,600,1244,1266,571,-722,-1298,-844,-167,60,-40,-131,-270,-120,-35,43,177,174,182,201,242,306,361,342,362,366,340,197,66,48,44,-50,-39,-30,-62,-46,-97
2018-05-22,10:01:51.181,-125,-155,-194,-122,-206,-307,-435,-491,-654,-827,-839,658,877,-1263,-1778,-1178,-867,-619,-542,-508,-458,-338,-249,-265,-201,-149,-175,-324,-827,-228,254,-402,225,834,406,153,-319,-302,739,1360,1340,973,883,1046,659,334,150,-107,-83,-47,-116,-136,-308,-260,-137,466,1072,139,-1008,-953,-490,-73,106,135,203,275,196,132,64,24,54,73,112,44,63,83,115,106,136,193,230,276,196,80,-86,-268,-490,-671,-581,-587,-520,-278,-283,-465,-547,-555,-530,-377,-373,-352,387,1765,1089,-783,-920,-411,-187,-115,-217,-578,-730,-783,-173,227,432,-271,-732,603,1278,1095,743,698,856,435,486,479,341,184
2018-05-22,10:01:52.218,-61,-299,-283,-149,13,-118,-20,0,50,-36,-127,-183,-205,-176,-134,-156,76,805,1278,233,-1061,-1104,-709,-405,-21,96,46,3,-21,-8,32,51,107,154,264,325,393,408,366,264,113,-426,-494,-465,-141,16,-111,-287,-317,-230,-130,19,0,-43,-122,-203,-233,-242,-234,-312,-325,585,1829,1040,-358,-1262,-2253,-979,-228,-308,-66,135,1428,1457,742,458,281,310,434,292,205,352,363,200,-28,179,382,145,8,0,18,22,-17,75,174,158,137,118,17,-42,-115,-285,-351,-419,-424,-236,488,1229,156,-1335,-1453,-992,-617,-328,-176,-134,-83,-32,-3,-31,-158,-310,-555,-829,-825,-173,28,-128
2018-05-22,10:01:53.256,-298,-275,-207,-367,-297,-182,-303,-411,-536,-673,-888,-713,-435,-145,-65,118,85,-577,-974,-1539,-1102,-40,512,2252,2053,132,-740,-582,-428,-199,-166,-139,-156,-282,-259,-281,-129,223,23,-50,208,281,298,380,453,445,423,408,412,304,53,-33,-4,-33,38,127,95,-70,-132,-84,-166,-266,-297,-286,-292,-307,-317,50,1160,1545,-108,-1122,-1154,-1013,-531,-650,-744,-417,-81,-108,-214,-203,-99,-36,-5,86,161,143,105,222,113,-575,-662,411,884,1092,1024,856,-56,-372,121,415,1184,1699,1058,698,513,289,314,165,65,90,314,1094,723,-796,-1269,-841,-433,-101,89,85,188,218,253,324,353,376
2018-05-22,10:01:54.293,405,454,491,551,565,445,307,315,461,421,383,191,-28,-99,-97,-147,-148,-105,-96,-132,-139,-150,-205,-301,-369,-555,-974,-793,-1036,-411,1159,1018,-848,-1418,-1140,-869,-444,-151,-45,-30,-50,-80,-78,-46,-45,-64,-92,-225,-15,329,-44,234,-26,-316,501,1404,1321,766,246,191,416,451,624,133,-157,7,-4,-109,-279,-568,-439,-505,-430,-176,437,936,-79,-1153,-995,-544,-170,117,93,70,168,219,206,237,317,337,306,257,226,175,175,146,153,219,210,174,71,-9,-13,-24,-53,-157,-334,-670,-335,-582,-465,-243,-281,-382,-582,-487,-296,-421,-295,829,1767,482,-901,-727,-535,-302,-432,-540
2018-05-22,10:01:55.330,-130,-282,-1200,-1084,36,286,-49,478,514,581,448,325,218,343,372,394,628,712,355,131,-127,-113,-227,-330,-310,-526,-443,-184,-82,-116,-185,-166,-174,-201,-73,219,893,1046,-228,-1133,-914,-523,-196,99,210,167,113,71,50,40,50,68,82,138,189,217,210,194,223,277,255,177,9,-222,-328,-332,-497,-954,-609,-170,-98,-208,-293,-364,-428,-567,-492,-446,-526,-566,-26,1100,869,-607,-1016,-718,-357,-83,-159,-272,-100,-321,-593,-534,304,580,151,-571,0,1306,741,-620,335,1447,1621,1587,1007,364,64,85,24,175,276,-70,-262,-131,-478,-702,-543,-305,-40,-21,-91,-149,75,913,1274,-120
2018-05-22,10:01:56.368,-1235,-1008,-483,-34,125,113,217,349,254,100,57,121,100,97,187,251,277,306,305,293,309,301,197,43,-100,-253,-473,-992,-910,-633,-446,-348,-347,-478,-597,-597,-661,-606,-458,-490,-629,-350,700,986,-268,-1130,-1181,-1491,-935,187,207,268,227,374,838,308,-262,-4,1087,1750,1352,549,3,-4,239,365,373,558,444,272,-236,-951,-486,71,337,365,251,192,115,-32,-155,-176,-204,-250,-391,-399,137,1358,1176,-626,-1073,-687,-530,-340,-293,-316,-211,-107,-17,55,98,136,152,43,-262,-665,-211,-296,-293,116,342,235,78,-15,-46,-164,-164,-131,-44,-11,-160,-816,-1416,-850,-212,399,555,-111
2018-05-22,10:01:57.405,-1139,-441,1102,1903,713,-181,-236,302,718,484,488,263,163,213,255,-308,-332,53,345,534,437,-225,-123,215,250,353,302,249,163,67,9,-33,-65,-35,0,26,5,-64,4,129,-15,-242,-297,-312,-418,-629,-546,391,1635,509,-1201,-1156,-803,-675,-576,-659,-758,-695,-663,-824,-447,-239,-262,-336,-329,-281,-113,59,63,21,68,-113,-51,244,13,-40,315,206,-154,-180,-353,-764,-194,700,884,1210,1432,391,123,509,335,712,1752,1667,-14,-760,-25,899,140,-1438,-1003,-665,-257,55,149,200,241,240,332,391,434,447,380,382,475,589,565,428,176,-64,-138,-106,-127,-51,137,249,212,41
2018-05-22,10:01:58.442,-51,-120,-247,-300,-276,-305,-398,-622,-589,221,1016,22,-1457,-1625,-1080,-451,-343,-266,-205,-164,28,-9,-111,-68,-192,-77,-229,43,635,507,250,-120,-282,-438,-96,505,723,1012,855,412,244,309,181,307,160,46,72,33,-135,-278,-484,-631,-625,-149,792,436,-960,-1271,-829,-479,-42,275,278,314,443,519,441,391,322,251,235,297,304,263,261,222,186,201,189,94,-50,-107,-159,-116,-80,-87,-92,-149,-351,-651,-970,-636,-292,-345,-498,-496,-538,-445,397,1339,212,-1127,-1014,-675,-598,-272,-63,-362,-280,214,-126,-251,37,158,-266,-221,520,864,586,644,560,423,613,780,943,525,105,-121
