2018-05-22,10:30:02.745,83,68,57,66,71,50,37,40,40,26,8,16,5,-12,-25,-30,-29,-34,-49,-54,-47,-40,-53,-58,-58,-79,-73,-79,-80,-81,-90,-83,-90,-77,-75,-105,-114,-122,-120,-105,-116,-123,-137,-132,-118,-133,-121,-115,-122,-124,-137,-127,-139,-61,9,-5,0,-54,-117,-134,-118,-99,-100,-101,-118,-327,-647,34,2163,2457,267,-542,-689,-829,-737,-469,-396,-392,-364,-321,-283,-246,-236,-244,-227,-189,-175,-172,-187,-186,-162,-165,-172,-158,-127,-107,-89,-61,-70,-47,-11,-60,-148,-193,-228,-258,-311,-315,-310,-310,-328,-299,-280,-232,-205,-213,-252,-277,-269,-265,-252,-247,-228,-226,-222,-192,-122,-58
2018-05-22,10:30:03.783,-48,-62,-83,-96,-90,-106,-104,1,42,48,31,-52,-103,-76,-61,-55,-71,-60,-76,-193,-478,-71,1623,1836,-273,-725,-684,-592,-513,-162,7,31,94,133,149,162,189,159,185,203,206,235,259,341,405,421,476,528,516,517,494,483,381,250,85,-41,-153,-327,-351,-119,-53,-125,-157,-175,-148,-178,-121,13,1,-2,-22,-192,79,366,321,277,269,371,237,151,169,210,153,201,245,271,353,377,420,344,223,98,34,46,53,28,67,1,15,-177,-443,650,2573,1451,-219,-597,-597,-564,-443,-308,-254,-200,-150,-126,-83,-23,-35,-126,-139,-101,-80,-81,-67,-33,-27,-7,90,187
2018-05-22,10:30:04.820,194,159,159,107,-3,-161,-302,-436,-497,-527,-568,-583,-554,-531,-515,-516,-512,-486,-489,-456,-448,-418,-405,-383,-378,-371,-316,-287,-279,-284,-261,-257,-238,-221,-147,-94,-99,-88,-118,-198,-251,-245,-233,-197,-187,-191,-201,-414,-534,516,2204,955,-656,-717,-655,-554,-512,-341,-200,-133,-99,-54,-73,-60,49,60,-17,113,184,256,236,278,455,588,579,668,833,811,681,689,548,314,105,-44,-47,-76,-118,-110,-52,-67,-183,-236,-167,-221,-264,-24,0,-116,-102,-122,-153,-150,-194,-182,-5,-50,-89,-114,14,-32,-76,-23,-67,-80,-163,-124,11,93,37,-7,-41,-107,-169,-103,-48,0,-129,-120
2018-05-22,10:30:05.857,-232,-667,323,2708,1861,-352,-665,-595,-715,-813,-669,-481,-393,-453,-276,-52,-115,-292,-186,-120,-121,-148,-6,132,146,154,209,194,248,283,183,223,265,448,321,56,-14,-120,-366,-420,-213,0,-18,-103,-63,76,154,-70,-53,482,453,215,129,-93,-273,-351,-9,-65,-169,-13,4,-186,-215,-150,-128,-191,-125,-8,58,39,-114,-64,-93,-256,-122,102,222,115,-97,-385,-282,1057,2336,561,-624,-372,-557,-554,-270,-152,-31,103,-101,260,365,-49,-156,60,-62,-74,319,364,315,264,225,145,27,191,319,490,338,279,147,-9,-156,-344,-332,-232,-351,-540,-266,-176,-262,-316,-298,-248,-262,-277
2018-05-22,10:30:06.894,-38,69,39,50,43,32,19,-22,41,-27,-9,24,131,218,142,187,238,238,277,244,126,-35,14,296,259,128,80,54,-173,-262,713,1986,673,-550,-386,-232,-224,-78,81,114,119,148,143,130,100,108,176,179,203,148,183,213,165,171,180,193,193,185,129,111,59,-94,-157,-169,-325,-378,-400,-407,-414,-428,-528,-448,-350,-275,-245,-274,-229,-244,-237,-235,-276,-296,-377,-266,-30,-33,-110,-111,-84,-63,-44,-20,5,-15,6,47,2,-10,-67,-158,-203,-193,-144,-152,-148,-148,-176,-319,-565,-79,1512,1362,-234,-634,-664,-639,-581,-322,-191,-235,-128,-7,-10,-57,-66,-45,-28,9
2018-05-22,10:30:07.332,-16,-17,14,86,79,20,98,215,218,187,176,173,113,-26,-196,-229,-259,-334,-343,-311,-314,-306,-283,-270,-263,-256,-261,-248,-222,-206,-191,-174,-147,-135,-139,-135,-120,-90,-69,-94,-98,-92,-88,-90,-85,12,52,30,16,-41,-79,-97,-93,-79,-97,-101,-95,-109,-297,-290,565,1503,444,-519,-573,-535,-514,-375,-161,-76,-40,-10,36,61,55,68,68,85,107,113,128,141,165,197,209,250,308,312,286,254,213,125,14,-113,-200,-216,-240,-261,-212,-185,-177,-173,-161,-133,-131,-124,-84,-50,-32,-27,-8,18,37,49,55,54,81,121,120,123,142,154,173,182,260,311,300,301
2018-05-22,10:30:08.369,277,195,187,198,202,184,158,170,148,-53,-174,552,1913,1291,-134,-441,-439,-433,-215,50,78,81,118,126,119,175,223,223,205,254,339,375,375,373,382,399,409,402,431,453,392,327,275,174,33,-70,-147,-225,-203,-197,-206,-202,-206,-211,-185,-200,-222,-187,-162,-163,-195,-183,-142,-131,-173,-164,-141,-86,-70,-102,-113,-123,-132,-120,-121,-145,-70,-41,-76,-65,-117,-202,-218,-197,-207,-209,-207,-232,-268,-442,-567,135,1441,762,-554,-755,-731,-739,-553,-283,-225,-243,-175,-169,-165,-152,-146,-120,-97,-79,-70,-81,-39,-15,-2,-15,18,83,68,68,77,34,-20,-101,-226,-333,-395,-422
2018-05-22,10:30:09.406,-429,-420,-351,-323,-320,-323,-314,-311,-286,-268,-236,-214,-197,-161,-124,-114,-103,-82,-67,-69,-47,-18,5,15,-14,-17,-31,-5,-5,-32,41,124,95,77,35,-21,-29,-27,-35,-52,-65,-54,-80,-199,-390,72,1549,1448,-149,-572,-571,-542,-405,-117,-46,-10,30,44,66,86,100,113,127,149,166,195,213,236,270,314,336,357,402,435,452,437,384,277,175,97,37,-5,-2,21,48,58,55,64,81,106,142,157,159,159,162,191,215,225,228,229,222,240,261,244,240,245,226,213,191,190,186,158,189,249,217,189,151,49,-5,-14,-36,-44,-66,-83,-113,-248,-557,-259
2018-05-22,10:30:10.443,1302,1552,-171,-777,-825,-829,-740,-457,-393,-403,-400,-378,-362,-369,-390,-398,-392,-403,-416,-425,-424,-426,-421,-420,-423,-403,-388,-404,-418,-435,-455,-544,-676,-767,-819,-862,-864,-849,-854,-855,-836,-816,-818,-809,-786,-766,-733,-702,-670,-650,-635,-624,-597,-566,-558,-564,-545,-513,-521,-495,-487,-479,-459,-458,-444,-452,-432,-352,-300,-301,-273,-273,-338,-365,-346,-336,-285,-252,-217,-196,-318,-491,13,1371,1004,-461,-644,-560,-489,-374,-84,52,97,129,186,229,249,284,329,357,383,412,443,476,505,534,567,619,664,684,702,705,700,648,531,425,343,279,261,249,256,268,268,265,284,315,329,325
2018-05-22,10:30:11.481,346,364,391,406,433,451,455,453,462,468,463,463,488,473,462,455,444,440,426,410,472,498,478,481,431,339,304,296,279,268,257,234,201,-10,-100,738,2022,1113,-221,-402,-358,-354,-149,87,129,122,129,136,145,171,172,164,186,197,207,222,218,236,252,260,280,283,270,274,257,217,148,43,-63,-158,-216,-251,-263,-260,-254,-241,-221,-208,-202,-199,-202,-180,-160,-145,-146,-145,-132,-112,-93,-88,-82,-77,-74,-58,-37,-33,-34,-40,-39,18,124,131,106,89,15,-25,-27,-14,1,-2,-7,-1,-71,-347,-222,1072,1907,420,-471,-546,-513,-478,-178,-66,-61,-33,-13,-3
2018-05-22,10:30:12.518,35,31,58,67,78,86,94,113,115,115,130,146,175,196,196,198,203,169,83,-12,-100,-161,-199,-203,-194,-188,-170,-167,-166,-155,-161,-132,-127,-105,-100,-98,-87,-59,-43,-28,-13,-7,-2,-3,23,53,48,31,39,36,15,76,155,141,150,116,36,6,24,34,17,19,16,-3,-194,-494,130,1944,1860,98,-468,-587,-640,-454,-146,-89,-96,-68,-28,-3,4,22,36,33,56,68,73,75,82,98,118,153,168,174,171,156,153,97,7,-110,-202,-249,-276,-288,-271,-285,-273,-249,-260,-252,-244,-235,-228,-208,-196,-172,-154,-154,-144,-137,-145,-128,-115,-118,-113,-112,-107,-93
2018-05-22,10:30:13.555,-91,-97,-30,47,36,20,0,-78,-121,-96,-86,-93,-94,-93,-109,-254,-509,-22,1487,1372,-239,-637,-662,-623,-514,-238,-153,-125,-112,-71,-48,-36,-30,-11,-7,-3,13,29,20,31,51,74,112,138,142,143,157,140,81,-27,-148,-225,-282,-315,-327,-314,-294,-292,-295,-285,-268,-252,-238,-221,-182,-171,-162,-124,-110,-100,-84,-76,-51,-54,-44,-60,-46,-33,-41,26,99,71,66,26,-37,-46,-43,-42,-47,-38,-46,-69,-204,-351,268,1604,1007,-411,-570,-550,-508,-386,-109,-29,-16,3,5,31,57,66,62,91,106,104,111,113,157,178,197,221,240,232,229,241,218,141,21,-97
2018-05-22,10:30:14.592,-188,-234,-261,-268,-258,-241,-236,-240,-227,-232,-216,-189,-176,-166,-165,-146,-129,-117,-107,-88,-70,-51,-44,-53,-44,-49,-45,-43,-27,76,136,105,106,75,-7,-21,-14,-36,-51,-54,-45,-54,-220,-427,211,1714,1254,-296,-579,-571,-555,-396,-148,-86,-72,-49,-29,-14,11,10,-1,20,42,40,46,63,75,93,131,173,186,193,206,190,152,89,2,-105,-179,-209,-244,-269,-258,-240,-234,-245,-239,-216,-212,-203,-184,-144,-135,-116,-99,-89,-82,-76,-51,-53,-39,-40,-35,-35,-28,-18,-20,-9,67,107,106,102,53,-28,-45,-34,-24,-21,-34,-27,-71,-286,-383,564,2011,964,-329,-568
2018-05-22,10:30:15.630,-549,-550,-275,-109,-96,-64,-38,-23,11,19,32,49,62,83,100,113,121,138,165,186,214,231,247,256,251,217,144,28,-65,-125,-166,-174,-171,-140,-118,-103,-81,-78,-71,-54,-46,-30,-6,8,24,48,73,88,92,108,108,101,109,104,115,132,136,142,132,135,235,278,249,240,183,113,110,114,119,108,100,101,66,-165,-311,604,2169,1163,-202,-466,-454,-481,-234,-61,-27,-17,-7,7,22,25,28,27,21,38,45,42,51,79,77,84,106,115,119,106,82,26,-53,-154,-271,-347,-394,-418,-419,-420,-436,-427,-402,-406,-402,-388,-365,-349,-321,-304,-294,-290,-277,-259
2018-05-22,10:30:16.667,-258,-258,-243,-236,-229,-237,-244,-226,-224,-228,-223,-229,-229,-240,-214,-134,-134,-143,-156,-220,-248,-234,-244,-245,-232,-224,-223,-290,-544,-324,1026,1558,-2,-651,-700,-655,-609,-354,-230,-211,-167,-144,-135,-103,-85,-76,-56,-51,-20,-5,-1,0,20,48,68,110,139,151,145,134,85,-17,-121,-212,-283,-322,-330,-311,-292,-274,-264,-251,-234,-225,-213,-178,-150,-118,-112,-101,-82,-59,-43,-30,-21,-16,-3,1,0,3,-13,-15,-11,4,-2,-7,0,12,84,113,82,89,63,1,-14,-14,-11,7,13,22,-13,-180,-315,387,1781,1112,-288,-474,-458,-427,-263,-25,46,67,101,158,182,190
2018-05-22,10:30:17.704,200,239,259,282,312,321,353,383,401,450,499,524,530,526,529,518,455,340,210,138,92,73,63,78,85,81,102,119,144,136,127,142,149,161,172,182,189,191,199,199,194,178,164,146,136,125,107,97,88,72,48,54,33,11,-10,-25,-41,-63,-18,13,-32,-55,-73,-168,-231,-232,-240,-248,-257,-284,-313,-491,-693,-44,1584,1180,-501,-851,-840,-871,-706,-467,-425,-422,-411,-384,-361,-378,-363,-349,-335,-325,-315,-293,-281,-270,-263,-253,-209,-170,-134,-140,-144,-152,-209,-291,-395,-465,-513,-539,-551,-536,-504,-500,-499,-485,-475,-466,-438,-408,-388,-366,-329,-312,-291,-272,-253,-236
2018-05-22,10:30:18.741,-212,-212,-199,-173,-147,-123,-129,-127,-90,-58,-52,-58,-57,-42,-29,-25,-14,-5,-3,-7,15,34,19,3,0,0,-2,64,150,127,132,103,34,24,49,34,44,53,57,37,-144,-271,519,2037,1449,-89,-423,-423,-456,-256,-47,-19,2,45,75,82,72,86,107,133,163,195,202,215,214,220,252,270,282,298,327,344,335,295,226,111,38,-29,-95,-102,-95,-94,-89,-82,-86,-83,-92,-100,-96,-76,-51,9,67,81,87,84,86,74,59,52,61,49,49,52,43,37,33,40,46,35,33,50,47,50,46,62,64,47,55,58,60,41,99,186,174,151,129,73
2018-05-22,10:30:19.779,59,57,72,77,68,54,29,-165,-234,644,1836,821,-338,-441,-437,-440,-278,-45,6,11,23,55,72,76,80,84,89,120,130,133,133,142,169,197,227,254,270,278,271,243,192,82,-50,-145,-205,-234,-258,-240,-226,-216,-193,-191,-185,-177,-163,-148,-133,-107,-81,-78,-66,-40,-29,-20,-1,6,8,6,-1,1,12,23,29,25,19,28,38,50,58,54,49,58,60,62,73,68,44,51,49,36,94,155,126,111,84,15,-2,4,9,11,2,-5,-37,-241,-381,445,1916,1071,-307,-546,-547,-567,-362,-144,-99,-66,-32,-9,14,10,30,31,46,63,68,69,78,94
2018-05-22,10:30:20.816,112,120,152,173,184,216,217,211,163,78,-35,-129,-199,-229,-242,-253,-239,-216,-219,-225,-233,-224,-218,-207,-183,-166,-153,-129,-121,-115,-109,-79,-65,-62,-48,-35,-31,-34,-41,-43,-41,-51,-56,-55,-28,-36,-42,-48,-41,-16,-21,29,89,82,63,30,-38,-60,-53,-54,-56,-47,-51,-66,-254,-447,240,1763,1336,-151,-569,-586,-610,-369,-141,-112,-99,-76,-62,-45,-28,-12,-5,13,16,7,23,50,71,86,115,145,160,175,184,188,173,127,57,-35,-123,-181,-206,-223,-221,-210,-208,-207,-211,-205,-193,-186,-174,-155,-154,-144,-126,-113,-103,-92,-75,-70,-68,-67,-69,-56,-45,-37
2018-05-22,10:30:21.853,-33,-29,-21,-26,-19,-20,-9,4,0,-3,94,127,104,105,48,-24,-50,-55,-48,-36,-39,-50,-82,-275,-463,306,1887,1107,-316,-608,-578,-588,-358,-136,-123,-115,-92,-68,-57,-42,-28,-16,0,3,12,29,37,45,59,95,125,150,154,142,156,140,96,7,-101,-197,-255,-287,-294,-283,-284,-260,-251,-249,-226,-216,-211,-198,-178,-179,-156,-157,-135,-116,-104,-95,-95,-87,-85,-83,-68,-67,-65,-68,-74,-69,-64,-58,-57,14,52,38,46,20,-55,-82,-81,-83,-88,-78,-60,-69,-211,-365,220,1455,773,-491,-575,-532,-488,-380,-129,-42,-34,-3,11,38,50,62,98,109,124,136
2018-05-22,10:30:22.890,142,157,162,189,221,249,278,293,299,298,269,198,83,-34,-147,-220,-242,-254,-254,-236,-223,-214,-206,-193,-191,-163,-161,-141,-117,-107,-92,-72,-73,-55,-45,-32,-18,-11,-2,9,17,14,23,26,18,30,63,147,153,135,135,73,5,-2,22,17,4,32,22,-60,-301,-116,1132,1703,201,-471,-476,-433,-389,-134,19,36,69,101,113,139,148,152,181,199,200,229,243,255,267,277,312,366,396,405,419,409,378,295,167,68,-10,-59,-75,-70,-46,-33,-12,-3,11,13,29,43,55,70,96,109,141,146,153,174,177,174,188,208,204,186,175,186,188,199,202,172
2018-05-22,10:30:23.928,189,280,283,247,253,175,115,100,87,66,51,39,14,-93,-374,-220,980,1695,241,-609,-703,-634,-595,-304,-199,-218,-204,-208,-198,-205,-187,-201,-192,-173,-176,-167,-176,-184,-179,-178,-165,-150,-136,-131,-147,-163,-222,-314,-433,-547,-618,-694,-716,-720,-709,-702,-700,-697,-692,-686,-675,-638,-610,-584,-554,-522,-498,-484,-465,-447,-414,-398,-380,-369,-348,-352,-351,-344,-326,-327,-299,-290,-263,-245,-238,-250,-214,-122,-104,-118,-124,-179,-233,-233,-220,-221,-208,-186,-183,-250,-495,-356,985,1832,195,-646,-693,-630,-566,-255,-123,-113,-87,-57,-35,-1,9,29,39,46,42,56,59,75,109,150,160,172
2018-05-22,10:30:24.965,209,245,260,260,254,189,78,-23,-94,-152,-197,-201,-179,-177,-159,-149,-159,-144,-138,-118,-108,-111,-98,-74,-66,-47,-36,-37,-8,-1,-2,21,23,28,34,15,4,9,4,-1,13,46,38,49,50,57,38,22,13,54,122,106,107,101,29,0,2,6,7,0,3,0,-79,-292,-82,1173,1696,128,-556,-527,-459,-421,-177,-29,-1,20,43,62,91,92,106,111,134,156,158,159,184,196,213,249,282,291,300,290,287,264,183,70,-44,-136,-179,-198,-194,-180,-169,-165,-177,-163,-142,-122,-108,-94,-80,-50,-32,-17,5,20,11,34,67,68,73,96,108,111,117,123
2018-05-22,10:30:26.002,127,123,142,143,149,142,138,125,125,126,109,103,107,111,172,221,204,206,166,78,60,74,81,79,71,76,62,-115,-269,440,1951,1232,-276,-475,-436,-408,-239,25,94,109,143,175,206,224,233,250,271,283,304,324,335,350,370,387,420,443,457,451,451,437,399,324,205,85,29,-4,-48,-50,-23,-14,-24,-29,-23,-23,-28,-16,-4,-3,4,3,21,18,24,38,23,27,29,25,18,20,24,11,0,-11,-20,-25,-41,-44,-62,-62,-79,-99,-107,-104,-127,-131,-59,-37,-78,-101,-136,-202,-231,-249,-243,-241,-254,-257,-306,-529,-568,403,1737,583,-751,-868,-793,-815
2018-05-22,10:30:27.039,-558,-352,-331,-317,-280,-251,-233,-220,-208,-187,-165,-167,-148,-123,-113,-101,-78,-50,-32,-15,4,26,24,-10,-56,-154,-263,-336,-394,-434,-440,-441,-429,-402,-400,-389,-379,-366,-349,-345,-314,-283,-259,-233,-214,-204,-201,-180,-170,-169,-174,-158,-153,-137,-123,-119,-112,-117,-98,-92,-90,-83,-77,-71,-56,-61,-68,-46,-28,-21,-1,-14,0,81,102,83,69,23,-16,-14,0,6,17,20,12,-37,-251,-188,904,1835,500,-472,-484,-439,-435,-226,-24,14,28,49,65,78,78,94,101,103,127,132,130,145,155,170,200,234,259,291,297,282,253,187,82,-43,-140,-194,-242,-252,-250,-251
2018-05-22,10:30:28.077,-216,-204,-194,-196,-186,-154,-150,-135,-117,-101,-79,-69,-71,-40,-21,-19,-21,-5,7,13,21,31,41,42,39,46,63,50,42,61,57,62,71,61,48,52,62,58,74,152,182,155,137,93,29,3,-1,-9,-10,-16,-26,-41,-198,-361,350,1848,1180,-345,-571,-535,-526,-370,-110,-49,-34,-6,21,32,49,57,70,65,76,97,101,113,147,168,178,220,229,253,285,279,261,222,140,17,-96,-168,-214,-224,-221,-221,-213,-198,-188,-177,-167,-166,-156,-143,-110,-100,-88,-74,-55,-50,-35,-10,-2,10,15,17,18,25,31,30,28,32,22,28,33,22,26,45,45,38
2018-05-22,10:30:29.114,36,26,37,20,23,109,143,124,104,52,-5,-8,-9,-12,-10,-7,-17,-50,-246,-362,493,1933,1026,-451,-608,-538,-549,-328,-79,-53,-30,-5,25,46,56,71,74,91,106,122,131,124,147,171,195,213,239,262,280,284,291,230,143,20,-68,-141,-187,-199,-203,-200,-204,-191,-176,-179,-177,-169,-170,-148,-131,-114,-89,-55,-44,-67,-48,-38,-47,-25,-43,-40,-24,-21,-14,-21,-14,-5,-7,-9,-16,-25,-43,-37,-47,-46,-40,-42,-51,-45,-49,0,79,54,44,50,-8,-52,-56,-49,-40,-34,-26,-41,-123,-336,-120,1102,1605,83,-606,-590,-529,-509,-249,-82,-80,-54,-25,1
2018-05-22,10:30:30.151,-6,-11,5,22,41,56,71,97,120,127,148,169,208,248,254,251,245,212,150,45,-87,-196,-260,-281,-306,-306,-269,-256,-243,-235,-228,-217,-218,-211,-204,-183,-162,-138,-136,-119,-84,-79,-73,-55,-70,-71,-52,-51,-59,-42,-26,-32,-12,-9,0,19,27,29,31,17,26,38,41,30,71,145,119,96,94,37,13,16,9,20,18,24,17,-61,-317,-93,1277,1822,171,-524,-551,-505,-471,-195,-48,-28,-20,5,16,32,46,56,63,65,67,74,100,103,114,131,177,199,214,222,214,206,178,115,26,-93,-180,-236,-293,-305,-299,-280,-271,-268,-260,-244,-241,-246,-240,-224
2018-05-22,10:30:31.189,-219,-209,-200,-193,-174,-169,-156,-139,-130,-137,-141,-116,-100,-107,-114,-94,-82,-88,-93,-98,-115,-105,-105,-99,-87,-85,-75,-92,-86,-84,-101,-70,2,9,-5,-22,-74,-115,-113,-116,-103,-96,-104,-115,-177,-409,-283,923,1849,333,-606,-683,-616,-589,-285,-121,-120,-92,-53,-43,-15,3,2,17,27,41,46,63,82,85,102,142,167,178,188,211,216,210,190,90,-18,-111,-177,-218,-220,-212,-202,-183,-163,-161,-169,-157,-142,-129,-93,-94,-88,-70,-58,-50,-50,-43,-39,-35,-31,-36,-19,-18,-13,-9,-16,-22,-20,-9,0,-1,2,22,21,19,3,-7,-9,-24,-31,-29,-35,-55
2018-05-22,10:30:32.226,-43,-40,-37,-49,6,62,42,13,-25,-87,-99,-89,-99,-121,-110,-106,-131,-288,-442,131,1533,1156,-421,-641,-599,-606,-507,-199,-114,-129,-107,-82,-70,-60,-31,-30,-26,-22,-10,-2,10,21,31,60,92,107,127,158,165,168,137,72,-31,-144,-252,-296,-322,-333,-327,-306,-284,-278,-268,-249,-244,-227,-207,-190,-169,-155,-134,-121,-104,-100,-86,-69,-65,-63,-55,-38,-42,-34,-32,-32,-27,-26,-21,-27,-22,-19,-35,-41,-39,-34,-37,-30,-46,-55,-67,-96,-55,-23,-54,-38,-42,-38,-25,58,82,32,47,14,-58,-93,-110,-59,-31,-38,-56,-89,-307,-285,822,2089,716,-514,-620,-587
2018-05-22,10:30:33.263,-615,-332,-135,-147,-100,-15,4,20,36,-17,-31,43,102,59,33,90,107,-89,68,359,351,292,266,253,225,175,82,-3,-72,-175,-229,-239,-212,-205,-200,-188,-151,-114,-86,-68,-35,-36,-35,-58,-60,25,127,193,235,252,242,334,295,287,228,249,323,314,220,172,244,312,299,320,393,382,385,411,326,332,231,289,474,430,261,357,361,198,146,270,263,212,168,178,109,-127,-76,1309,2444,641,-655,-748,-833,-677,-229,118,60,178,154,93,85,467,483,375,331,325,328,217,305,334,236,189,194,325,318,226,221,199,98,-81,-258,-422,-532,-569,-574,-560,-529,-520
2018-05-22,10:30:34.300,-549,-563,-545,-554,-588,-550,-504,-535,-557,-539,-524,-511,-500,-476,-464,-473,-475,-482,-516,-544,-541,-516,-496,-447,-405,-360,-319,-280,-253,-217,-198,-142,-28,12,32,35,12,-16,-11,-17,-19,-27,-36,-49,-106,-303,-121,1192,2070,-39,-1004,-840,-771,-735,-407,-152,-140,-161,-169,-186,-215,-253,-285,-315,-328,-277,-229,-190,-163,-111,-67,-14,38,68,76,70,27,-15,-114,-262,-426,-526,-578,-574,-517,-446,-389,-347,-289,-269,-297,-293,-241,-193,-154,-122,-98,-65,-38,-8,28,69,88,106,116,110,104,111,117,128,140,152,231,314,286,260,210,94,37,28,60,107,184,226,175,26,-214,126
2018-05-22,10:30:35.338,1549,1630,-77,-359,-310,-321,-271,-29,107,114,122,132,149,157,172,183,190,181,171,168,173,174,176,190,199,209,226,235,226,225,201,134,48,-52,-139,-197,-202,-218,-228,-209,-190,-178,-165,-157,-153,-153,-135,-90,-43,-13,-2,13,25,7,28,48,92,125,139,168,163,172,185,184,208,276,266,229,206,129,55,24,17,-16,-61,-86,-145,-249,-574,-481,851,2185,721,-497,-569,-487,-370,-63,-14,-126,-195,-205,-204,-162,-117,-93,-59,-2,40,39,53,63,80,93,108,140,151,158,152,159,173,157,101,36,-35,-72,-99,-115,-94,-80,-55,-37,-56,-41,-28,-27,-36,-47
2018-05-22,10:30:36.375,-37,-20,3,33,50,65,70,102,152,245,267,169,121,94,64,42,14,74,95,44,13,-46,-126,-150,-140,-142,-176,-190,-185,-208,-500,-680,335,2238,1618,-74,-373,-424,-519,-407,-156,-77,-54,-5,33,56,77,72,107,151,134,144,156,153,142,136,155,151,162,188,193,212,220,214,175,126,55,-6,-35,-49,-54,-27,-6,-17,-15,4,-4,-18,-35,-40,-35,-41,-51,-37,-10,-7,-18,14,45,47,37,41,34,28,14,3,27,20,-62,-141,-227,-329,-341,-340,-310,-285,-295,-334,-383,-671,-1030,-290,1692,1778,80,-437,-642,-782,-792,-607,-512,-493,-464,-429,-387,-340,-297,-269
2018-05-22,10:30:37.412,-227,-179,-140,-123,-109,-106,-90,-81,-53,-30,18,70,117,140,145,97,7,-82,-127,-166,-199,-202,-209,-199,-200,-169,-122,-93,-75,-63,-26,-2,12,20,25,18,-4,3,30,68,96,141,219,297,294,198,186,224,196,182,135,52,47,60,83,81,51,23,-36,-343,-717,14,2171,2504,637,-95,-374,-543,-554,-343,-228,-157,-94,-49,-3,39,58,67,103,147,156,162,163,172,162,150,144,169,192,203,208,220,218,187,136,73,30,-2,-8,-22,-44,-30,-28,-39,-45,-49,-65,-87,-74,-74,-75,-65,-52,-31,-21,-44,-44,-52,-44,-31,-30,-25,-50,-38,43,64,43,41
2018-05-22,10:30:38.449,-25,-82,-83,-71,-65,-50,-46,-72,-177,-643,-675,704,2619,1754,317,-197,-520,-733,-560,-466,-486,-479,-451,-439,-420,-376,-326,-292,-246,-155,-101,-93,-104,-89,-55,-68,-89,-95,-95,-84,-61,-55,-57,-85,-125,-166,-207,-246,-277,-301,-324,-321,-264,-246,-231,-202,-204,-219,-227,-217,-221,-205,-176,-164,-155,-142,-125,-114,-84,-74,-60,-47,-47,32,91,73,104,98,16,-6,20,19,27,34,33,-15,-265,-581,112,2011,2101,378,-232,-405,-535,-363,-130,-115,-83,-51,-22,-14,-7,-2,9,36,135,229,238,253,256,225,224,215,202,190,173,189,209,193,140,78,1,-79,-119,-151,-169,-187
2018-05-22,10:30:39.487,-186,-165,-171,-172,-177,-161,-143,-110,-83,-82,-67,-58,-43,-34,-37,-26,13,11,16,12,37,106,133,75,77,38,-123,-166,-151,-128,-112,-115,-95,-134,-462,-682,243,2069,1775,294,-220,-454,-596,-491,-277,-226,-228,-178,-163,-372,-469,-361,-205,-139,-99,-59,-39,-12,25,52,83,131,149,212,215,221,248,262,251,193,122,115,68,23,30,35,23,3,1,-5,-14,-2,-17,-48,-34,-9,3,30,55,62,51,50,68,72,55,45,52,105,127,64,33,-52,-200,-238,-252,-264,-277,-281,-283,-331,-618,-766,207,2023,1347,-336,-657,-764,-870,-699,-417,-363,-348,-328,-293,-248,-232,-215
2018-05-22,10:30:40.524,-197,-170,-161,-148,-129,-155,-165,-135,-116,-116,-113,-109,-114,-100,-100,-120,-187,-259,-311,-340,-366,-375,-344,-315,-294,-262,-260,-261,-260,-224,-205,-184,-147,-137,-142,-128,-118,-87,-78,-50,-19,0,25,36,66,166,166,149,161,92,37,58,86,91,92,79,77,-74,-409,55,1877,2351,411,-307,-417,-544,-543,-286,-175,-159,-114,-71,-35,-6,17,25,44,71,103,115,120,128,145,156,176,168,174,183,199,212,190,153,76,12,-47,-96,-116,-115,-116,-109,-123,-144,-149,-159,-152,-143,-141,-135,-124,-101,-83,-72,-64,-66,-45,-24,-14,9,16,-2,77,165,155,138,104,1,-20,2
2018-05-22,10:30:41.561,1,-3,0,-20,-82,-437,-571,615,2511,1588,-38,-458,-617,-744,-527,-315,-279,-248,-208,-170,-137,-119,-110,-100,-78,-80,-91,-66,-57,-73,-86,-111,-113,-110,-110,-109,-83,-42,-24,-48,-102,-175,-207,-222,-228,-209,-204,-182,-174,-164,-155,-138,-115,-88,-64,-47,-20,-2,5,11,23,21,23,41,56,61,48,127,196,174,173,121,29,30,51,47,24,31,29,-50,-435,-267,1235,2428,799,-316,-488,-565,-584,-334,-195,-178,-146,-116,-88,-62,-22,0,35,63,97,126,140,148,157,175,206,221,245,250,244,242,193,127,26,-75,-158,-215,-233,-235,-226,-227,-220,-210,-198,-187,-179,-175
2018-05-22,10:30:42.598,-132,-134,-108,-85,-70,-36,-26,-15,-18,-26,-29,-25,-32,-46,-45,37,65,27,24,-33,-112,-112,-76,-58,-66,-48,-34,-163,-599,-205,1690,2610,725,-258,-505,-655,-651,-399,-305,-275,-235,-211,-174,-152,-124,-100,-81,-46,-23,4,22,23,35,47,65,66,94,122,130,141,117,59,-14,-97,-141,-180,-209,-209,-215,-199,-216,-220,-205,-212,-181,-171,-139,-132,-127,-97,-100,-75,-75,-67,-51,-42,-16,-3,-1,-2,-1,22,110,131,119,114,54,-13,-5,6,8,15,27,19,-157,-573,-20,1990,2631,788,-117,-368,-553,-506,-284,-217,-191,-154,-137,-133,-116,-99,-90,-60,-47,-53,-37,-27
2018-05-22,10:30:43.636,-8,-11,10,38,50,77,98,113,131,123,85,19,-38,-87,-108,-115,-107,-110,-119,-128,-132,-138,-139,-136,-141,-137,-110,-96,-81,-71,-41,-35,-22,-19,-24,-4,13,7,14,19,29,49,126,119,95,102,18,-33,-18,-13,-25,-36,-39,-80,-365,-559,338,2252,1787,128,-316,-477,-619,-533,-348,-298,-294,-255,-227,-204,-166,-164,-127,-106,-87,-56,-51,-35,-29,-10,20,50,84,91,119,156,162,143,73,6,-67,-111,-132,-158,-149,-144,-132,-130,-142,-143,-144,-132,-121,-116,-100,-83,-65,-58,-58,-46,-49,-31,-18,-31,-28,-37,-32,-41,-55,-37,38,71,47,60,44,-46,-44,-36
2018-05-22,10:30:44.673,-35,-26,-24,-16,-196,-643,-166,1845,2825,1016,5,-291,-537,-520,-311,-246,-223,-196,-147,-122,-82,-50,-33,-14,-1,18,27,28,57,70,103,133,161,200,200,227,236,214,162,57,-11,-57,-85,-82,-76,-69,-63,-58,-59,-81,-64,-58,-59,-47,-46,-33,-32,-16,7,3,16,19,13,-5,-7,8,-15,-17,-21,-33,-33,-37,48,65,34,57,-8,-95,-110,-109,-123,-161,-157,-165,-309,-761,-516,1313,2766,1174,-135,-583,-816,-848,-641,-570,-581,-539,-523,-501,-477,-471,-422,-391,-375,-352,-344,-335,-334,-319,-292,-262,-201,-170,-126,-118,-111,-99,-144,-201,-264,-303,-314,-343,-327,-313,-310,-303
2018-05-22,10:30:45.710,-324,-307,-313,-284,-261,-267,-240,-249,-243,-214,-200,-164,-149,-145,-130,-125,-115,-121,-114,-103,-106,-89,-99,-89,-96,-90,13,14,-3,12,-50,-107,-105,-74,-79,-77,-55,-82,-258,-618,-89,1771,2342,598,-185,-408,-596,-597,-379,-317,-316,-272,-251,-214,-183,-151,-144,-127,-90,-85,-71,-48,-53,-39,-20,6,34,37,64,79,103,106,50,-29,-102,-129,-175,-203,-193,-198,-161,-152,-155,-156,-149,-134,-135,-118,-94,-83,-63,-66,-40,-8,-7,9,11,34,58,54,58,53,49,53,47,68,54,66,142,163,148,152,117,31,10,34,16,20,17,9,-107,-544,-311,1365,2813,1213,19,-312
2018-05-22,10:30:46.747,-569,-559,-343,-292,-261,-223,-179,-149,-150,-122,-107,-74,-41,-41,-35,-28,-23,-8,12,52,80,104,126,150,185,191,186,122,54,29,16,21,24,43,58,58,72,60,63,80,79,94,103,109,118,129,156,162,179,193,188,203,210,219,232,203,201,206,218,212,208,213,242,327,311,295,312,228,161,166,156,151,145,136,118,-123,-607,16,2274,3077,1127,32,-353,-554,-410,-309,-287,-269,-229,-204,-183,-156,-133,-107,-99,-101,-98,-93,-84,-94,-93,-89,-92,-80,-93,-70,-52,-34,0,-26,-66,-104,-144,-180,-212,-196,-197,-212,-216,-232,-241,-245,-237,-225,-228,-211,-213,-195
2018-05-22,10:30:47.785,-165,-151,-139,-136,-125,-132,-140,-122,-126,-110,-122,-126,-118,-134,-124,-121,-142,-127,-120,-71,-5,-17,-1,-20,-88,-134,-125,-113,-133,-120,-125,-147,-407,-601,344,2178,1723,142,-313,-475,-651,-525,-367,-336,-289,-271,-251,-202,-193,-189,-169,-154,-133,-120,-97,-114,-98,-95,-90,-67,-47,-17,23,40,74,79,50,-18,-82,-116,-144,-139,-161,-176,-166,-173,-154,-159,-169,-158,-165,-127,-115,-95,-55,-39,-19,-8,15,22,21,51,45,54,63,60,68,60,60,51,64,147,150,137,161,81,4,-8,9,2,-23,-31,-52,-195,-611,-304,1414,2496,932,-113,-428,-628,-614,-425,-397,-378,-330,-319
2018-05-22,10:30:48.822,-278,-252,-210,-192,-179,-145,-141,-128,-113,-115,-90,-94,-74,-60,-52,-29,-38,-9,25,32,-16,-65,-74,-89,-90,-75,-85,-86,-87,-76,-64,-73,-60,-45,-33,-28,-35,-7,-7,10,36,46,66,57,55,52,47,66,56,64,79,71,85,95,91,92,173,180,167,173,91,29,52,54,52,43,47,47,-199,-565,50,2059,2588,746,-60,-342,-566,-416,-284,-238,-225,-181,-159,-142,-103,-90,-61,-50,-62,-33,-27,-21,-25,-36,-19,-17,13,8,31,63,79,118,104,66,34,-3,-12,-35,-37,-44,-61,-58,-73,-63,-40,-41,-31,-37,-22,-5,-12,18,17,22,30,26,31,16
2018-05-22,10:30:49.859,37,19,23,42,17,20,14,15,79,122,84,76,66,-3,-44,-32,-34,-43,-44,-54,-75,-386,-521,533,2323,1493,33,-274,-421,-587,-433,-300,-278,-254,-226,-195,-164,-129,-105,-98,-82,-78,-65,-56,-49,-49,-56,-33,-29,-20,13,14,57,88,82,50,-7,-44,-97,-137,-145,-141,-125,-129,-136,-139,-149,-122,-96,-81,-77,-56,-26,-26,-17,-6,4,26,6,-3,-7,0,8,-12,-10,-1,-4,5,54,132,118,108,89,-12,-51,-41,-37,-32,-46,-58,-143,-588,-618,799,2770,1674,182,-346,-608,-590,-398,-361,-344,-305,-260,-236,-209,-199,-177,-134,-119,-108,-100,-91,-79,-93,-93,-94
2018-05-22,10:30:50.896,-86,-57,-64,-44,-19,17,47,21,-4,-30,-32,-17,-24,-22,-23,-17,-22,-33,-41,-49,-28,-19,-27,-16,-25,-11,3,2,10,-4,14,16,15,17,0,17,1,-11,7,14,85,82,66,85,0,-46,-37,-12,-12,-24,1,-30,-317,-584,273,2236,1909,309,-219,-435,-582,-435,-290,-272,-267,-220,-202,-188,-159,-138,-102,-105,-93,-87,-98,-98,-118,-99,-99,-104,-84,-85,-39,1,35,53,20,-1,-36,-77,-102,-121,-122,-124,-133,-128,-137,-110,-114,-105,-90,-78,-57,-70,-57,-26,-32,-24,-22,-5,0,-18,-13,-17,-17,-15,-10,2,32,103,88,66,71,-5,-48,-42,-29,-29
2018-05-22,10:30:51.934,-42,-42,-92,-407,-487,581,2233,1379,50,-285,-463,-591,-436,-302,-269,-234,-200,-196,-192,-168,-147,-118,-123,-93,-74,-78,-88,-100,-88,-90,-80,-57,-45,-11,16,36,72,44,0,-54,-93,-106,-124,-117,-118,-108,-108,-116,-98,-97,-102,-97,-98,-84,-84,-70,-58,-54,-38,-28,-22,-19,-21,-10,-10,0,-1,8,109,119,100,119,54,-8,1,7,5,7,16,-18,-255,-629,90,2167,2503,758,-151,-461,-615,-440,-328,-327,-300,-257,-232,-212,-195,-163,-150,-127,-93,-79,-61,-53,-68,-74,-89,-87,-69,-53,-18,8,46,84,77,58,25,19,7,6,2,-24,-13,-4,-17,8,3,-16
2018-05-22,10:30:52.971,4,19,18,27,48,36,39,50,59,80,89,84,82,84,97,80,84,129,204,197,181,179,100,55,93,90,90,75,67,19,-363,-468,709,2531,1773,294,-204,-429,-530,-337,-260,-251,-240,-207,-187,-173,-145,-130,-113,-98,-86,-74,-86,-91,-102,-101,-69,-73,-58,-45,-26,1,8,24,7,-32,-57,-85,-101,-125,-123,-121,-146,-141,-142,-144,-148,-156,-133,-129,-121,-102,-100,-84,-94,-85,-66,-80,-78,-85,-97,-103,-109,-101,-98,-31,12,-31,-7,-60,-147,-162,-141,-145,-160,-140,-141,-272,-624,-370,1198,2203,739,-209,-481,-647,-676,-500,-439,-440,-408,-387,-357,-320,-287,-247,-226,-200
2018-05-22,10:30:54.008,-169,-175,-174,-184,-175,-181,-182,-166,-147,-112,-77,-31,7,-10,-44,-92,-121,-157,-172,-162,-170,-177,-162,-166,-156,-156,-152,-135,-129,-102,-91,-71,-51,-52,-45,-34,-16,-10,-8,1,7,12,24,10,31,117,129,106,121,67,-1,34,56,40,30,27,20,-256,-641,156,2354,2821,1013,-48,-429,-579,-388,-291,-260,-221,-176,-143,-102,-63,-24,-4,18,57,92,90,85,95,87,84,94,114,133,155,196,232,259,262,248,237,225,206,207,189,183,174,166,155,157,162,165,159,156,148,140,131,131,133,125,116,101,92,76,72,70,55,60,43,31,111,103,72,82,8
2018-05-22,10:30:55.045,-87,-89,-84,-112,-138,-132,-162,-432,-838,-183,1834,2266,549,-374,-690,-875,-744,-601,-587,-559,-520,-483,-456,-436,-418,-400,-402,-372,-356,-344,-349,-356,-354,-366,-352,-328,-316,-287,-260,-232,-213,-223,-245,-284,-295,-299,-294,-285,-290,-269,-261,-246,-229,-215,-195,-193,-194,-177,-159,-141,-138,-121,-106,-103,-80,-74,-81,-92,-88,-72,-80,-85,-71,-12,29,-13,20,-13,-104,-105,-89,-75,-72,-77,-64,-163,-489,-278,1193,2235,800,-102,-332,-467,-513,-334,-247,-231,-203,-181,-157,-117,-86,-70,-36,-9,13,24,24,19,4,17,8,29,50,62,94,111,119,100,42,-10,-45,-59,-84,-91,-79,-95
2018-05-22,10:30:56.083,-92,-79,-56,-43,-40,-31,-39,-20,10,14,28,20,19,33,45,57,48,56,56,51,53,52,60,135,179,170,167,123,23,11,29,23,30,26,21,-91,-515,-352,1240,2738,1423,112,-340,-581,-551,-348,-311,-301,-294,-242,-218,-204,-175,-143,-108,-72,-67,-70,-68,-64,-78,-76,-74,-80,-59,-49,-25,14,42,50,22,-11,-18,-37,-29,-28,-32,-23,-16,-17,-13,-22,-14,-7,-3,-7,-9,-2,4,13,34,38,41,45,55,54,50,38,37,46,29,69,143,120,120,119,29,-14,5,12,2,-1,2,-52,-451,-668,494,2687,2387,585,-256,-572,-650,-439,-393,-380,-341,-311
2018-05-22,10:30:57.120,-264,-250,-226,-198,-186,-161,-132,-108,-94,-117,-129,-126,-135,-129,-112,-87,-54,-24,20,49,50,35,25,19,18,20,3,8,4,-15,-12,-22,-19,-12,-10,15,3,7,25,22,34,41,30,37,36,45,34,38,29,16,29,27,102,143,118,133,97,17,4,19,13,2,14,14,-83,-444,-357,1037,2379,1094,-9,-316,-477,-552,-355,-265,-237,-189,-159,-140,-131,-106,-73,-75,-76,-70,-70,-60,-88,-93,-71,-64,-47,-44,-27,-12,8,37,37,-4,-58,-103,-126,-152,-153,-162,-157,-142,-135,-113,-104,-106,-81,-77,-67,-67,-60,-57,-40,-24,-27,-25,-17,-14,2,-3,-2,-5
2018-05-22,10:30:58.157,-3,83,90,77,77,27,-31,-29,-21,-35,-34,-23,-42,-197,-571,-165,1561,2350,745,-109,-379,-556,-494,-290,-269,-259,-213,-191,-171,-164,-136,-119,-99,-81,-64,-54,-67,-71,-79,-89,-84,-57,-39,-18,9,54,66,46,21,-30,-67,-80,-80,-73,-71,-74,-67,-63,-60,-58,-41,-51,-37,-30,-44,-30,-22,-2,9,-5,0,-6,-5,-3,6,7,-10,-4,43,110,84,84,77,-19,-56,-28,-44,-47,-42,-53,-113,-504,-622,626,2617,1941,283,-327,-595,-670,-456,-387,-367,-329,-299,-265,-240,-209,-188,-168,-164,-149,-134,-138,-147,-151,-156,-147,-147,-122,-110,-98,-51,-23,0,7,-8,-24
2018-05-22,10:30:59.194,-34,-38,-47,-30,-29,-40,-35,-40,-38,-40,-51,-41,-36,-29,-18,-2,5,-8,7,7,7,8,-1,13,28,17,0,50,122,81,86,78,-21,-46,-26,-25,-28,-45,-43,-107,-468,-515,709,2410,1473,56,-353,-536,-614,-422,-339,-317,-281,-239,-208,-186,-168,-152,-126,-119,-103,-96,-108,-106,-109,-108,-95,-90,-82,-70,-26,1,11,28,-8,-53,-85,-104,-110,-133,-137,-137,-127,-112,-117,-109,-97,-94,-89,-89,-78,-69,-60,-34,-25,-19,-25,-14,-5,-24,-24,-32,-16,-9,56,123,91,93,60,-29,-18,-3,-5,-11,-18,-24,-149,-520,-357,1133,2422,1000,-70,-367,-539,-575,-388,-314
2018-05-22,10:31:00.232,-299,-257,-228,-215,-189,-161,-135,-111,-109,-90,-95,-90,-84,-89,-80,-70,-46,-41,-30,4,34,70,67,19,-20,-53,-75,-92,-102,-89,-94,-85,-78,-83,-75,-64,-47,-34,-38,-39,-39,-22,-22,-24,-9,0,17,6,9,16,10,7,8,97,128,100,105,59,-28,-32,-9,-3,-14,-14,-23,-191,-639,-319,1528,2865,1269,9,-434,-687,-578,-420,-389,-378,-342,-297,-275,-249,-232,-192,-164,-155,-150,-143,-134,-139,-145,-149,-149,-132,-109,-84,-48,-22,10,18,19,10,-1,-12,-19,-8,-16,-26,-27,-21,-14,-25,-22,-13,-11,-10,-7,-3,9,11,20,25,28,26,36,49,40,49
2018-05-22,10:31:01.269,51,47,144,188,153,158,106,12,-2,27,28,12,17,16,-125,-568,-383,1251,2726,1356,81,-362,-602,-551,-356,-332,-303,-246,-218,-190,-158,-141,-120,-94,-61,-52,-38,-40,-46,-40,-45,-38,-18,0,25,55,102,128,124,100,60,67,57,38,58,61,70,75,78,95,92,94,105,119,136,131,157,164,175,184,188,202,208,201,203,219,222,209,215,257,320,324,303,298,203,149,184,204,197,189,182,134,-150,-325,628,2384,1835,314,-82,-265,-425,-288,-179,-176,-167,-143,-121,-117,-84,-79,-69,-64,-87,-110,-142,-162,-174,-182,-189,-193,-198,-183,-178,-153,-147,-162,-220,-301
2018-05-22,10:31:02.306,-334,-376,-403,-412,-417,-419,-429,-441,-455,-479,-476,-472,-464,-459,-461,-451,-431,-421,-436,-421,-392,-398,-391,-394,-386,-385,-391,-379,-372,-287,-264,-274,-255,-318,-384,-363,-332,-325,-326,-321,-331,-509,-905,-430,1472,2332,605,-361,-685,-899,-768,-587,-558,-528,-480,-443,-424,-387,-353,-328,-293,-263,-227,-215,-208,-213,-222,-224,-212,-192,-173,-134,-94,-57,-24,-37,-60,-88,-99,-108,-112,-106,-99,-101,-99,-94,-62,-47,-47,-41,-40,-30,-19,-13,-4,0,5,12,13,14,24,20,18,28,33,30,28,76,152,146,144,160,99,41,52,52,49,55,80,48,-247,-582,271,2423,2624,775,-78,-374
2018-05-22,10:31:03.343,-536,-340,-245,-234,-215,-177,-139,-121,-101,-80,-50,-24,-8,0,1,-4,-4,-15,-17,-10,4,8,31,69,77,99,83,62,50,31,29,19,31,25,17,12,4,12,21,15,24,34,58,47,41,57,59,51,41,49,51,50,60,51,56,70,71,70,57,55,138,187,148,148,121,33,25,51,46,49,55,63,-5,-380,-292,1081,2530,1139,51,-228,-405,-488,-311,-237,-205,-168,-149,-122,-97,-70,-46,-29,-9,-14,-5,-12,-9,-18,-14,3,12,24,41,59,91,105,79,38,1,-26,-64,-73,-69,-76,-68,-73,-63,-68,-53,-42,-60,-54,-32,-33,-6,-12,-19,-18
2018-05-22,10:31:04.381,4,5,0,13,23,27,35,28,32,21,14,19,21,94,145,114,119,99,13,-2,20,16,4,6,0,-57,-454,-471,944,2694,1505,138,-290,-499,-562,-372,-296,-289,-260,-239,-212,-184,-157,-119,-102,-90,-89,-70,-54,-68,-68,-74,-70,-71,-46,-25,0,39,62,55,28,-1,-24,-34,-45,-38,-40,-48,-47,-26,-25,-45,-32,-38,-23,-21,-34,-21,-16,-3,9,19,32,28,38,40,34,31,31,24,27,18,21,87,133,97,108,85,-24,-40,-6,-16,-17,-32,-30,-97,-555,-548,935,2792,1716,209,-359,-631,-614,-438,-395,-388,-359,-300,-263,-242,-218,-195,-180,-149,-145,-134
2018-05-22,10:31:05.418,-127,-133,-142,-138,-147,-140,-113,-97,-53,-23,10,22,14,3,-19,-25,-33,-41,-36,-36,-55,-44,-38,-52,-68,-56,-35,-47,-49,-29,-28,-14,-18,0,-1,-2,7,1,7,5,2,0,-15,-6,59,104,82,89,72,-34,-58,-17,-31,-41,-62,-44,-96,-447,-488,712,2345,1428,100,-300,-482,-580,-415,-314,-287,-272,-240,-214,-189,-162,-148,-117,-107,-81,-79,-84,-81,-92,-85,-80,-70,-36,-21,2,36,56,70,28,-37,-66,-86,-97,-113,-108,-102,-109,-95,-110,-96,-92,-76,-67,-56,-23,-30,-28,-19,-21,-3,-2,2,12,11,16,4,0,7,0,5,54,113,83,94,83
2018-05-22,10:31:06.455,-21,-38,-16,-22,-24,-36,-27,-77,-408,-534,555,2323,1636,165,-305,-515,-618,-429,-331,-321,-296,-249,-239,-219,-185,-174,-151,-142,-122,-111,-106,-99,-105,-109,-108,-95,-73,-61,-41,-8,23,29,2,-38,-66,-91,-101,-110,-106,-117,-116,-94,-87,-89,-97,-85,-87,-76,-73,-62,-47,-27,-33,-30,-31,-23,-16,-14,-16,-21,-20,-17,7,95,94,93,94,-5,-53,-33,-23,-26,-25,-24,-50,-378,-697,234,2400,2476,688,-200,-548,-676,-484,-398,-390,-359,-318,-276,-254,-229,-210,-176,-170,-165,-156,-135,-119,-120,-121,-119,-118,-115,-104,-82,-49,-8,10,0,-7,-27,-34,-43,-49,-46,-40,-29
2018-05-22,10:31:07.492,-36,-30,-33,-32,-20,-14,-10,-8,-2,7,0,10,24,15,13,18,9,18,17,16,12,96,149,110,134,104,-10,-26,-3,-15,-17,-17,-19,-125,-563,-465,1081,2685,1477,111,-363,-585,-596,-389,-329,-323,-281,-255,-242,-215,-199,-167,-143,-117,-107,-115,-104,-102,-94,-100,-96,-86,-78,-60,-24,6,36,25,2,-18,-46,-59,-70,-51,-53,-65,-54,-73,-62,-56,-63,-59,-50,-36,-39,-37,-29,-27,-9,-9,-6,-5,-5,-1,-4,-5,14,76,93,89,97,44,-41,-26,-10,-5,1,4,-11,-182,-546,-145,1553,2180,599,-115,-336,-487,-481,-323,-259,-243,-219,-198,-174,-127,-102,-98
2018-05-22,10:31:08.530,-79,-71,-53,-50,-48,-45,-49,-40,-41,-34,-14,1,32,69,70,22,-35,-74,-108,-121,-125,-132,-121,-113,-103,-99,-89,-91,-78,-68,-68,-58,-45,-44,-28,-22,-11,-13,-24,-16,-11,-12,-3,-11,23,108,102,99,91,6,-50,-25,-18,-23,-8,-6,-38,-355,-606,351,2317,2050,392,-241,-481,-640,-459,-334,-333,-301,-265,-236,-220,-188,-179,-163,-140,-120,-111,-99,-107,-103,-107,-114,-109,-97,-68,-40,-13,31,30,-7,-40,-66,-79,-96,-90,-84,-80,-79,-79,-69,-64,-63,-57,-53,-44,-34,-37,-40,-25,-16,-17,-8,-9,-16,-23,-22,-12,-3,-12,18,97,92,86,91,1,-56
2018-05-22,10:31:09.567,-25,-12,-17,-22,-20,-65,-460,-655,525,2632,2169,465,-279,-574,-646,-445,-377,-370,-332,-294,-261,-236,-201,-184,-160,-130,-135,-132,-119,-107,-108,-115,-101,-95,-93,-70,-39,-16,3,11,-9,-31,-39,-53,-54,-46,-35,-42,-55,-40,-21,-34,-22,-26,-27,-11,-7,8,1,9,13,23,41,23,36,45,29,19,6,58,127,107,97,75,-4,-41,-3,-3,-32,-24,-13,-56,-440,-542,675,2456,1646,221,-283,-488,-579,-393,-300,-278,-247,-225,-181,-161,-140,-111,-114,-87,-74,-70,-66,-61,-57,-59,-48,-42,-27,2,24,46,61,33,-6,-51,-62,-89,-88,-76,-63,-58,-46,-35,-26,-32
2018-05-22,10:31:10.604,-12,-1,10,33,42,63,66,90,113,111,117,105,105,120,112,119,122,150,226,228,218,227,142,94,113,136,133,131,131,97,-182,-417,483,2349,1981,447,-84,-283,-436,-300,-156,-142,-113,-74,-74,-37,-15,8,19,50,55,57,64,55,51,44,34,43,54,69,88,98,99,70,28,-17,-56,-74,-96,-104,-118,-134,-134,-137,-144,-148,-144,-146,-148,-136,-134,-142,-137,-147,-145,-153,-161,-156,-158,-175,-188,-196,-196,-209,-221,-236,-176,-138,-173,-169,-211,-307,-313,-304,-305,-321,-328,-340,-476,-928,-652,1130,2502,991,-284,-730,-969,-913,-727,-694,-683,-657,-620,-582,-545,-517,-496,-488
2018-05-22,10:31:11.641,-451,-433,-430,-421,-414,-405,-388,-384,-379,-357,-338,-321,-289,-258,-271,-290,-307,-309,-305,-298,-285,-287,-289,-296,-308,-310,-289,-273,-259,-243,-235,-212,-187,-168,-166,-146,-129,-103,-92,-87,-88,-83,-74,-62,-58,-41,-39,53,108,86,123,86,0,18,36,62,59,53,47,-62,-466,-332,1225,2728,1450,182,-257,-461,-484,-309,-254,-232,-191,-154,-118,-90,-73,-48,-40,-25,-1,0,-10,-4,0,7,3,17,35,55,83,95,92,69,22,5,-30,-31,-24,-10,0,3,14,11,11,1,14,33,37,39,58,75,81,91,107,114,112,112,100,88,95,104,116,97,114,118,117,183
2018-05-22,10:31:12.679,195,174,187,131,38,44,73,75,68,67,65,-64,-408,-26,1626,2382,797,-17,-246,-420,-438,-243,-202,-182,-152,-131,-102,-82,-64,-44,-19,13,16,24,19,21,33,24,36,55,79,108,118,130,130,95,29,-26,-46,-64,-70,-75,-67,-60,-62,-63,-56,-46,-23,-15,-16,-8,-11,-10,4,4,5,25,37,26,41,56,52,45,37,46,50,39,56,144,172,141,135,75,8,25,25,13,9,4,0,-171,-570,-154,1689,2651,924,-71,-387,-603,-534,-369,-334,-313,-275,-233,-203,-185,-165,-139,-121,-107,-90,-73,-64,-65,-72,-65,-44,-19,3,15,48,80,81,68,22,-9
2018-05-22,10:31:13.716,-34,-35,-42,-44,-54,-48,-43,-31,-25,-25,-22,-20,-10,-9,1,5,15,24,34,22,27,46,60,63,58,68,69,62,55,69,133,166,143,169,120,22,24,44,42,15,12,16,-131,-542,-304,1336,2674,1137,0,-345,-568,-549,-372,-337,-302,-267,-242,-220,-187,-171,-143,-116,-116,-108,-97,-92,-108,-116,-100,-87,-74,-49,-29,-6,12,24,-3,-50,-79,-101,-114,-125,-123,-108,-97,-86,-79,-83,-79,-81,-68,-57,-47,-43,-51,-26,-5,-1,-2,3,12,9,15,23,14,21,10,-8,18,94,122,85,94,57,-33,-22,-9,-5,-11,-15,-14,-118,-479,-331,1155,2479,961,-46
2018-05-22,10:31:14.753,-342,-521,-557,-374,-314,-304,-266,-226,-212,-190,-171,-142,-123,-115,-96,-86,-85,-84,-82,-74,-69,-63,-46,-38,0,28,23,-4,-58,-100,-134,-148,-147,-132,-124,-127,-109,-100,-103,-96,-102,-92,-76,-70,-67,-57,-39,-48,-40,-26,-12,-11,-18,-22,-18,-20,-26,-34,-39,-39,36,82,52,72,39,-48,-50,-35,-26,-29,-39,-28,-124,-540,-456,1064,2762,1303,41,-358,-585,-630,-429,-369,-357,-330,-298,-265,-232,-207,-190,-168,-140,-126,-120,-112,-97,-108,-109,-96,-86,-62,-33,-25,2,37,22,-19,-36,-62,-68,-63,-74,-75,-73,-75,-71,-75,-69,-60,-57,-42,-24,-24,-20,-12,-16,-12
2018-05-22,10:31:15.791,2,13,5,8,15,20,17,9,2,-17,2,81,84,76,107,28,-62,-31,-12,-11,-5,-10,-15,-229,-661,-122,1960,2688,833,-112,-425,-646,-511,-381,-358,-318,-287,-255,-232,-210,-180,-150,-137,-137,-124,-119,-99,-91,-105,-103,-103,-93,-61,-43,-15,14,33,12,-34,-49,-58,-62,-48,-64,-65,-52,-56,-72,-83,-66,-62,-63,-52,-37,-25,-40,-36,-17,-10,-7,0,17,16,8,13,0,9,20,14,29,105,126,96,115,71,-13,-24,-6,-13,-21,-7,-10,-166,-548,-166,1549,2276,625,-123,-340,-516,-525,-351,-284,-264,-229,-195,-180,-149,-130,-96,-80,-68,-64,-60,-69,-71,-66
2018-05-22,10:31:16.828,-69,-70,-54,-38,-11,15,26,48,26,-36,-74,-101,-115,-127,-131,-127,-132,-131,-117,-109,-93,-90,-88,-72,-64,-59,-61,-38,-27,-31,-12,-11,1,-4,3,8,-9,2,1,1,-3,-1,88,105,81,105,49,-23,-17,0,0,-4,-8,-28,-184,-593,-181,1637,2472,818,-71,-370,-573,-543,-356,-317,-289,-249,-226,-199,-173,-152,-126,-108,-95,-95,-92,-81,-93,-94,-94,-83,-67,-48,-26,-1,22,46,28,0,-37,-55,-67,-65,-63,-57,-53,-50,-64,-65,-58,-55,-55,-51,-46,-56,-49,-30,-18,-6,-5,-9,-11,-2,3,4,12,8,8,0,6,92,130,108,121,81,-8,-17
2018-05-22,10:31:17.865,4,0,-10,-9,-1,-89,-545,-421,1192,2818,1537,167,-335,-596,-568,-377,-332,-314,-288,-258,-205,-180,-164,-147,-134,-94,-63,-62,-68,-66,-60,-95,-88,-75,-65,-27,0,44,81,77,51,19,12,11,-9,-4,-20,-5,-10,-8,-3,-6,0,-5,0,8,7,21,21,39,41,31,37,34,38,52,46,60,48,46,57,41,54,128,142,115,126,86,-6,10,30,2,0,0,-13,-123,-492,-284,1193,2321,924,-61,-327,-496,-554,-386,-316,-289,-259,-224,-212,-181,-148,-133,-109,-109,-93,-77,-78,-68,-69,-80,-79,-60,-41,-28,3,24,26,8,-32,-71,-105,-122,-127,-143,-136,-141
2018-05-22,10:31:18.902,-136,-132,-139,-126,-121,-120,-110,-117,-105,-100,-80,-71,-63,-55,-49,-42,-39,-43,-27,-36,-30,-41,-45,35,75,39,59,27,-60,-65,-38,-38,-45,-38,-42,-121,-505,-426,1021,2520,1298,59,-314,-513,-558,-359,-289,-268,-225,-188,-164,-135,-102,-72,-59,-30,-30,-34,-25,-23,-15,-10,1,20,27,33,46,88,111,100,68,21,1,-2,-21,-37,-31,-27,-17,-18,-26,-35,-35,-40,-36,-36,-35,-28,-26,-17,-2,-9,-9,-11,-17,-18,-24,-37,-43,-30,-25,58,85,31,49,-8,-108,-115,-96,-89,-106,-118,-127,-281,-715,-435,1319,2681,1190,-79,-518,-771,-693,-520,-483,-467,-430,-396
2018-05-22,10:31:19.940,-368,-343,-320,-292,-269,-248,-245,-233,-211,-210,-219,-221,-217,-192,-175,-153,-120,-105,-81,-74,-110,-120,-118,-131,-141,-140,-116,-122,-129,-125,-120,-113,-121,-102,-101,-103,-95,-99,-82,-77,-78,-81,-82,-68,-64,-56,-52,-49,-39,-41,-41,1,66,49,42,33,-49,-77,-59,-59,-56,-64,-67,-92,-401,-533,461,2163,1561,122,-284,-473,-615,-465,-342,-309,-290,-259,-212,-183,-151,-137,-119,-95,-86,-78,-79,-67,-71,-67,-46,-38,-36,-28,-7,27,22,18,-7,-43,-71,-102,-99,-106,-121,-123,-119,-107,-92,-92,-85,-89,-78,-69,-58,-47,-41,-37,-30,-19,-12,-15,-10,-13,-16,-5,-15,-7
2018-05-22,10:31:20.977,74,96,58,66,8,-82,-68,-51,-64,-62,-62,-73,-226,-598,-223,1480,2345,756,-133,-401,-597,-558,-359,-312,-286,-260,-230,-212,-174,-158,-139,-109,-100,-79,-53,-40,-37,-53,-47,-32,-27,-18,1,33,61,59,36,-1,-33,-51,-64,-52,-49,-50,-49,-63,-57,-59,-43,-45,-33,-26,-28,-21,-5,2,8,16,25,40,47,43,39,33,28,37,36,118,158,126,145,123,23,4,29,34,21,29,35,-71,-514,-467,1044,2852,1761,253,-316,-587,-572,-374,-338,-333,-304,-253,-210,-177,-162,-149,-131,-118,-90,-80,-85,-79,-75,-86,-80,-70,-61,-42,-19,24,40,31,-1,-31,-52,-54
2018-05-22,10:31:22.014,-40,-35,-26,-24,-32,-35,-35,-28,-25,-12,-11,-14,-6,0,13,15,23,29,24,35,32,39,47,35,28,17,57,140,130,109,112,46,-20,-6,13,3,12,19,6,-184,-512,41,1841,2278,635,-121,-372,-560,-451,-283,-259,-233,-200,-176,-151,-145,-127,-102,-72,-56,-58,-29,-24,-32,-24,-8,4,15,43,64,74,88,87,51,16,10,2,-17,-7,6,17,40,44,39,35,62,90,94,115,128,160,196,203,196,206,234,244,264,271,267,276,258,266,365,380,357,381,316,242,238,270,265,257,262,244,110,-257,56,1695,2613,1051,148,-116,-294,-304,-119,-91,-73
2018-05-22,10:31:23.051,-43,-26,-15,-2,14,19,17,32,38,29,27,13,1,-9,-4,-10,-15,-10,-20,-19,-41,-99,-158,-204,-245,-284,-291,-295,-310,-313,-331,-347,-362,-368,-363,-371,-381,-371,-364,-355,-365,-374,-379,-383,-371,-387,-388,-398,-417,-419,-429,-429,-426,-413,-318,-322,-341,-329,-401,-453,-439,-431,-437,-438,-425,-453,-679,-1038,-419,1544,2110,338,-555,-845,-1041,-886,-745,-733,-703,-676,-647,-599,-571,-545,-498,-459,-427,-399,-366,-345,-337,-333,-318,-286,-264,-247,-222,-181,-141,-130,-151,-164,-185,-185,-178,-180,-167,-157,-147,-136,-127,-103,-86,-70,-63,-50,-37,-31,-12,-1,19,41,62,82,71,98,101,98
2018-05-22,10:31:24.089,106,106,103,97,136,225,214,206,215,126,81,95,111,119,125,123,94,-146,-446,325,2300,2403,659,-68,-310,-485,-320,-188,-178,-136,-103,-81,-54,-33,-1,24,43,77,77,82,91,91,102,109,114,124,144,168,172,189,153,98,66,39,23,24,18,27,27,27,-6,-15,-8,-24,-6,13,22,28,39,47,54,69,83,85,96,88,84,70,86,93,93,102,96,92,99,115,175,171,151,154,80,29,36,24,33,24,14,7,-163,-488,28,1838,2167,446,-154,-362,-517,-465,-309,-264,-241,-210,-191,-157,-134,-105,-74,-69,-50,-40,-41,-25,-34,-25,-2,5,16,19
2018-05-22,10:31:25.126,57,74,84,65,26,-3,-48,-81,-78,-78,-60,-52,-59,-56,-55,-49,-50,-42,-32,-30,-22,-16,-6,-8,-1,0,2,16,15,23,30,18,25,27,19,20,6,20,19,20,98,119,106,120,76,-20,-17,2,0,10,15,15,-105,-558,-280,1470,2653,1052,-5,-344,-557,-538,-358,-322,-310,-280,-236,-210,-195,-179,-154,-126,-129,-112,-82,-71,-87,-75,-87,-89,-64,-51,-24,3,10,16,1,-32,-75,-101,-126,-117,-100,-99,-91,-86,-88,-76,-67,-68,-76,-61,-68,-70,-69,-57,-45,-32,-26,-17,-15,-15,-9,-3,-11,-18,-14,-9,-16,-32,-21,-11,-12,53,103,59,81,56
2018-05-22,10:31:26.163,-38,-46,-29,-28,-27,-16,-24,-95,-496,-529,824,2653,1710,233,-306,-544,-604,-421,-369,-350,-305,-281,-254,-213,-187,-166,-141,-131,-109,-98,-94,-100,-87,-80,-89,-72,-41,-18,0,28,48,37,14,-16,-61,-75,-85,-91,-81,-69,-78,-93,-91,-87,-89,-86,-85,-61,-52,-30,-21,-28,-6,1,1,15,19,37,39,38,40,30,33,39,33,23,24,33,47,126,129,107,121,45,-10,-13,-14,1,7,3,-20,-191,-508,-48,1651,2194,550,-126,-344,-507,-502,-336,-291,-279,-254,-232,-202,-168,-147,-126,-102,-96,-81,-88,-72,-68,-56,-58,-51,-22,-5,4,19,34,26,-15,-69,-97
2018-05-22,10:31:27.200,-100,-127,-144,-123,-117,-118,-110,-104,-97,-102,-105,-80,-76,-76,-73,-53,-28,-35,-26,-18,4,6,-6,-3,-1,0,0,10,20,10,2,36,108,97,82,92,9,-47,-4,-6,-16,-11,-21,-48,-242,-622,-98,1809,2491,697,-115,-407,-623,-512,-352,-334,-326,-287,-251,-221,-197,-181,-158,-140,-132,-122,-105,-96,-106,-108,-89,-77,-66,-53,-24,5,24,29,3,-30,-75,-92,-99,-105,-85,-85,-84,-69,-72,-87,-88,-71,-72,-65,-51,-64,-63,-62,-54,-43,-31,-29,-14,-2,2,2,0,11,20,28,23,18,14,9,74,108,97,102,41,-18,-11,-2,-13,-15,-10,-21,-149,-628
2018-05-22,10:31:28.238,-413,1381,2885,1296,67,-371,-624,-565,-420,-401,-366,-312,-284,-256,-234,-208,-184,-176,-141,-119,-114,-108,-105,-101,-108,-100,-83,-57,-35,-16,15,39,15,-8,-36,-61,-74,-56,-54,-60,-65,-61,-67,-69,-76,-71,-65,-53,-39,-51,-51,-23,-14,-5,-5,12,21,16,12,26,22,16,16,8,7,25,27,78,125,106,126,84,-9,-28,-20,-21,-30,-17,-19,-63,-376,-470,630,2274,1376,78,-254,-429,-562,-441,-310,-285,-247,-220,-199,-164,-146,-117,-104,-99,-74,-57,-49,-43,-64,-64,-52,-26,-10,4,29,52,63,35,-11,-44,-82,-98,-105,-113,-105,-92,-77,-85,-88,-87,-87,-69
2018-05-22,10:31:29.275,-59,-41,-33,-14,-15,-24,-14,12,31,38,32,35,33,37,40,28,40,39,44,138,162,143,150,96,31,41,53,39,45,54,44,-73,-476,-216,1431,2558,1069,56,-252,-467,-471,-285,-238,-220,-190,-160,-127,-101,-98,-75,-39,-23,-25,-14,-7,-9,-10,4,17,10,21,43,58,86,84,61,19,-19,-39,-42,-43,-44,-30,-33,-41,-43,-46,-55,-49,-31,-24,-29,-19,-10,3,17,16,14,28,29,27,14,13,17,11,15,3,-1,85,108,70,93,39,-60,-72,-48,-47,-63,-72,-85,-168,-612,-558,946,2669,1527,104,-412,-678,-692,-485,-440,-427,-393,-351,-332,-317,-300
2018-05-22,10:31:30.312,-281,-260,-244,-232,-214,-201,-204,-188,-205,-191,-173,-162,-155,-120,-78,-64,-73,-101,-118,-126,-138,-151,-144,-143,-124,-122,-128,-125,-143,-144,-134,-128,-116,-109,-103,-102,-81,-73,-66,-62,-60,-52,-49,-44,-24,-40,-41,-52,-45,33,90,76,81,60,-26,-31,0,6,1,0,0,-48,-381,-470,659,2365,1624,210,-226,-410,-535,-371,-269,-245,-200,-174,-121,-93,-73,-69,-45,-7,-4,11,17,8,26,36,39,42,61,79,87,101,95,70,36,-8,-39,-62,-61,-54,-56,-72,-71,-65,-71,-83,-84,-84,-77,-74,-82,-91,-84,-72,-75,-78,-74,-74,-76,-84,-89,-92,-95,-106,-85,6
2018-05-22,10:31:31.349,-12,-54,-49,-131,-192,-165,-159,-168,-180,-187,-205,-388,-727,-255,1503,2076,431,-334,-597,-787,-744,-570,-520,-511,-463,-445,-430,-397,-379,-355,-338,-323,-311,-294,-281,-267,-272,-266,-254,-231,-209,-195,-169,-133,-133,-183,-231,-248,-256,-245,-248,-235,-223,-227,-217,-210,-188,-166,-163,-161,-154,-133,-127,-112,-94,-88,-75,-66,-52,-26,-25,-24,-12,-5,0,-21,29,131,133,144,145,54,15,42,50,49,46,32,17,-223,-567,164,2175,2505,722,-122,-416,-616,-444,-315,-292,-242,-210,-180,-149,-132,-117,-87,-50,-44,-42,-34,-22,-21,-28,-21,3,28,44,50,77,92,75,51,18,6,6,-9
2018-05-22,10:31:32.387,-8,-7,-4,-6,-4,0,0,10,2,8,15,32,40,46,37,39,57,62,56,49,58,64,52,41,55,50,61,128,154,126,147,96,20,36,48,45,39,35,23,-100,-480,-199,1426,2513,1000,-2,-304,-498,-502,-312,-250,-236,-204,-169,-143,-131,-116,-94,-75,-47,-35,-19,-18,-27,-14,0,22,36,34,43,69,81,72,27,-25,-50,-63,-80,-87,-80,-76,-71,-68,-72,-66,-66,-58,-52,-52,-35,-30,-18,-10,-3,20,39,49,52,44,44,50,50,42,33,66,155,151,142,132,53,3,25,27,23,22,17,4,-226,-495,237,2069,2118,457,-147,-381,-558,-435,-286
2018-05-22,10:31:33.424,-257,-247,-210,-185,-166,-134,-119,-104,-74,-67,-49,-40,-31,-23,-21,-3,-8,13,42,52,76,78,58,13,-33,-67,-82,-84,-79,-69,-67,-73,-64,-51,-46,-39,-37,-17,-21,-28,-9,-6,12,23,23,34,43,50,38,44,41,30,37,42,29,72,143,124,119,121,30,-2,20,29,35,29,11,-16,-286,-607,203,2276,2479,626,-185,-462,-643,-456,-366,-360,-327,-293,-259,-229,-202,-185,-168,-136,-131,-116,-76,-64,-62,-54,-47,-28,-13,3,24,38,57,39,12,-19,-43,-42,-37,-36,-23,-24,-29,-24,-27,-33,-31,-26,-16,-10,9,13,6,28,39,27,37,42,52,52
2018-05-22,10:31:34.461,47,51,46,56,51,36,27,66,141,120,129,140,52,1,1,0,-8,-16,-6,-21,-268,-568,213,2177,2151,442,-188,-411,-582,-451,-307,-285,-263,-239,-243,-210,-170,-153,-139,-127,-98,-103,-97,-89,-83,-72,-63,-42,-31,-22,4,29,28,9,-43,-84,-119,-132,-128,-130,-114,-114,-127,-137,-130,-129,-127,-114,-103,-98,-84,-73,-63,-51,-35,-22,-29,-14,-9,-12,-1,-5,-9,-12,-12,-18,2,73,80,66,69,7,-45,-44,-36,-28,-46,-59,-68,-208,-590,-198,1554,2270,580,-174,-415,-608,-583,-405,-374,-355,-315,-287,-265,-241,-203,-174,-158,-149,-147,-127,-122,-119,-98,-94,-87,-76
2018-05-22,10:31:35.498,-62,-47,-31,-4,-12,-62,-111,-151,-164,-163,-159,-155,-148,-138,-135,-140,-144,-141,-127,-125,-128,-114,-96,-74,-71,-65,-52,-41,-38,-41,-26,-12,-20,-21,-20,-17,-25,-36,-42,-15,72,86,61,71,12,-70,-52,-52,-53,-65,-57,-45,-189,-656,-324,1490,2682,1058,-40,-420,-648,-575,-427,-392,-358,-313,-287,-251,-215,-198,-181,-158,-135,-125,-108,-101,-88,-82,-83,-75,-70,-47,-25,-9,12,19,-6,-35,-59,-70,-80,-75,-78,-76,-61,-53,-63,-72,-69,-70,-61,-61,-51,-55,-49,-39,-20,-12,-15,-10,-11,-3,8,12,4,-1,6,11,6,-4,53,121,95,106,93,-3,-20,15
2018-05-22,10:31:36.536,-6,-13,-7,4,-28,-350,-583,387,2416,2156,504,-203,-484,-623,-455,-378,-361,-322,-273,-238,-214,-203,-172,-154,-138,-106,-87,-83,-74,-76,-73,-40,-22,-2,13,28,49,60,48,2,-31,-57,-79,-71,-67,-69,-53,-59,-63,-67,-62,-52,-58,-39,-25,-12,-14,-21,-10,5,20,13,7,16,20,28,15,14,20,21,6,12,9,42,107,95,81,98,22,-51,-28,-6,-19,-19,-17,-19,-185,-494,-17,1671,2132,540,-136,-342,-523,-521,-346,-284,-261,-238,-207,-181,-155,-139,-118,-92,-84,-68,-40,-40,-38,-38,-37,-23,-4,13,29,46,56,37,-11,-67,-82,-112,-122,-120,-112,-94
2018-05-22,10:31:37.573,-80,-76,-83,-104,-106,-98,-74,-77,-74,-63,-69,-65,-40,-32,-34,-18,0,-11,-18,-11,1,0,-2,-5,8,-6,-17,57,105,74,80,52,-26,-32,-14,-16,-20,-27,-32,-95,-436,-486,727,2469,1583,146,-294,-498,-611,-411,-326,-314,-279,-237,-217,-192,-169,-154,-141,-115,-105,-90,-78,-67,-57,-47,-39,-52,-40,-15,2,31,39,22,-17,-67,-94,-100,-97,-104,-77,-76,-87,-86,-94,-98,-91,-87,-75,-64,-56,-38,-46,-29,-35,-24,-8,-8,15,7,12,24,18,18,6,7,4,5,22,86,119,86,115,80,-20,-28,0,-3,-8,-10,-24,-88,-455,-530,743,2659,1666,191
2018-05-22,10:31:38.610,-288,-516,-614,-415,-357,-336,-304,-259,-216,-190,-176,-153,-135,-118,-101,-97,-86,-86,-101,-94,-86,-4,92,87,76,79,1,-38,-69,-93,-128,-149,-147,-149,-139,-137,-153,-143,-130,-136,-133,-125,-119,-106,-90,-77,-59,-39,-37,-15,-7,-9,0,-2,9,20,21,21,21,24,22,28,36,39,44,41,35,24,23,36,22,14,21,47,37,6,12,12,11,14,16,24,12,10,18,11,-2,-8,-3,10,6,0,-5,-14,-6,8,3,-11,-16,-9,-5,0,1,1,-2,-7,-5,-11,7,4,-6,-10,-5,0,3,0,-5,-10,-5,-25,-24,-24,40,86,66,80,41,-37
2018-05-22,10:31:39.647,-38,-26,-23,-25,-32,-56,-355,-513,466,2379,1873,259,-162,-349,-526,-443,-319,-270,-247,-216,-189,-158,-112,-87,-62,-36,-29,-22,-19,-14,-10,-2,16,21,32,56,75,103,134,165,189,176,145,119,107,87,60,58,63,59,70,60,57,46,53,56,65,65,57,60,55,60,81,80,82,84,81,94,97,99,90,81,87,75,69,144,169,156,165,103,9,28,43,36,27,11,-4,-147,-551,-307,1310,2499,1019,-36,-365,-621,-637,-445,-405,-380,-354,-317,-310,-299,-272,-262,-234,-217,-220,-217,-205,-193,-195,-198,-177,-173,-154,-135,-125,-116,-141,-198,-253,-296,-317,-323,-328,-316
2018-05-22,10:31:40.685,-323,-323,-313,-312,-314,-312,-318,-313,-293,-289,-288,-287,-286,-275,-263,-261,-255,-243,-237,-241,-238,-238,-235,-258,-198,-116,-137,-131,-145,-233,-255,-226,-213,-205,-209,-202,-286,-716,-728,758,2741,1772,138,-490,-783,-810,-600,-564,-546,-500,-460,-422,-389,-360,-335,-302,-278,-248,-231,-228,-211,-194,-170,-172,-152,-112,-77,-46,-27,-12,-25,-66,-93,-107,-121,-117,-102,-88,-76,-67,-65,-62,-51,-40,-39,-30,-23,-9,0,6,9,22,28,29,38,40,32,40,41,40,139,165,160,171,111,30,36,47,54,61,55,32,-155,-557,-102,1744,2480,803,-55,-317,-515,-487,-299,-258,-238,-210,-177,-140
2018-05-22,10:31:41.722,-121,-100,-75,-66,-53,-22,-9,4,14,16,38,44,57,75,84,118,131,95,30,-9,-49,-68,-60,-54,-57,-33,-25,-21,-17,-10,2,-5,18,37,48,51,54,59,73,86,100,104,119,152,194,208,181,198,281,270,270,277,183,136,160,152,140,138,144,129,-122,-407,345,2163,2108,512,-29,-229,-403,-333,-168,-150,-131,-101,-74,-41,-24,12,35,44,66,67,68,76,84,93,98,101,112,141,162,182,182,132,70,11,-32,-58,-73,-43,-27,-29,-29,-35,-32,-32,-39,-44,-50,-38,-28,-19,-25,-40,-23,-16,-19,-14,-9,-12,-35,-26,-22,-27,50,60,36,57
2018-05-22,10:31:42.759,-23,-91,-73,-40,-43,-47,-64,-79,-251,-639,-153,1703,2436,753,-146,-425,-631,-598,-422,-361,-347,-317,-293,-270,-245,-224,-195,-167,-155,-130,-118,-104,-89,-71,-60,-41,-18,-2,18,33,42,5,-46,-99,-133,-151,-165,-181,-179,-172,-154,-161,-161,-147,-148,-149,-138,-126,-125,-114,-103,-97,-86,-86,-95,-67,-52,-30,-29,-36,-29,-28,-25,-27,-28,23,98,89,90,80,-25,-67,-40,-34,-41,-38,-56,-103,-438,-601,520,2464,1912,293,-277,-514,-669,-488,-400,-391,-367,-339,-306,-269,-241,-223,-204,-180,-166,-152,-135,-122,-111,-91,-82,-59,-32,0,16,33,32,-8,-67,-123,-149,-167,-159,-145
2018-05-22,10:31:43.796,-149,-134,-126,-130,-121,-125,-124,-117,-103,-100,-97,-97,-93,-84,-70,-61,-44,-33,-33,-22,-22,-13,-3,0,-1,-18,-12,2,2,-4,-6,8,35,100,93,87,101,30,-24,-25,-9,1,-8,-10,-34,-257,-545,172,2126,2190,399,-180,-394,-564,-504,-356,-308,-288,-246,-225,-195,-159,-145,-118,-104,-85,-57,-40,-40,-51,-35,-7,17,38,55,94,101,88,45,-21,-72,-111,-133,-138,-132,-113,-112,-110,-101,-112,-95,-90,-81,-73,-67,-65,-54,-48,-40,-37,-19,-17,-4,3,15,25,16,14,14,20,38,28,33,35,20,33,34,42,41,41,33,21,13,22,21,26,22,15
2018-05-22,10:31:44.834,8,5,7,2,-3,-19,-20,11,49,80,73,39,-25,-24,-16,-20,-14,-4,-54,-377,-509,653,2682,1886,192,-257,-440,-641,-497,-393,-388,-346,-311,-275,-244,-227,-206,-183,-155,-137,-118,-99,-95,-91,-79,-56,-29,1,35,47,70,106,72,18,-48,-98,-116,-131,-143,-133,-123,-126,-116,-102,-101,-88,-87,-90,-87,-91,-89,-86,-73,-50,-53,-56,-42,-17,-11,-12,-1,7,13,19,23,35,21,27,23,14,16,27,20,30,22,22,18,14,16,29,25,15,21,22,25,25,21,26,31,31,34,17,19,30,10,5,-3,-6,-10,-5,60,88,73,61,33,-21,-35,-14
2018-05-22,10:31:45.871,-11,-14,-16,-57,-360,-597,375,2550,2325,504,-172,-448,-662,-563,-432,-401,-364,-318,-289,-257,-236,-207,-188,-179,-149,-125,-119,-119,-103,-84,-75,-64,-38,-14,16,45,76,72,32,-32,-87,-114,-144,-161,-150,-127,-119,-114,-120,-115,-120,-109,-105,-100,-95,-96,-99,-100,-82,-85,-72,-54,-41,-22,-9,-11,5,14,20,12,2,23,20,19,30,36,24,0,11,13,12,22,21,20,1,0,12,7,-2,-12,-12,-14,34,96,76,62,53,-5,-34,-39,-32,-15,-21,-27,-133,-518,-312,1304,2585,1022,-25,-297,-486,-591,-446,-355,-323,-294,-268,-234,-195,-173,-147,-112,-99,-85,-59,-42
2018-05-22,10:31:46.908,-23,-23,-7,4,24,52,74,119,148,139,89,5,-73,-126,-154,-172,-169,-156,-149,-131,-128,-132,-132,-125,-122,-109,-110,-87,-80,-75,-72,-57,-52,-45,-16,-3,1,2,6,8,18,9,15,26,42,32,28,30,34,35,30,23,11,12,14,10,21,22,17,12,6,2,-5,51,116,95,99,71,0,-23,-22,-17,-22,-11,-7,-107,-571,-517,1058,3002,1682,184,-286,-581,-662,-488,-426,-407,-372,-333,-299,-274,-248,-222,-196,-168,-148,-140,-123,-124,-128,-91,-66,-49,-27,5,36,60,91,90,39,-20,-77,-100,-111,-117,-108,-102,-96,-93,-91,-95,-111,-96,-93,-90,-78,-72
2018-05-22,10:31:47.945,-62,-60,-51,-35,-28,-19,-11,1,7,11,11,14,31,29,30,32,21,24,19,23,7,1,17,11,10,5,-9,0,-1,1,84,111,87,84,42,-23,-22,-9,-17,-14,-11,-33,-168,-547,-219,1498,2568,858,-55,-310,-507,-577,-399,-337,-318,-287,-262,-219,-184,-170,-161,-144,-115,-98,-81,-77,-68,-51,-48,-17,12,40,73,92,120,112,64,-11,-93,-139,-162,-180,-176,-167,-155,-146,-130,-137,-131,-119,-110,-110,-111,-97,-73,-76,-73,-48,-41,-44,-26,-14,-7,-7,5,8,21,16,10,15,3,11,13,24,29,18,11,7,10,64,117,100,110,78,-11,-34,-10,-13
2018-05-22,10:31:48.983,-12,-14,-16,-86,-480,-425,987,2567,1307,71,-273,-477,-595,-427,-330,-318,-290,-265,-223,-201,-180,-170,-145,-118,-103,-79,-77,-71,-52,-47,-20,-5,35,76,96,112,126,78,10,-66,-116,-141,-148,-143,-128,-111,-96,-93,-99,-101,-101,-103,-79,-74,-72,-63,-59,-58,-43,-28,-20,-13,-7,3,12,14,9,11,17,21,7,0,5,18,9,12,8,2,-2,9,99,91,66,79,33,-25,-25,-20,-27,-18,-31,-35,-177,-607,-321,1463,2829,1198,18,-330,-589,-607,-421,-393,-376,-346,-298,-266,-239,-199,-172,-154,-137,-127,-114,-107,-100,-94,-81,-59,-24,-9,16,51,87,100,83,20
2018-05-22,10:31:50.020,-50,-65,-91,-88,-71,-72,-61,-51,-61,-68,-53,-57,-67,-64,-49,-53,-58,-59,-39,-40,-40,-23,-16,-10,-8,1,1,12,22,10,15,14,29,30,17,6,1,-11,1,60,111,84,97,89,5,-35,-19,-17,-17,-13,-27,-58,-362,-520,493,2367,1650,170,-214,-399,-559,-478,-333,-299,-280,-248,-213,-183,-156,-139,-121,-101,-81,-73,-67,-53,-47,-31,-6,-5,14,35,65,84,99,78,16,-50,-105,-127,-139,-144,-143,-136,-124,-122,-135,-125,-121,-117,-97,-82,-79,-81,-68,-64,-43,-41,-28,-9,1,-3,-3,-1,-5,-1,3,0,-4,10,9,7,8,9,80,114,94,98
2018-05-22,10:31:51.057,72,-8,-24,-15,-7,-18,-12,-14,-76,-429,-516,700,2502,1660,190,-232,-459,-626,-463,-342,-325,-295,-255,-225,-196,-170,-170,-152,-116,-88,-74,-61,-61,-60,-60,-40,-27,-8,11,29,59,70,57,7,-52,-85,-117,-135,-111,-73,-52,-56,-54,-56,-71,-84,-82,-70,-74,-80,-65,-56,-46,-23,-23,-17,-14,-6,-8,-11,-10,-6,-2,-5,-9,10,7,0,1,3,-12,-2,94,110,82,96,51,-6,-18,-2,4,-13,-9,-12,-81,-481,-432,1015,2746,1452,125,-275,-494,-619,-433,-346,-333,-284,-256,-220,-186,-170,-152,-136,-117,-110,-108,-88,-93,-79,-68,-66,-42,-31,-4,11,43,66
2018-05-22,10:31:52.094,54,22,-21,-51,-87,-89,-90,-87,-88,-82,-94,-94,-82,-77,-80,-80,-54,-41,-45,-35,-43,-31,-23,-9,-12,-8,12,24,22,23,33,35,30,29,28,28,30,91,140,118,127,114,43,10,13,6,20,32,32,-18,-302,-521,365,2300,1788,235,-163,-363,-517,-435,-291,-260,-243,-215,-183,-148,-113,-93,-69,-61,-53,-37,-18,-7,-13,-6,-10,-5,27,42,62,85,102,94,43,-20,-69,-96,-110,-125,-116,-108,-105,-102,-97,-81,-82,-100,-100,-85,-90,-87,-74,-72,-67,-67,-53,-45,-47,-40,-34,-19,-27,-41,-47,-44,-46,-29,49,77,60,55,-9,-74,-62,-45,-51,-57
2018-05-22,10:31:53.132,-62,-69,-163,-633,-482,1167,2744,1321,50,-392,-672,-698,-514,-451,-441,-414,-377,-334,-304,-284,-262,-243,-223,-203,-184,-176,-184,-182,-177,-164,-158,-143,-119,-88,-45,-23,-43,-82,-97,-113,-142,-155,-146,-134,-129,-137,-133,-145,-142,-132,-131,-135,-114,-107,-103,-94,-86,-73,-54,-40,-47,-45,-34,-28,-30,-23,-20,-18,-23,13,81,75,70,76,-11,-67,-40,-47,-49,-63,-46,-51,-282,-640,-12,1910,2289,617,-145,-415,-626,-558,-385,-338,-333,-308,-273,-255,-226,-206,-175,-163,-155,-144,-119,-133,-149,-150,-126,-97,-84,-70,-65,-38,-17,-1,-34,-79,-108,-138,-152,-148,-143,-139,-147,-142,-128,-136
2018-05-22,10:31:54.169,-148,-125,-118,-112,-94,-82,-76,-73,-62,-39,-29,-24,-17,-11,4,-4,-13,-3,-11,21,90,98,93,97,33,-14,5,14,4,-10,-16,-31,-198,-524,9,1780,2198,594,-81,-305,-494,-486,-320,-273,-254,-221,-179,-153,-138,-100,-80,-63,-46,-28,-7,0,18,25,34,49,69,101,118,131,159,157,110,67,39,20,18,29,31,47,44,38,40,43,37,51,56,70,78,92,97,119,122,121,133,140,149,156,158,147,141,134,143,148,229,265,235,255,189,115,113,115,106,93,98,98,-7,-407,-252,1309,2760,1404,170,-237,-478,-549,-377,-316,-308,-271,-244,-226,-208,-191
2018-05-22,10:31:55.206,-164,-177,-167,-160,-147,-128,-134,-136,-143,-137,-124,-118,-104,-88,-63,-53,-93,-135,-179,-214,-210,-212,-220,-219,-213,-213,-213,-227,-221,-231,-236,-224,-228,-226,-215,-202,-195,-188,-190,-177,-178,-182,-178,-184,-174,-181,-181,-176,-177,-153,-77,-90,-94,-73,-149,-209,-200,-192,-188,-188,-201,-205,-377,-775,-349,1499,2505,873,-161,-512,-757,-708,-539,-513,-479,-426,-392,-371,-339,-297,-277,-247,-237,-225,-196,-207,-207,-202,-191,-167,-147,-137,-108,-69,-34,-49,-68,-116,-138,-135,-134,-111,-96,-85,-74,-70,-81,-81,-55,-50,-45,-47,-44,-18,-9,-5,12,19,29,32,25,48,40,57,62,76,74,51
2018-05-22,10:31:56.243,56,60,90,160,158,150,151,92,35,40,61,60,52,51,33,-111,-478,-123,1536,2404,788,-64,-327,-513,-534,-356,-305,-298,-270,-230,-191,-186,-164,-137,-108,-88,-74,-57,-51,-59,-43,-22,-2,14,30,61,76,99,104,62,3,-46,-76,-91,-74,-71,-75,-77,-73,-65,-64,-74,-68,-64,-59,-48,-39,-24,-26,-13,-11,11,27,28,42,50,35,35,36,36,45,46,72,145,152,118,143,101,15,12,33,24,26,27,25,-100,-504,-247,1432,2754,1147,53,-292,-530,-555,-365,-295,-283,-259,-234,-207,-178,-152,-127,-109,-90,-76,-71,-58,-52,-55,-35,-20,-10,18,38,64,85
2018-05-22,10:31:57.281,81,59,4,-20,-36,-52,-53,-56,-35,-35,-34,-40,-42,-38,-47,-33,-15,-11,-3,8,17,25,29,31,32,40,42,52,58,34,36,44,49,42,47,50,83,149,124,104,115,46,3,16,28,23,21,23,24,-191,-581,3,2019,2502,732,-69,-348,-565,-486,-341,-307,-289,-253,-229,-201,-179,-154,-128,-105,-95,-73,-47,-37,-58,-56,-27,-8,7,27,36,53,67,65,20,-24,-53,-68,-75,-79,-58,-68,-69,-70,-81,-71,-80,-82,-67,-71,-44,-21,-22,-12,-16,0,-3,-3,12,16,14,31,28,21,13,13,4,34,106,100,77,83,41,-19,-26,-13,-3,0,-10
2018-05-22,10:31:58.318,-11,-141,-521,-193,1446,2349,785,-56,-328,-528,-562,-391,-315,-293,-265,-240,-218,-185,-154,-135,-128,-108,-92,-84,-77,-72,-69,-69,-36,-30,-9,12,36,58,50,7,-46,-82,-105,-130,-118,-103,-108,-106,-90,-99,-105,-90,-80,-75,-59,-53,-54,-61,-43,-25,-20,-29,-25,-7,-12,-23,-8,4,-2,11,11,-7,-12,-3,7,78,109,81,88,45,-29,-33,-21,-23,-22,-34,-47,-170,-578,-317,1323,2514,1031,-22,-341,-547,-593,-417,-331,-314,-286,-242,-225,-206,-167,-140,-119,-97,-79,-71,-56,-50,-57,-46,-17,-2,21,33,54,82,100,60,0,-46,-64,-72,-71,-87,-89,-78,-72,-71
2018-05-22,10:31:59.355,-82,-78,-65,-55,-48,-37,-39,-45,-45,-32,-30,-31,-21,-4,-10,-22,-18,-20,-9,-11,-13,-8,-14,11,83,80,64,60,-8,-56,-36,-29,-35,-42,-43,-58,-299,-724,-142,1908,2850,1148,-24,-477,-707,-559,-464,-463,-419,-371,-337,-303,-263,-241,-212,-183,-166,-143,-134,-134,-126,-123,-110,-86,-68,-60,-40,-26,0,18,7,-24,-42,-43,-37,-35,-46,-48,-33,-40,-35,-33,-31,-38,-45,-45,-42,-29,-10,-5,-8,-12,-3,0,10,9,18,22,12,11,25,11,3,7,6,69,120,93,89,84,2,-48,-21,-8,-4,1,-8,-39,-338,-574,405,2461,2194,459,-147,-379,-588,-460
2018-05-22,10:32:00.393,-356,-326,-286,-250,-222,-205,-184,-181,-161,-133,-121,-103,-99,-93,-75,-78,-56,-47,-40,-9,16,92,119,99,71,12,-27,-62,-89,-94,-102,-88,-113,-115,-105,-101,-86,-95,-68,-55,-68,-60,-42,-18,2,7,13,24,24,19,21,24,11,23,16,2,30,83,118,86,114,85,-2,-1,10,-5,-6,-15,-17,-88,-371,-382,737,2187,1033,-51,-227,-411,-515,-418,-281,-236,-223,-191,-174,-136,-117,-95,-73,-73,-48,-37,-26,-13,-27,-12,-2,19,42,53,67,72,67,41,-18,-78,-113,-133,-139,-148,-141,-134,-128,-130,-130,-117,-119,-93,-85,-79,-57,-67,-61,-64,-73,-61,-54,-44
2018-05-22,10:32:01.430,-50,-44,-32,-38,-28,-33,25,93,70,78,53,-25,-43,-27,-12,-30,-24,-13,-50,-308,-502,446,2235,1583,64,-201,-400,-545,-472,-303,-255,-213,-192,-189,-148,-130,-109,-98,-87,-57,-48,-33,-20,-10,-6,-1,21,26,49,76,78,97,55,-6,-83,-151,-174,-198,-188,-171,-156,-137,-151,-150,-140,-152,-133,-118,-99,-87,-84,-82,-83,-63,-54,-49,-30,-41,-14,-18,-30,-23,-30,-18,2,74,72,60,67,-5,-55,-44,-48,-43,-57,-49,-47,-284,-702,-79,2067,2693,747,-81,-418,-649,-555,-398,-365,-349,-304,-264,-238,-210,-193,-157,-140,-126,-102,-99,-81,-80,-68,-54,-73,-73,-54,-51
2018-05-22,10:32:02.467,-61,-58,-36,-40,-64,-106,-121,-108,-93,-87,-80,-81,-92,-92,-79,-85,-73,-68,-73,-78,-58,-31,-10,27,41,49,98,117,137,168,189,253,324,351,391,486,527,546,572,507,454,488,480,462,452,430,425,277,-160,185,1975,2893,833,-43,-117,-87,-26,139,209,215,195,188,159,139,133,120,118,108,100,86,75,56,44,57,54,37,25,-32,-89,-158,-241,-350,-478,-571,-650,-700,-702,-702,-729,-735,-772,-846,-880,-856,-807,-751,-699,-663,-619,-603,-572,-498,-472,-424,-345,-298,-278,-293,-338,-244,-158,-141,-119,-91,-149,-178,-159,-161,-141,-124,-48,-1,-194,-356,339,1935,1468,-156
2018-05-22,10:32:03.504,-219,-332,-478,-547,-634,-548,-110,174,189,173,153,69,24,22,30,82,136,193,278,356,413,513,541,503,455,359,245,38,-197,-321,-421,-506,-568,-607,-564,-537,-537,-514,-485,-464,-465,-468,-467,-412,-323,-240,-152,-74,10,29,63,87,118,147,244,297,287,266,145,36,-9,-48,1,22,-29,-26,-12,-77,55,922,1725,299,-877,-748,-319,-132,-148,-114,-98,-84,-106,-142,-190,-132,-72,-46,61,153,-200,-14,637,718,626,669,661,650,658,697,731,815,795,739,655,606,541,526,469,436,379,397,296,152,-13,-189,-320,-387,-239,-97,-20,-83,-193,-256,-292,-326,-301,-351,-175,-71
2018-05-22,10:32:04.542,-86,-58,1,-76,-133,-166,-214,-301,-363,-317,-268,-341,-353,157,497,-709,-1399,-950,-829,-664,-440,-228,-119,-59,-51,-118,-166,-206,-27,65,-3,-30,-40,-75,-142,-175,-255,-463,-360,42,217,187,252,258,-221,-278,0,234,191,193,625,347,202,355,176,549,800,737,740,438,99,234,379,580,424,246,261,229,75,-197,-528,-733,-762,-680,-498,-482,-602,-638,-572,-489,-469,-332,-277,-254,-363,-434,144,1165,263,-1035,-1040,-1267,-1196,-781,-429,-371,-411,-382,-328,-263,-50,-210,96,181,243,298,185,89,221,234,124,180,347,412,71,-748,-591,-189,89,363,257,-491,-509,371,559,473,816,452
2018-05-22,10:32:05.579,-496,-113,129,669,263,774,1994,1480,514,318,309,363,184,58,183,292,303,261,-7,-476,-817,-965,-939,-702,-570,-604,-621,-767,-504,529,1007,-359,-873,-774,-694,-524,-230,-73,-59,-83,-25,-110,-94,77,79,125,250,359,442,396,358,563,658,577,416,310,158,-292,-181,161,140,-20,-97,-382,-458,-368,-585,-1220,-760,376,558,322,309,512,711,580,491,505,344,821,1480,1461,1086,844,805,702,608,566,487,356,344,287,225,153,-122,-465,-748,-1009,-677,787,1995,114,-1130,-1166,-1102,-1059,-801,-580,-563,-646,-675,-708,-747,-648,-639,-601,-570,-557,-570,-654,-734,-704,-617,-569,-440,-242,-221,-231
2018-05-22,10:32:06.616,-177,-238,-474,-641,-1002,-866,-1339,-1261,-735,-309,-65,-139,-327,-492,-579,-709,-887,-842,-390,31,491,513,343,295,308,301,209,478,778,335,232,858,995,686,469,322,247,93,-317,-337,1076,3128,2128,492,-397,-796,-847,-733,-433,-177,-126,-161,-184,-203,-207,-242,-229,-201,-189,-162,-133,-150,-93,-29,2,-77,80,307,209,78,-78,-325,-571,-802,-1048,-1116,-980,-842,-767,-642,-385,-81,142,0,-124,-132,-160,-182,-177,-271,-442,-585,-443,-154,513,557,340,313,162,-370,-654,-160,227,433,453,148,-29,-647,-764,294,2582,3071,1318,101,-446,-497,-530,-436,-410,-377,-277,-167,-156,-210,-280,-495,-656,-688
2018-05-22,10:32:07.653,-435,5,200,177,114,97,115,128,146,213,244,294,203,37,-79,-145,-158,-230,-226,-201,-251,-224,-206,-362,-392,-274,-179,-51,29,87,-21,-15,47,66,194,493,603,571,484,266,187,188,178,-30,-429,-664,-581,-93,654,885,1481,2999,2218,751,-439,-553,-439,-142,541,595,-112,-322,-307,-615,-206,322,537,332,164,66,-31,26,79,221,166,-73,-296,-440,-482,-226,-33,-174,-311,-372,-444,-499,-522,-535,-506,-479,-558,-625,-538,-496,-486,-397,-378,-542,-485,-248,-233,-152,-83,-76,-12,-17,445,652,300,24,98,168,35,206,310,82,-234,-473,32,993,2770,2212,549,-363,-1747,-1374,712,1260
2018-05-22,10:32:08.691,521,432,524,482,444,-146,-702,254,1073,513,405,1008,786,323,342,382,277,252,298,354,376,383,387,110,-445,-785,-860,-847,-612,-368,-419,-572,-623,-552,-440,-400,-357,-292,-224,-226,-271,-241,-229,-279,-220,-154,-140,-125,-288,-351,-309,-346,-304,-244,-132,-53,-110,-190,19,1223,1933,407,12,345,446,429,448,532,498,384,257,-59,65,479,282,450,1187,1420,1171,861,736,688,647,587,563,768,698,842,1217,1384,1300,991,689,485,299,118,61,70,18,-74,-119,-233,-223,-375,-430,-410,-243,-129,-128,-207,-274,-166,-104,-214,-359,-425,-563,-698,-794,-851,-882,-903,-955,-1074,-1304,-1037,223,302
2018-05-22,10:32:09.728,-1830,-2354,-2106,-1816,-1418,-1076,-802,-604,-567,-572,-398,-304,-344,-291,47,198,-108,-161,-10,50,41,14,30,43,67,81,95,153,189,108,75,90,45,-10,-251,-580,-297,69,262,158,-53,-205,-416,-520,-467,-293,-143,-167,-254,-306,-223,-210,-216,-200,-151,-147,-157,-109,-183,-328,-381,-390,-490,-618,105,1875,1977,495,-13,-151,-391,-564,-378,-273,-292,-306,-238,-201,-197,-160,-129,-96,-80,-21,80,145,228,317,349,347,436,477,423,441,485,267,-17,-84,79,333,215,14,-86,-73,-18,-3,12,-203,-434,1,352,290,219,354,377,64,-379,-330,-55,410,706,480,181,126,234,250,-21,36
2018-05-22,10:32:10.765,-31,-517,-951,143,2536,2353,724,182,-222,-429,-408,-244,-115,-69,-157,-335,-448,-620,-555,-429,-230,-47,60,74,45,16,59,102,101,86,114,116,186,169,53,-116,-195,-243,-317,-383,-435,-493,-495,-443,-412,-333,-296,-202,-153,-168,-160,-226,-208,-151,-241,-165,120,362,208,103,-5,23,-394,-858,-703,-734,517,1006,570,1594,2724,1435,-172,-1020,-283,293,97,178,45,-244,-436,-500,-246,268,215,38,1,-82,-175,-152,-66,27,191,85,-457,-323,139,-99,-118,23,-3,-203,-422,-528,-585,-577,-600,-718,-693,-644,-610,-539,-373,-204,-45,32,36,42,90,131,217,191,155,203,273,230,210,195
2018-05-22,10:32:11.802,216,166,101,-55,-491,-346,869,2713,2566,595,-45,-147,-241,-481,-135,-359,-513,175,1218,1166,430,24,-56,-4,92,185,238,186,-192,-845,-433,683,1311,1119,739,512,426,276,148,-11,-123,-163,-199,-244,-393,-643,-779,-704,-582,-416,-290,-214,-207,-219,-172,-154,-262,-180,-235,-259,-268,-318,-381,-399,-413,-415,-423,-415,-475,-557,-379,541,1042,-788,-1935,-1531,-1291,-939,-435,11,111,136,139,130,176,268,410,541,447,325,341,360,354,265,141,95,-28,-38,191,186,-146,317,1078,1090,664,212,-39,-99,-74,14,91,171,256,224,174,169,168,161,150,114,164,212,235,144,-69,-270,-248,-140
2018-05-22,10:32:12.840,-104,-12,117,136,1,-435,-469,832,2631,1545,14,-482,-702,-907,-778,-627,-608,-616,-614,-583,-570,-526,-492,-444,-376,-366,-397,-397,-172,19,98,17,-22,12,-9,-113,104,317,186,-178,-273,-284,-292,-310,-332,-420,-617,-810,-910,-859,-88,727,808,564,225,-107,-273,-141,-104,-423,-144,673,463,172,189,180,75,-16,-202,-647,-758,548,2590,1755,276,-289,-640,-901,-901,-852,-894,-810,-574,-270,-153,-144,-200,-258,-283,-315,-273,-173,-93,-33,23,79,136,169,226,260,262,240,180,33,22,-110,-308,-324,-320,-388,-340,-208,-212,-328,-348,-180,-91,-218,-299,69,374,243,233,227,50,-384,-318,-68
2018-05-22,10:32:13.877,-293,89,798,454,-200,-46,1605,2105,358,372,968,575,2,-113,-358,-618,-468,-371,-63,385,839,599,407,151,32,101,97,98,142,87,-180,-929,-1027,250,508,440,275,105,-128,-372,-555,-707,-839,-817,-685,-627,-527,-481,-501,-388,-358,-288,-231,-115,0,25,-4,63,79,-6,27,29,136,274,268,153,-58,140,1571,2149,177,-600,-700,-808,-532,-123,7,-156,107,-38,-571,-116,756,1042,767,328,160,204,447,356,-331,247,1065,921,706,941,709,455,624,605,475,512,188,-142,-231,-279,-317,-313,-283,-249,-360,-737,-1008,-1015,-817,-549,-271,-257,-396,-417,-403,-406,-321,-223,-230,-230,-207,-320
2018-05-22,10:32:14.914,-484,85,1614,696,-1432,-1464,-1187,-962,-669,-313,-178,-174,-181,-164,-145,-16,159,112,74,77,100,65,124,175,155,-73,264,551,558,476,457,384,276,-16,-94,140,293,385,284,115,212,345,-6,-608,-234,442,436,290,352,480,419,385,470,431,301,196,119,55,30,2,-293,-566,316,2381,2179,132,-813,-1155,-1118,-776,-389,-253,-215,-103,38,136,172,137,112,180,197,161,208,221,189,172,206,205,158,139,75,-3,-171,-339,-441,-575,-794,-1003,-1039,-989,-1000,-938,-781,-763,-851,-747,-514,-285,-132,-255,-112,123,291,307,208,104,35,47,93,144,112,-250,-212,1307,3764,2906,1301,717
2018-05-22,10:32:15.951,21,-502,-533,-464,127,607,547,385,239,117,121,148,158,148,106,42,-10,-39,-72,-47,95,133,174,176,173,54,-124,-195,-220,-222,-131,-136,-269,-334,-297,-240,-227,-199,-180,-141,-124,-61,36,58,14,-29,-77,-178,-259,-273,-266,-307,-340,-427,-378,220,872,-685,-2058,-1781,-1523,-1155,-654,-125,-11,-22,-108,-102,70,408,622,431,342,356,385,339,296,272,88,-385,-170,603,881,777,645,530,365,22,-158,-139,-501,-600,-45,125,-11,-119,-396,-240,-261,-323,-27,-46,-180,-230,9,189,26,-174,-212,-106,-55,-132,-375,-852,-1035,93,1524,255,-852,-840,-742,-701,-442,-311,-283,-274,-216,-85
2018-05-22,10:32:16.989,-69,-99,27,98,107,162,175,222,270,191,198,247,239,343,370,347,307,364,356,286,133,-144,-505,-628,-645,-587,-502,-590,-441,-391,-480,-979,-1470,-1213,931,1510,800,311,-87,-332,-283,-455,-922,-137,489,257,477,516,48,105,224,-103,-80,212,175,237,262,144,71,86,138,240,67,-540,-999,-685,-605,-647,-529,-512,-495,-470,-448,-424,-411,-316,-306,-300,-214,-201,-145,-115,-69,-31,56,142,209,203,204,121,36,-132,-169,-106,2,78,11,169,1031,1900,383,-947,-541,-216,-315,-69,397,415,175,-98,-45,-101,-170,125,-139,331,910,626,139,-73,122,257,160,-58,-96,657,1200,996
2018-05-22,10:32:18.026,1012,940,765,630,474,293,123,61,-4,-56,-57,-74,-129,-215,-472,-720,-649,-366,-191,-97,-31,-31,-28,106,171,88,6,12,-86,-276,436,2150,1521,-494,-875,-963,-1034,-879,-537,-463,-429,-336,-367,-360,-382,-469,-487,-405,-304,-96,92,85,8,-169,-113,-11,42,-190,-98,193,226,98,43,-20,-149,-155,-330,-677,-690,-73,687,603,293,80,7,46,190,310,186,353,555,384,271,246,211,114,19,-179,-630,-213,1656,2411,884,49,-335,-637,-1207,-1347,-1093,-733,-393,-141,-27,-56,-118,-99,2,20,8,52,101,167,223,263,325,312,319,302,309,346,356,199,31,-107,-350,-566,-669,-755
2018-05-22,10:32:19.063,-714,-732,-684,-627,-553,-571,-514,-368,-360,-225,138,141,0,97,196,165,119,-30,-660,-861,365,2396,1869,916,587,111,-229,-247,-358,-590,-380,-209,13,108,83,242,218,95,32,26,2,11,131,174,134,33,54,77,109,213,256,46,-285,-524,-613,-579,-409,-327,-283,-283,-280,-259,-238,-224,-213,-68,166,229,210,168,71,9,-16,-25,-63,-77,-108,-225,-101,819,1402,-305,-1193,-863,-709,-610,-348,9,111,107,-167,-132,141,230,-25,9,133,137,84,-29,-12,-159,-463,172,520,1071,1188,757,502,481,428,16,-332,-125,470,645,595,350,111,10,-316,-316,-95,-63,0,107,10,-24
2018-05-22,10:32:20.100,13,-52,-73,-173,-469,-654,-819,-872,-971,-593,1027,1924,-222,-1459,-1314,-1054,-809,-371,-172,-116,-44,-54,-58,-28,18,122,145,108,130,153,168,140,165,218,341,375,463,427,385,333,214,112,-179,-494,-252,-145,-388,-282,-199,-352,-494,-773,-597,139,557,477,374,277,60,-129,-212,-25,60,34,-161,-307,-466,-454,631,2180,2734,1463,560,55,-203,-345,-231,-142,-105,-114,-34,59,96,-39,-411,-687,-684,-451,-170,77,224,205,195,262,266,244,263,345,453,444,329,198,43,-171,-316,-495,-557,-550,-628,-644,-612,-621,-637,-621,-455,-331,-254,-216,-255,-322,-403,-576,-749,-594,-288,-291,-899,-41
2018-05-22,10:32:21.138,2215,2171,57,-611,-772,-727,-771,-502,372,811,528,239,31,-413,-282,397,506,409,510,530,426,180,-6,309,710,601,385,298,246,231,219,167,148,67,-38,-141,-501,-975,-1197,-977,-565,-327,-231,-216,-215,-121,-66,11,99,29,-39,-56,-101,-136,-165,-249,-391,-340,573,1668,10,-1691,-1608,-1314,-1010,-591,-143,-93,-148,-106,-11,79,32,9,62,-149,-154,192,330,0,102,477,613,558,476,421,357,246,166,72,61,230,67,161,446,469,319,157,31,-290,-669,-252,283,214,568,773,609,428,301,187,109,60,40,12,-30,-375,-642,296,2350,2111,306,-411,-793,-1074,-1002,-656,-430,-251
2018-05-22,10:32:22.175,-176,-123,-76,-21,-5,0,47,204,322,315,308,269,212,184,206,210,164,159,215,173,56,-48,-177,-422,-573,-616,-764,-776,-701,-669,-647,-576,-751,-585,-245,-85,-199,-113,-33,-139,-229,-202,-189,-520,-756,-465,-831,-102,1488,3227,2222,707,0,-455,-663,-271,128,-15,-55,-49,64,-4,216,485,291,321,345,37,155,187,227,258,181,130,177,265,261,89,-155,-426,-582,-748,-741,-560,-456,-491,-564,-558,-481,-462,-412,-333,-281,-259,-154,-134,-162,-208,-231,-272,-221,-102,-13,-10,-58,-172,-162,595,1379,87,-824,-617,-620,-361,16,305,339,155,-152,-70,216,164,-27,226,252,10,-408,-509
2018-05-22,10:32:23.212,-52,592,1118,840,389,142,-391,-767,-188,625,730,1288,1459,544,163,-190,-972,-1091,-228,812,877,466,216,14,69,146,142,169,16,-445,-1182,-1032,-510,-517,-423,-305,-412,-104,925,1224,-476,-1173,-955,-646,-382,-51,155,189,253,289,261,284,299,256,205,263,229,242,261,307,345,417,555,485,377,348,87,-109,145,37,-442,-488,-353,-426,-944,-562,-168,335,289,12,-174,-172,-616,-669,623,1055,836,761,650,538,156,-38,474,503,206,105,282,1563,3204,1942,566,-90,-415,-592,-419,-191,-377,-768,-977,-912,-589,-301,-163,-101,-105,-112,-74,4,58,82,104,151,179,241,263,232,242,276
2018-05-22,10:32:24.250,232,27,-139,-334,-623,-764,-834,-908,-939,-893,-836,-828,-799,-706,-519,-417,-446,-515,-646,-785,-551,-309,-442,-217,188,209,-317,-461,1134,3182,1767,-25,-1010,-877,-569,-84,488,403,113,-43,-58,-102,-193,-248,-51,310,557,523,359,281,269,210,121,97,71,50,5,2,20,-35,-106,-343,-828,-1127,-1060,-838,-562,-414,-352,-303,-265,-189,-186,-155,-86,-94,-139,-178,-275,-319,-339,-387,-432,-418,-381,-489,-427,576,1156,-674,-1735,-1549,-1288,-970,-590,-336,-281,-252,-213,-133,-185,-320,-290,-84,288,477,259,261,330,295,255,271,230,44,-357,-621,-31,464,982,1062,627,196,-72,-360,-500,-353,-405,-380
2018-05-22,10:32:25.287,-73,75,200,193,122,113,99,112,91,-25,-92,-96,-99,-81,-36,-76,-494,-791,476,2597,1159,-773,-1080,-983,-810,-405,-305,-292,-232,-213,-182,-130,-102,-75,-57,-58,-33,40,126,191,206,252,353,371,448,563,579,502,399,405,414,139,-96,-259,-293,-663,-806,-431,-97,-133,-340,-452,-265,-76,-355,-82,485,534,95,-219,73,137,-522,-542,161,98,-362,527,2680,2217,770,-186,-246,-223,64,284,136,22,-36,-76,-143,-157,-124,-95,-48,-85,-159,-377,-583,-552,-135,292,403,409,373,331,324,261,89,6,-87,-159,-176,-193,-195,-162,-147,-161,-158,-176,-265,-297,-166,-99,-154,-140,-69,-122
2018-05-22,10:32:26.324,-139,-91,-65,-53,-79,-273,-435,-12,1618,2487,560,-461,-679,-897,-1302,-384,590,433,154,155,165,143,7,-146,-204,-268,-27,445,552,538,455,381,392,305,421,117,503,1385,1171,508,301,140,-50,-184,-200,-215,-259,-535,-661,-339,-624,-597,-279,95,256,323,231,28,-118,-154,-39,-28,-145,-299,-24,137,55,-47,-126,-41,2,-7,92,212,378,642,721,853,940,931,1144,1263,1276,1318,1264,1274,1191,907,657,223,665,1810,1913,2156,2315,1881,1541,1421,1332,1045,817,770,683,453,426,431,478,560,361,96,-163,-454,-68,1490,2834,1213,-435,-931,-1111,-1211,-1095,-1022,-1168,-1142,-971,-869,-731,-524
2018-05-22,10:32:27.361,-491,-526,-611,-979,-791,454,1583,1724,1076,326,-230,-652,-1152,-1489,-1381,-998,-452,417,726,-142,-807,-1050,-1104,-1399,-1709,-1872,-1930,-1869,-1798,-1744,-1686,-1652,-1429,-1359,-1303,-1312,-1428,-1467,-1455,-1357,-1243,-1180,-1138,-1590,-2118,-597,2453,2580,107,-723,-1160,-1511,-1960,-2110,-1509,-1167,-1144,-520,-291,-416,-426,-435,-624,-388,-271,-214,233,432,437,298,248,236,228,198,178,181,203,141,113,9,-289,-578,-753,-716,-413,-89,25,30,1,-36,-67,-4,-12,-54,-19,10,-29,-61,-53,-34,-71,-52,-71,-240,-54,1110,1674,-271,-1128,-892,-626,-486,-178,-29,-55,4,77,126,174,244,220,114,527,823,514,554,668,582
2018-05-22,10:32:28.398,480,407,340,259,263,185,285,300,122,-74,-4,230,532,519,108,-261,-811,-873,-236,-46,108,391,425,298,230,220,140,-23,-243,-361,-30,42,-64,-176,-582,-370,1505,2962,1045,-580,-1278,-1118,-1130,-453,441,429,109,-67,-155,-243,-273,-287,-250,-124,-79,-23,66,188,290,414,543,603,586,586,572,537,404,240,70,-176,-421,-590,-542,-411,-386,-426,-444,-375,-240,-208,-52,163,107,49,123,-54,-69,-7,-342,-477,-186,-240,-179,-86,527,1799,1749,1034,150,-855,-274,284,-105,-487,-381,-240,187,36,67,476,494,288,-34,19,473,346,162,163,213,257,291,117,-162,-3,20,0,-81,-166
2018-05-22,10:32:29.436,-232,-323,-467,-597,-578,-555,-593,-537,-461,-381,-298,-132,46,122,147,58,-59,-47,-45,4,-16,-10,-87,-149,-10,1021,1849,203,-696,-660,-551,-498,-305,72,147,27,206,286,163,68,-88,-683,-1044,-305,1359,1639,820,278,162,187,126,204,14,271,789,756,550,648,515,317,271,107,-37,-75,-131,-162,-164,-144,-64,-7,35,-224,-652,-715,-556,-358,-205,-133,-146,-224,-331,-508,-517,450,2101,1034,-574,-694,-602,-614,-395,-153,-83,-2,58,78,68,92,58,-28,-48,-66,-6,-14,38,40,153,297,338,332,359,281,205,34,-432,-386,-154,-141,-302,-510,-556,-457,-535,-1045,-883,65,373,294
2018-05-22,10:32:30.473,327,348,257,-107,-181,-36,-21,441,740,690,542,195,-248,82,1814,2763,1494,503,-16,-266,-295,-105,-70,-113,-179,-332,-615,-667,-511,-266,49,246,336,307,278,226,184,207,264,303,273,292,295,238,148,-3,-182,-368,-522,-560,-598,-639,-700,-704,-683,-667,-702,-681,-448,-311,-277,-263,-429,-442,-444,-649,-569,-122,179,-313,-717,11,2224,2881,764,-235,-560,-716,-616,-487,-215,-309,-451,44,379,494,580,447,209,4,-236,-448,-269,0,198,472,586,433,358,305,251,239,167,73,-14,-145,-216,-197,-263,-480,-712,-844,-684,-493,-372,-223,-119,-178,-236,-206,-240,-280,-237,-223,-171,-194,-260,-453
2018-05-22,10:32:31.510,-493,578,2296,786,-936,-980,-797,-706,-285,1,-1,19,14,4,146,314,248,256,198,189,116,125,327,371,162,215,223,148,121,119,35,-179,-708,-814,-373,134,549,592,160,-154,-254,-310,-396,-521,-403,-221,141,330,418,570,312,-12,-219,305,507,275,56,-326,-15,1649,2244,798,-131,-700,-993,-1111,-814,-585,-459,-319,-236,-220,-251,-288,-272,-192,-92,33,104,133,138,199,242,308,331,431,425,292,212,159,84,-89,-264,-391,-421,-427,-421,-399,-320,-267,-252,-268,-335,-130,-110,-135,-205,-367,-497,-320,-376,-405,29,256,-196,-693,85,2346,1855,-53,-271,-117,29,-60,-109,-166,-452,-528
2018-05-22,10:32:32.548,-552,-185,353,822,752,382,179,121,77,80,152,220,314,308,96,-350,-137,82,-81,-88,-92,-229,-383,-518,-612,-603,-579,-568,-494,-382,-402,-391,-268,-117,-91,16,46,-30,-25,-8,-26,7,24,14,-112,154,1185,1536,-152,-830,-567,-397,-300,-144,52,235,125,56,-31,25,8,-56,93,190,125,159,159,-346,-668,166,854,577,284,534,686,584,117,-156,195,-607,-191,881,580,114,-36,-78,-105,-142,-160,-80,-5,31,102,83,-221,-656,-784,-587,-308,-105,-72,-267,-29,1318,1396,-212,-565,-422,-264,-129,53,95,103,138,167,131,112,111,153,140,281,350,286,297,295,201,151,137
2018-05-22,10:32:33.585,137,145,122,182,205,-74,-348,-248,-432,-775,-584,-379,-367,-468,-501,-450,-463,-481,-331,-131,1,102,126,69,359,458,296,182,40,583,577,39,752,3126,3174,1485,355,-441,-596,-437,-244,-302,-438,-483,-501,-522,-488,-447,-402,-364,-385,-418,-576,-754,-549,-178,-107,-37,90,-11,-121,-162,-247,-338,-453,-581,-608,-635,-630,-631,-573,-601,-631,-569,-447,-367,-197,-51,25,44,-55,-148,-163,-145,-80,36,67,-65,-138,226,1061,95,-1485,-1323,-945,-674,-322,167,106,321,923,1052,705,688,749,691,545,450,374,274,229,37,-275,-218,-182,366,1054,1176,850,556,346,45,-308,-558,-411,105,308,270
2018-05-22,10:32:34.622,282,121,21,-4,17,78,107,110,-16,-72,-107,-66,-32,-55,-235,-659,-1229,-1064,617,1946,493,-548,-700,-701,-625,-289,-132,-94,-46,19,49,0,1,61,52,56,86,126,152,178,267,296,288,311,228,176,227,209,104,-9,-137,-234,-343,-582,-718,-589,-446,-421,-471,-372,-300,-194,-174,-236,-465,-669,-214,-43,126,479,514,273,14,-524,-843,451,2771,2302,1553,968,433,-1,-335,-25,261,-288,0,433,153,101,117,75,48,81,99,41,-57,-272,-150,-110,111,490,752,822,679,404,82,-273,-485,-604,-715,-800,-791,-759,-735,-693,-611,-524,-309,-188,-132,-94,-71,-130,-114,-88,-110,-85
2018-05-22,10:32:35.659,-38,-38,-96,28,1152,1888,246,-672,-1011,-807,-639,-429,-78,8,-236,-142,-55,-166,-76,-175,-219,-286,-527,-250,189,470,295,102,92,180,56,-477,-388,-350,130,1037,614,40,-48,-227,-384,-457,-466,-479,-401,-322,-310,-523,-1008,-1076,-742,-432,-351,-322,-213,-146,-174,-241,-436,-438,459,1743,680,-597,-640,-619,-577,-309,-95,-134,-144,-59,-10,-52,-37,-63,-82,-75,2,78,215,343,311,267,164,-175,-172,-158,-360,-418,-98,-155,-378,-550,-624,-672,-801,-755,-709,-668,-228,156,308,130,-58,-124,-86,-352,-571,13,661,410,103,266,289,-294,-242,1445,2966,1747,515,-101,-334,-497,-269,-122,-223,-341
2018-05-22,10:32:36.697,-560,-464,-271,-124,-66,-23,-20,-71,-127,-84,37,96,84,99,35,27,100,131,102,20,-101,-291,-474,-517,-536,-513,-545,-590,-566,-565,-544,-463,-327,-269,-185,-113,-101,-184,-317,-510,-452,-218,-136,-478,-694,484,2812,2465,405,-329,-548,-794,-802,-140,222,242,393,459,361,190,51,-312,-619,60,445,291,317,312,289,332,270,143,383,591,488,389,301,176,30,-10,-35,-57,-114,-317,-499,-504,-328,-75,189,346,391,376,334,241,173,150,190,200,183,75,-162,289,1817,1674,-306,-685,-682,-647,-465,-139,14,46,38,-9,-86,-84,-78,-15,63,179,260,268,160,11,14,387,650,444
2018-05-22,10:32:37.734,440,305,248,141,60,-52,-458,-854,-849,-723,41,780,659,185,-66,-186,-150,-312,-494,-228,-97,-92,86,344,307,117,-224,-435,-443,-237,1357,2902,1322,25,-485,-715,-745,-542,-443,-445,-590,-460,-303,-225,-178,-133,-77,-79,-114,-86,-20,52,119,143,157,178,185,208,261,307,211,78,-109,-264,-325,-425,-394,-313,-254,-196,-126,-94,7,186,104,30,106,-19,-391,-329,-150,-17,-31,132,-221,-520,168,1612,1356,-421,-612,91,57,1,6,-80,-163,-61,10,8,-79,-412,-89,141,70,166,314,435,465,351,333,372,408,343,277,216,180,152,65,-149,-643,-975,-791,-501,-349,-199,-51,-31
2018-05-22,10:32:38.771,-89,-32,-31,-126,-127,-115,-81,-48,17,86,115,99,-99,-172,636,2024,707,-1058,-1001,-796,-670,-390,90,303,247,185,287,249,84,175,220,161,167,0,114,123,-150,-152,130,-29,-481,-228,-413,-94,712,636,0,-282,-219,-118,-82,-277,-804,-911,-376,39,849,949,613,374,311,258,110,9,-19,-3,14,19,-113,-584,-395,1531,2273,-546,-1587,-1363,-1109,-736,-300,-240,-178,-70,-25,13,70,135,114,68,80,83,136,246,270,321,481,471,439,370,268,170,53,-85,-168,-196,-316,-494,-620,-784,-590,-305,-875,-906,-392,-113,-139,-293,-309,-400,-730,-937,-576,127,661,547,46,-745,-768,1069
2018-05-22,10:32:39.808,3108,1851,854,412,354,-204,-92,500,477,279,185,116,95,106,109,74,75,96,75,-7,-348,-694,-625,-326,-3,205,231,189,157,135,122,61,-65,-125,-199,-256,-242,-266,-299,-314,-306,-306,-175,-387,-486,-136,-153,-437,-545,-430,-440,-413,-290,-277,-440,146,1669,762,-585,-477,-683,-635,-416,-243,-231,-215,-197,-222,-316,-323,-102,-5,12,-27,142,440,410,247,396,483,29,-446,230,857,943,807,579,363,194,67,-65,-137,-160,-176,-167,-140,-143,-48,90,-127,-427,-613,-549,-450,-295,-187,-199,-255,-284,-425,-564,251,1889,1176,-483,-794,-729,-660,-323,-123,-55,14,84,137,170,198,181,211
2018-05-22,10:32:40.846,273,240,217,205,215,139,131,112,133,287,316,165,-134,-259,-216,-259,-228,-75,-150,-284,-403,-460,-417,-323,-255,-196,-134,-54,-213,-209,-35,-222,-227,61,121,168,184,-127,-947,-950,818,2224,1124,574,619,257,-114,-275,-382,-601,-352,-149,76,600,579,174,109,206,154,-29,-307,-404,-87,49,80,121,136,78,12,-47,-172,-279,-358,-374,-403,-450,-514,-472,-449,-372,-301,-301,-229,-113,-68,-28,-86,-161,-241,-230,-86,-29,15,75,-50,35,1234,1839,-138,-1053,-878,-776,-606,-304,-62,124,43,-236,-199,-311,-218,-531,-738,504,889,313,257,362,282,235,73,-387,59,341,852,1028,1065,1220
2018-05-22,10:32:41.883,642,149,111,29,-65,-140,-182,-161,-33,-24,0,-442,-718,-663,-630,-587,-490,-261,-221,-240,-260,-394,-686,-325,1369,1906,-438,-1019,-838,-735,-528,-93,92,108,186,253,305,279,286,237,245,287,326,438,467,494,536,537,539,360,308,137,-160,-203,-17,-176,-493,-782,-859,-851,-977,-533,477,720,308,-61,-170,-203,-192,-129,-20,-20,-117,-213,-540,-231,-29,495,369,338,1597,2493,1196,306,-73,-274,-371,-166,-39,55,112,73,-98,-318,-415,-263,73,242,242,267,259,284,375,437,496,577,597,600,668,588,420,227,-7,-217,-318,-336,-327,-343,-363,-388,-421,-417,-292,-257,-245,-193,-182,-294
2018-05-22,10:32:42.920,-243,-223,-266,-330,-439,-665,-622,89,1791,1169,-687,-846,-752,-800,-633,-346,-432,-461,47,614,661,463,181,135,124,-11,-601,-463,236,530,448,320,290,304,356,402,426,387,220,37,-107,-193,-238,-260,-228,-225,-255,-555,-916,-798,-519,-450,-331,-189,-190,-263,-258,-179,-187,-157,-203,-521,-572,736,2373,1001,-445,-821,-1006,-1052,-734,-529,-551,-514,-476,-448,-398,-414,-451,-432,-378,-346,-264,-150,-42,-92,-177,-208,-148,-93,-12,-251,-448,-452,-457,-485,-504,-514,-793,-777,-357,-442,73,368,454,479,307,66,-106,-155,-238,-487,-91,46,-52,224,204,-252,31,1674,2210,815,56,-355,-511,-484,-305,-203
2018-05-22,10:32:43.957,-129,-148,-299,-563,-629,-447,-203,-45,24,66,93,131,193,267,333,386,436,459,458,404,306,139,-40,-126,-234,-360,-340,-348,-356,-295,-209,-218,-166,9,169,261,133,-18,-73,-140,-295,-259,-177,-77,-323,-560,554,2590,1546,-158,-540,-476,-688,-1351,-627,362,548,376,188,5,-24,-142,-292,-363,-32,377,375,564,642,497,434,465,529,516,414,301,187,91,-12,-86,-163,-239,-401,-576,-623,-401,-186,-110,-6,32,-104,-226,-313,-375,-312,-237,-184,-201,-234,-322,-594,-219,1796,2005,-382,-868,-774,-661,-409,76,194,122,144,208,384,430,342,340,367,351,266,0,34,180,124,355,438,311
2018-05-22,10:32:44.995,233,138,-20,-169,-188,-154,153,475,296,-83,-383,-518,-403,-579,-794,-194,301,177,511,679,462,287,209,90,6,50,86,-381,-289,1194,2300,947,-277,-1064,-1401,-1208,-646,-238,-31,53,47,43,48,32,-38,-75,2,128,117,118,223,327,316,387,419,391,422,311,131,-43,-196,-453,-627,-633,-559,-535,-519,-437,-338,-313,-373,-591,-526,-55,214,41,193,181,81,58,72,22,-323,-601,294,2318,2252,744,220,-33,-470,-408,274,496,112,-152,-120,157,0,-277,20,251,318,252,111,4,-7,-12,-17,1,16,90,131,122,31,-232,-368,-343,-334,-347,-365,-331,-236,-111,-65,-113,-138,-58
2018-05-22,10:32:46.032,-65,-144,-188,-308,-433,-511,-526,-498,-488,-491,-565,-447,470,781,-1129,-2074,-1741,-1398,-974,-382,85,128,82,106,67,-133,-219,90,504,290,358,335,152,94,170,258,179,-326,-248,447,603,760,836,474,128,-72,-413,-500,-188,121,247,225,161,116,142,152,103,85,-7,-45,-90,-90,-31,-61,-369,-949,-1236,6,1964,1272,-292,-550,-495,-434,-120,4,51,87,84,107,111,79,76,90,78,91,112,122,114,130,170,176,126,66,26,-29,-165,-300,-430,-503,-584,-647,-761,-878,-706,-355,-70,96,107,135,142,63,3,-9,-49,-74,-31,3,-88,-306,-710,-1069,-449,1686,3169,1578,392,64
2018-05-22,10:32:47.069,-368,-957,-880,-260,159,323,327,196,171,134,59,-48,-166,-182,-9,88,79,82,162,279,231,53,-132,-282,-253,-322,-293,-274,-315,-335,-391,-436,-405,-351,-347,-322,-271,-224,-199,-162,-159,-225,-260,-225,-182,-116,-68,-11,-121,92,1412,1485,-601,-1049,-645,-421,-316,146,423,453,454,188,223,337,326,318,518,459,307,39,-422,-58,225,522,1017,824,125,231,337,210,-237,-287,-18,-261,-468,-48,265,90,336,779,573,448,528,439,358,220,126,124,143,194,205,-127,-192,-580,-485,1148,1603,-336,-887,-758,-675,-499,-153,-75,-119,-92,-10,52,94,156,261,380,383,382,354,346,412,501
2018-05-22,10:32:48.106,481,601,709,549,524,491,312,150,-54,-237,-378,-471,-839,-824,-421,-323,-602,-457,-253,-450,-511,145,647,572,277,-179,-617,-751,-105,-41,-718,-766,856,2797,2038,779,-540,-1001,-691,-340,-194,-341,-462,-532,-607,-594,-576,-494,-415,-443,-560,-946,-1010,-794,-582,-312,-167,-176,-247,-260,-294,-402,-414,-519,-708,-749,-801,-859,-813,-732,-735,-709,-693,-571,-452,-433,-437,-469,-586,-730,-745,-671,-597,-491,-493,-450,-97,1202,951,-1030,-1460,-1177,-696,-502,-300,-104,39,36,17,-34,-84,-73,-112,-299,-205,-183,-153,293,925,1124,823,530,446,409,319,236,59,436,608,296,318,410,277,126,142,180,174,291
2018-05-22,10:32:49.144,400,401,404,229,-145,-247,-133,66,197,301,272,-46,68,1362,2301,1006,100,-65,-152,-189,-2,72,33,21,46,28,59,169,93,162,235,199,241,248,189,141,162,240,334,276,256,269,114,-206,-522,-471,2,296,247,251,177,35,-71,-71,-31,104,184,73,-52,192,268,99,-14,-49,-400,-731,-763,-40,1618,3654,2809,1064,19,-361,-611,-540,-395,-395,-392,-332,-354,-411,-350,-286,-251,-234,-241,-270,-327,-333,-137,174,425,537,462,340,203,27,-187,-326,-429,-468,-502,-519,-462,-462,-447,-391,-334,-264,-201,-166,-109,-1,53,32,-10,-8,-1,65,72,55,77,130,85,-36,-65,-107
2018-05-22,10:32:50.181,-29,201,213,223,315,214,70,73,74,64,45,-276,-456,-231,-437,143,984,924,409,55,-198,-756,-986,-22,774,799,520,310,83,5,23,-4,-34,-175,-568,-393,1066,2198,1077,83,-578,-1094,-1294,-861,-478,-416,-435,-209,-99,-198,-299,-316,-313,-290,-243,-215,-204,-141,-119,-72,31,129,235,282,326,374,301,203,121,-5,-114,-166,-221,-250,-196,-189,-191,-190,-196,-252,-132,-26,95,39,24,45,-83,-306,-296,-372,-590,-371,967,2517,1409,333,-234,-439,-448,-403,-799,-1039,-54,255,169,193,138,-35,-171,75,239,164,201,158,62,49,177,278,293,17,-79,-250,-614,-720,-614,-371,-262,-300
2018-05-22,10:32:51.218,-373,-524,-572,-561,-516,-409,-236,-178,-156,-99,-108,-156,-120,-85,-93,-85,-36,-154,-80,938,1435,-337,-943,-520,-323,-211,215,345,355,368,193,19,335,451,159,268,233,-336,-457,102,417,598,604,603,506,71,-390,90,493,79,-1,441,-415,-929,327,673,174,-252,-146,-169,341,611,387,281,134,-20,-70,-47,-63,-45,-170,-610,-525,982,1579,-351,-886,-607,-451,-229,170,317,341,370,416,430,384,297,226,186,140,100,76,105,113,140,166,240,261,203,179,76,58,-67,-189,-318,-424,-541,-585,-569,-734,-727,-320,-213,-495,-299,17,-28,-161,-189,-173,-215,-225,-360,-477,-798,-347,2188
2018-05-22,10:32:52.255,4443,2543,850,40,-504,-1199,-1238,-383,510,425,110,-7,-28,-60,-118,-160,-193,-230,-254,-256,-225,-153,-107,-95,-91,-148,-328,-425,-361,-368,-290,-202,-235,-365,-438,-428,-398,-328,-255,-148,-63,-66,-118,-177,-251,-322,-313,-271,-206,-125,-176,-312,293,1526,194,-1702,-1516,-1133,-836,-508,-82,-1,36,97,114,143,140,-100,-116,309,649,518,485,538,532,408,345,256,241,216,158,46,-21,-205,-200,25,136,94,-24,-217,-781,-1036,-481,-398,423,873,446,57,-60,-72,-70,-114,-175,-258,-590,-729,286,1999,1351,79,-464,-740,-1151,-1287,-1100,-786,-468,-245,-102,-117,-174,-144,-104,-80,-49,-11,20,35
2018-05-22,10:32:53.293,51,109,121,157,241,256,224,125,-6,-172,-352,-468,-483,-562,-600,-572,-457,-444,-318,-73,-135,-221,-280,-436,-535,-364,-152,-105,-92,-228,-721,-311,1918,3105,893,-552,-1115,-977,-539,-132,40,86,1,-370,-963,-751,-618,-247,494,714,336,164,276,110,28,108,282,583,564,503,680,434,188,40,-102,-199,-264,-660,-281,23,-203,-58,446,835,840,619,355,105,-43,-118,-52,0,-75,-244,-229,859,2287,758,-680,-552,-383,-345,42,412,494,489,489,497,554,556,591,568,491,508,565,571,594,450,324,447,413,433,649,493,180,-30,-222,-420,-451,-783,-991,-684,13,777,652,79,-185,-179
2018-05-22,10:32:54.330,-170,-473,-1384,-704,-389,-182,907,535,-283,-602,207,1803,1240,-71,-550,-769,-807,-625,-520,-684,-898,-954,-710,-422,-329,-269,-207,-207,-244,-223,-153,-6,78,87,112,102,133,148,86,-29,-280,-570,-774,-810,-798,-768,-812,-762,-544,-622,-545,-510,-564,-464,-504,-557,-541,-652,-851,-521,-213,-418,-709,247,2544,2491,36,-718,-874,-534,-222,187,378,349,190,-123,-330,-234,-277,-776,-372,313,169,-64,141,242,98,110,278,319,297,351,269,116,2,-98,-118,-122,-182,-531,-784,-513,-194,89,240,222,109,18,-3,63,105,117,129,143,24,-193,517,2277,1475,-641,-859,-822,-786,-534,-159,-97,-4,76
2018-05-22,10:32:55.367,31,48,134,180,192,192,185,168,321,417,388,271,64,298,534,421,240,286,162,-17,-139,-164,-162,-185,-147,36,113,-161,-502,23,532,533,505,324,-10,-477,-727,-316,-149,-204,-56,818,2368,1826,523,-31,-356,-473,-418,-292,-260,-216,-168,-193,-412,-651,-697,-447,-115,179,326,427,494,498,480,493,489,475,431,371,272,143,3,-150,-285,-329,-354,-402,-464,-457,-388,-193,-151,-208,-287,-368,-425,-451,-385,-317,-318,-311,-438,-393,845,2214,689,-360,-469,-519,-520,-296,-148,-173,-110,-193,-274,-403,-293,106,587,614,359,99,-130,-260,-590,-603,-187,325,564,502,395,304,235,81,-81,-127
2018-05-22,10:32:56.404,-181,-307,-272,-180,-113,-40,-23,-175,-110,-134,-401,-361,-116,18,46,24,-156,-423,193,1792,1050,-824,-948,-705,-576,-251,-95,-116,-74,-10,68,482,714,786,843,889,899,877,762,541,510,461,365,335,194,-3,-154,-411,-961,-1167,-1015,-713,-329,-93,-152,-216,-335,-764,-747,-344,54,519,484,-9,-348,-204,-232,-653,-862,-880,-489,663,2351,1647,402,-579,-580,-602,-517,378,291,1,-65,-133,-161,-161,-90,-20,-280,-658,-689,-326,170,164,214,345,348,227,111,-9,-136,-249,-342,-358,-385,-427,-390,-301,-246,-174,-148,13,18,-92,-163,-252,-257,-314,-163,114,133,-3,-154,90,1306,1543,-387,-868
2018-05-22,10:32:57.442,-1033,-789,-361,-23,-90,55,110,374,128,-362,-325,94,720,758,217,159,274,100,44,428,350,197,765,1364,948,250,167,424,397,163,-12,-46,-96,-149,-134,-18,42,62,171,118,-468,-660,-654,-437,-159,-31,-258,-453,486,2031,380,-1069,-919,-675,-554,-202,-90,-123,-121,-46,27,82,158,251,332,358,217,195,204,235,308,334,323,298,393,409,216,-36,-518,-997,-708,-282,-242,-162,17,106,97,85,72,-11,-74,20,81,14,-2,311,528,430,-74,-335,214,1576,2934,1857,775,-496,-1133,-214,432,360,109,-26,-106,-169,-195,-164,-190,-219,-162,-158,-224,-490,-714,-570,-295,-53,133,232
2018-05-22,10:32:58.479,245,233,231,200,104,73,22,-93,-169,-215,-249,-295,-251,-261,-311,-334,-394,-445,-454,-553,-531,-573,-636,-621,-544,-69,590,-952,-2124,-1630,-1296,-1083,-699,-246,-160,-163,-57,206,423,256,105,181,234,253,203,201,277,316,419,487,559,602,600,525,392,275,161,86,32,76,104,105,97,84,140,94,22,-354,-611,200,701,481,286,164,-28,-318,-929,-557,1692,3054,1347,48,-608,-925,-860,-538,-491,-574,-735,-944,-804,-567,-375,-308,-339,-351,-252,-125,26,137,163,136,141,175,165,107,1,-213,-405,-536,-584,-604,-584,-585,-574,-484,-443,-338,-248,-220,-301,-392,-371,-372,-384,-349,-253,-209
2018-05-22,10:32:59.516,-404,-183,1305,1383,-400,-543,-473,-348,-234,-74,-4,15,15,9,-207,-285,-107,135,388,432,515,556,333,60,-247,-482,-193,306,659,499,457,322,-138,-101,-48,-265,-193,78,252,296,154,132,140,102,39,7,35,-36,-186,-340,-498,-545,-732,-73,1652,1260,-624,-1001,-888,-715,-293,15,39,65,76,27,32,62,45,111,188,222,325,368,502,573,585,582,550,523,486,449,232,10,-199,-400,-577,-561,-484,-365,-174,-105,-205,-150,-420,-784,-313,264,516,265,-142,-258,-315,-798,-922,-674,1102,3889,2713,874,23,-386,-658,-1120,-1021,-461,9,822,590,117,-81,-158,-184,-188,-177,-70,3,-34
2018-05-22,10:33:00.553,-305,-637,-189,-467,37,403,363,139,-207,-474,-621,-618,-592,-609,-537,-426,-341,-178,-134,-109,-45,-43,-35,-53,-82,-86,-78,-100,-199,-75,951,1415,-276,-914,-486,-360,-323,-54,209,-15,-84,111,179,117,240,308,195,44,-6,-120,22,119,346,799,554,28,201,287,205,194,391,334,156,111,-199,-60,430,435,262,324,403,400,319,255,180,177,193,261,186,-257,-871,-574,1062,1756,130,-453,-336,-199,41,395,515,507,509,565,513,477,423,371,347,334,344,388,418,513,524,419,373,267,124,5,-166,-288,-419,-571,-553,-511,-508,-439,-524,-626,-467,-393,-404,-474,-558,-213,-31,-134
2018-05-22,10:33:01.591,-197,-218,-237,-349,-870,-647,768,2294,1429,841,303,-283,-642,-650,-558,-501,-595,-444,-254,-184,-425,-569,-183,55,-132,-313,-356,-379,-392,-362,-278,-192,-204,-250,-405,-772,-979,-909,-808,-633,-493,-443,-506,-598,-576,-438,-431,-255,-301,-502,-577,-594,-515,-551,-597,-594,-768,-731,533,1754,-316,-1875,-1796,-1565,-1251,-716,-353,-324,-342,-313,-243,-116,-43,1,-91,-255,-450,-203,110,-128,-163,81,183,174,162,50,-27,-78,-190,-244,-419,-624,-382,-187,-13,302,328,152,-128,-401,-517,-256,58,182,401,517,368,177,-154,-322,511,2033,1497,210,-287,-412,-420,-279,-72,-151,-524,-719,-414,64,328,353,351,275
2018-05-22,10:33:02.628,250,304,335,410,540,673,752,736,681,604,457,280,57,-92,-165,-208,-210,-182,-136,-208,-174,-8,50,104,51,64,51,33,28,1,-132,-191,-382,-437,875,3037,1868,-18,-477,-516,-548,-474,-547,-549,-213,289,894,666,185,-57,-141,-384,-896,-773,50,408,901,907,631,608,666,516,455,278,32,107,92,-12,-67,-146,-322,-457,-653,-208,201,-101,32,328,393,316,187,8,-218,-416,-547,-140,1229,1025,-1045,-1411,-1090,-824,-417,35,115,130,148,173,281,332,251,329,344,383,493,294,383,489,784,795,633,550,284,-261,-199,-114,-349,-208,-82,-146,-270,-543,-558,-606,-551,700,1206,583
2018-05-22,10:33:03.665,177,60,-175,-635,-404,-28,75,344,86,143,1502,1951,682,240,-433,-780,-210,215,-28,-243,-242,-191,-126,-45,-100,-376,-689,-648,-369,-35,252,405,395,368,328,271,195,111,32,-29,-117,-260,-400,-442,-403,-353,-429,-339,-237,-91,-36,-113,-224,-256,-314,-259,-43,77,-58,-203,-237,630,2055,614,-1016,-745,-543,-810,-688,-488,-261,37,244,319,456,436,10,-352,-237,-285,35,342,314,442,559,336,281,506,591,531,416,431,309,154,11,-89,-130,-67,0,121,244,269,-32,-461,-557,-452,-271,-127,-9,61,-68,-389,221,2096,1888,-181,-599,-628,-673,-414,-149,-147,-129,-32,50,166,289,308
2018-05-22,10:33:04.702,235,204,224,240,372,348,293,327,409,389,327,236,121,-183,-494,-885,-638,-96,-106,37,286,311,231,209,148,87,34,2,-34,-37,36,222,334,370,216,15,621,2249,2277,1135,449,345,341,159,-50,-220,-167,-168,-272,-441,-316,-236,-311,-359,-406,-407,-378,-374,-374,-366,-515,-721,-551,-236,-55,-94,-221,-357,-455,-463,-468,-476,-476,-425,-266,-137,-170,-236,-316,-397,-488,-553,-590,-637,-644,-603,-723,-371,952,333,-1860,-2054,-1668,-1344,-952,-460,-289,-274,-167,12,-45,-75,-113,-241,-548,-544,-99,197,291,397,448,467,443,415,323,216,181,181,145,86,55,12,-26,-20,-88,-296,-266,-404
2018-05-22,10:33:05.740,-215,285,684,607,266,-86,-438,-588,-582,-635,-493,928,2864,2109,405,-312,-727,-843,-671,-471,-354,-276,-277,-485,-747,-622,-312,-241,-117,-51,-23,44,106,121,138,231,274,280,208,69,-77,-240,-345,-366,-454,-515,-432,-356,-259,-125,78,177,137,17,16,56,-49,-62,-8,61,9,-202,376,1939,1257,-576,-657,-501,-324,-46,286,414,382,321,263,228,236,192,-44,-128,-99,59,264,929,1074,637,272,-49,-533,-779,-332,441,875,934,734,322,199,57,-44,-92,-24,17,33,66,-36,-141,-195,-344,-590,-681,-604,-470,-535,-86,1209,994,-643,-1007,-950,-827,-488,-147,-86,-152,-191,-167,-115,-83
2018-05-22,10:33:06.777,-78,26,54,25,127,186,190,311,288,165,109,277,293,210,143,-129,-315,-404,-460,-567,-835,-778,-432,-267,-94,-50,-89,-536,-681,-395,-451,-494,252,466,154,-474,-871,49,2141,1750,24,-657,-402,-26,205,80,-281,-603,-536,-230,-323,32,329,58,-178,-166,-61,-38,-94,-206,-505,-469,92,237,137,-202,-468,-279,-336,-352,-335,-246,-267,-343,-324,-162,-46,-36,-53,-36,-23,-82,-93,1,58,-55,-364,-502,379,1129,-368,-1348,-988,-765,-382,166,545,461,383,409,535,772,341,342,723,708,571,481,359,61,-208,-89,484,867,1175,973,440,27,-220,-276,-215,-134,-109,-243,-624,-442,-72,-81
2018-05-22,10:33:07.814,152,778,821,505,280,238,243,273,324,177,-436,27,2646,4026,1942,209,-528,-780,-754,-480,-392,-559,-707,-785,-768,-735,-679,-670,-644,-542,-420,-336,-256,-93,51,185,323,344,316,66,-279,-438,-682,-862,-881,-862,-876,-746,-646,-478,-194,-110,-94,-152,-273,-344,-328,-119,261,448,214,-303,-32,1922,3287,1494,209,-52,-116,-127,48,132,151,104,97,71,139,396,442,354,126,-119,-109,300,714,660,499,414,333,264,193,206,146,37,-79,-189,-215,-184,-111,-65,-73,20,-120,-410,-381,-305,-151,46,116,134,76,-33,-304,-120,1206,1943,376,-551,-745,-740,-585,-293,-218,-276,-311,-250,-269,-277
2018-05-22,10:33:08.851,-267,-228,-200,-199,-177,-24,-16,112,276,389,306,261,370,252,-91,-557,-639,-703,-624,-309,-284,-390,-392,-294,-160,-281,-259,31,-74,-253,-19,299,294,8,-157,-858,-2071,-977,2744,3675,1563,212,-496,-827,-1067,-1322,-1110,-437,-249,-85,44,-59,-178,-304,-367,-285,-217,-101,-62,-232,-457,-317,-216,-77,68,12,-173,-305,-370,-355,-367,-380,-366,-357,-388,-327,-262,-172,-226,-257,-299,-213,-79,-87,-97,-63,-31,-83,291,1165,400,-1067,-954,-699,-352,-24,290,470,275,224,311,411,406,328,167,76,122,209,218,208,254,272,191,510,846,911,884,677,-112,-502,154,747,534,167,251,184,-193,212
2018-05-22,10:33:09.889,624,64,428,622,136,65,0,-464,-675,-532,-588,61,2279,4038,2118,317,-590,-1123,-1540,-1615,-766,452,771,509,190,-10,-125,-225,-352,-336,-190,-154,-124,-49,15,74,194,337,355,218,11,-301,-550,-563,-588,-544,-383,-365,-382,-555,-508,-283,-309,-339,-376,-476,-377,-246,-195,-411,-380,-592,-667,586,2227,870,-1067,-1463,-789,-180,359,371,-79,-413,-585,-784,-945,-999,-1361,-397,346,510,367,-30,-197,-200,-261,-446,-366,-177,-260,-384,-407,-441,-452,-526,-904,-1186,-1236,-1142,-655,-237,-56,-212,-410,-398,-300,-331,-355,-311,-322,-390,-544,-804,-338,1521,1172,-1142,-1452,-1349,-1309,-930,-398,-258,-188,-106,-59,-140
2018-05-22,10:33:10.926,32,124,125,206,277,290,314,-18,-210,71,232,406,689,688,520,311,167,52,-279,-454,-440,-172,446,772,654,439,193,92,-130,-355,-215,207,623,617,363,106,-328,-204,1145,2263,1255,326,-113,-304,-397,-186,-23,-137,-419,-270,-83,22,229,385,383,382,492,720,961,1105,1213,1233,1091,916,775,602,371,97,-118,-305,-418,-425,-454,-535,-620,-717,-548,-562,-562,-526,-632,-719,-556,-417,-340,-299,-178,-251,-435,788,3207,2074,142,-222,-317,-409,-266,-132,-200,-503,-748,-310,1,291,637,858,661,284,-111,-424,-66,278,288,551,887,866,686,534,403,258,124,51,21,31,40,68,131,270
2018-05-22,10:33:11.963,293,305,100,-487,-708,-415,-127,43,167,153,-152,-78,1225,2119,624,-221,-279,-280,-276,-129,-96,-57,-76,-105,-105,-120,-75,-21,11,12,87,137,130,92,48,106,111,-28,-128,-380,-559,-406,-83,205,274,154,66,68,29,-10,59,81,37,71,35,-56,-114,-114,-110,-121,-304,-1054,-1445,-259,2473,2886,1431,207,-526,-907,-1086,-743,-120,112,-61,11,9,-134,-255,-195,-80,-122,-55,32,117,201,164,143,101,41,-46,-92,-154,-252,-314,-357,-339,-276,-194,-176,-176,-104,-114,-229,-268,-291,-392,-443,-361,-318,-267,-264,-303,-198,919,2269,459,-1375,-1367,-1290,-942,-299,212,295,362,450,443,503
2018-05-22,10:33:13.000,310,197,76,326,644,679,475,325,311,304,303,336,195,-89,114,269,215,223,162,20,-304,-306,-297,-719,-913,-951,201,1173,864,350,142,89,-19,-142,-138,-206,-444,116,1862,1985,542,-155,-563,-781,-909,-811,-593,-291,-52,86,122,113,127,153,193,223,322,493,571,517,526,543,571,574,494,276,100,-111,-272,-331,-392,-302,-249,-306,-306,-50,29,-20,197,285,261,99,-103,-141,-60,46,4,-381,-24,1963,3507,1351,-192,-881,-1485,-1555,-646,81,675,786,121,-465,-482,-220,-34,-152,-575,-834,-632,303,1144,774,422,312,19,-341,-568,-561,-564,-597,-533,-480,-662,-1256,-1699,-1554,-1243,-826
2018-05-22,10:33:14.038,-507,-391,-271,-272,-345,-418,-463,-411,-294,-258,-379,-252,660,587,-1044,-1359,-1162,-1034,-605,-225,-127,-267,-259,-207,-215,-127,106,457,595,252,276,261,318,414,509,659,408,51,216,291,54,-257,-576,-903,-881,-485,-252,-429,-633,-500,-100,-442,-815,-270,51,-202,-205,68,-218,-874,-385,-217,-558,923,3108,2051,514,-262,-596,-775,-669,-501,-341,-347,-369,-572,-1043,-1161,-866,-348,-54,35,66,-1,-54,17,143,207,283,363,218,2,-189,-308,-370,-424,-456,-375,-344,-393,-412,-184,-55,-104,-121,-141,-240,-272,-176,-11,74,189,217,326,1252,2610,954,-474,-502,-584,-327,-116,-20,0,48,119,90,-2
2018-05-22,10:33:15.075,-17,65,137,140,143,222,355,273,422,539,359,310,416,380,254,259,206,233,414,349,57,215,440,636,568,462,389,315,203,119,83,75,-47,-292,-495,-723,-245,1401,1973,573,-88,-188,-161,3,210,228,124,105,125,124,201,135,9,-71,-114,-149,-165,-88,10,1,-62,-76,-99,-289,-470,-557,-574,-721,-740,-585,-580,-588,-597,-628,-471,-147,41,225,139,3,-44,-71,-84,-100,-69,-147,-485,-467,615,1297,615,253,13,-538,-736,-973,-2029,-1329,-53,913,1163,584,75,8,-27,-173,-269,-328,-261,-131,-78,-99,-19,36,77,-131,-282,-391,-537,-497,-301,-183,-90,-119,-149,-40,9,-32
2018-05-22,10:33:16.112,-79,-47,-104,-177,-292,-439,-605,-645,-588,-668,147,2051,1339,-440,-747,-628,-440,-71,132,182,206,263,364,435,453,469,246,157,127,162,506,603,74,95,236,189,-60,-186,-54,189,697,598,106,-195,-521,-680,-434,-204,-217,116,108,279,483,79,-148,-39,-168,-85,369,147,-533,70,2139,2450,873,-91,-525,-776,-1005,-890,-535,-541,-307,-12,135,-6,-307,-393,-91,-87,-171,-182,-147,-134,-34,78,203,223,101,-66,-169,-190,-250,-265,-180,-241,-295,-229,-197,-36,329,449,228,-41,208,684,268,-26,63,246,-16,-31,757,2568,2587,535,-294,-469,-559,-583,39,542,367,-334,-380,167,252,48
2018-05-22,10:33:17.150,-128,449,1022,710,112,192,182,163,123,929,1350,1186,664,195,-12,-150,-233,-249,-212,-155,-131,-183,-399,-765,-989,-981,-803,-518,-345,-329,-445,-536,-433,-363,-515,-241,759,613,-767,-1039,-1116,-1064,-760,-437,-303,-271,-149,-133,-294,-325,-337,-346,-262,-163,-93,-53,55,77,167,167,1,-234,-416,-838,-1091,-789,-654,-657,-900,-906,-636,-964,-850,-83,218,-12,-209,-341,-596,-695,-1323,-563,599,547,-203,-566,419,2605,2571,1065,24,-532,-764,-689,-483,-407,-377,-247,-184,-185,-432,-844,-910,-477,-83,40,73,100,108,69,-14,-52,-73,-91,-157,-268,-374,-451,-516,-525,-514,-497,-469,-578,-544,53,234,257
2018-05-22,10:33:18.187,231,-48,-282,-541,-671,-646,-691,-611,-460,107,1279,319,-1221,-938,-682,-435,-450,-138,106,260,311,298,252,126,-31,1,-52,553,762,519,363,289,553,813,709,500,469,414,210,-57,-53,407,715,677,492,334,214,285,378,390,394,369,302,257,186,158,46,-306,-819,-599,1356,2851,944,-594,-801,-628,-248,133,187,208,250,209,160,161,166,237,270,301,368,512,580,666,750,768,700,531,412,249,61,-201,-398,-473,-454,-456,-502,-458,-258,-67,135,166,233,161,35,18,84,159,269,382,291,-295,-417,1109,2189,886,1193,978,35,-441,-416,-353,-477,-526,-462,-302,144,382,-253,-5
2018-05-22,10:33:19.224,386,419,302,206,168,152,197,155,181,237,90,-251,-692,-787,-675,-603,-631,-387,-105,-88,9,67,24,-2,4,-29,-57,-95,-99,-100,-60,-98,-111,387,1334,337,-1270,-1035,-750,-533,-271,114,146,178,364,595,569,568,645,578,454,356,219,275,365,413,272,471,604,308,76,470,900,940,658,249,-206,-502,-306,-324,-941,-357,939,886,471,259,-56,-67,-133,-594,-227,-72,-420,-784,471,3211,2805,319,-790,-917,-891,-814,-745,-988,-1002,-789,-972,-908,-77,978,1128,946,818,628,341,170,90,-9,-98,-95,-114,-153,-221,-364,-438,-390,-397,-432,-501,-569,-553,-454,-321,-288,-264,-208,-235,-291
2018-05-22,10:33:20.261,-364,-332,-347,-340,-385,-665,-516,1112,1858,57,-624,-441,-103,-23,-126,-310,-361,354,795,677,516,63,-448,-726,-168,-146,-363,-159,307,965,848,587,230,-49,-54,226,344,599,515,24,-125,-89,-97,-34,161,155,-310,-1144,-769,-629,-787,-567,-221,-158,-268,-574,-557,566,1470,-134,-1123,-988,-778,-688,-314,-66,15,119,225,372,451,537,537,488,428,481,521,661,735,468,842,1175,993,702,312,21,-282,-778,-833,-862,-619,-91,110,130,296,399,393,352,353,333,281,217,193,119,313,524,-136,-131,1795,3552,2213,695,-245,-391,-298,-272,-321,-346,-349,-427,-412,-344,-363,-328,-324,-302,-277,-291
2018-05-22,10:33:21.299,-459,-785,-539,-55,142,175,110,-174,-566,-845,-1018,-1037,-1029,-965,-933,-962,-1005,-901,-871,-889,-876,-932,-951,-921,-900,-857,-881,-943,-1044,-827,131,-112,-2010,-2287,-1892,-1607,-1180,-705,-436,-431,-491,-617,-275,263,126,-381,-192,36,10,-38,4,43,33,19,30,103,-141,-135,261,273,9,-276,-368,-902,-917,-405,-129,-6,-180,-361,-600,-341,-139,-276,-529,-247,-124,-249,-707,-785,669,2452,1306,124,-367,-585,-752,-739,-695,-646,-433,-69,175,249,199,131,139,159,235,339,467,585,650,721,762,711,616,426,193,10,-112,-210,-272,-271,-303,-344,-298,-192,-208,-276,-261,-268,-256,-194,-187,-196,-177,-239
2018-05-22,10:33:22.336,-361,-370,928,4070,3386,908,24,-121,-241,-169,-182,-218,-353,-211,237,481,656,681,324,30,-218,-1165,-1219,369,1427,1300,597,436,449,348,245,-21,-145,-100,-136,-213,-212,-184,-108,33,28,-62,-242,-429,-578,-502,-300,-74,41,5,-247,-123,1132,1193,-513,-903,-709,-539,-311,-25,119,167,235,257,292,321,284,235,250,289,300,390,359,378,565,602,508,386,184,40,-198,-490,-539,-414,-343,-332,-208,31,19,39,29,-22,-157,-108,-151,-302,-127,-60,480,795,-132,-304,1292,2198,412,-437,-687,-809,-335,4,178,195,41,-31,-132,-218,-210,-169,-124,-30,98,156,95,-75,-206,-235,-53,116
2018-05-22,10:33:23.373,191,158,40,-137,-187,-178,-118,-6,39,9,36,103,97,88,90,10,-37,-44,-35,-83,-86,-148,-317,132,1411,679,-1143,-969,-679,-371,-72,192,297,367,391,315,263,352,678,1078,1022,621,115,167,249,551,1107,793,193,75,247,-281,-537,796,806,167,-23,-61,-182,-439,-184,-25,-70,324,398,8,-302,-396,-390,-361,-349,-594,-1125,-514,2496,2149,-719,-1272,-844,-577,-130,193,64,-170,-326,-390,-341,-359,-292,-154,-72,-17,40,120,234,403,554,636,663,542,351,78,-357,-627,-644,-509,-478,-477,-317,-275,-154,-117,-203,-367,-397,-316,-365,-246,102,162,69,-297,-305,1067,2336,505,-550,73
2018-05-22,10:33:24.410,391,22,-3,151,63,-322,-810,-426,-11,162,717,758,428,300,292,250,242,248,255,234,232,219,143,63,4,-271,-825,-1022,-686,-278,-3,217,385,434,363,253,212,220,163,114,50,-61,-194,-505,-177,1432,1706,-437,-1087,-1204,-1154,-949,-511,-480,-515,-459,-332,-310,-310,-294,-194,-200,-182,-126,-154,-230,-6,219,404,200,13,79,181,108,23,-40,-87,-75,43,69,112,250,46,-338,-190,494,956,826,514,200,-96,-680,-758,-435,826,3186,2857,689,-306,-733,-868,-754,-532,-529,-544,-474,-395,-320,-258,-262,-765,-956,-696,-266,49,418,573,445,343,270,183,74,-42,-132,-191,-246,-269,-281
2018-05-22,10:33:25.448,-326,-261,-219,-51,61,71,9,-91,-165,-276,-268,-250,-292,-408,-516,-181,883,779,-1015,-1333,-972,-678,-437,-156,-164,169,484,579,321,60,-25,-77,-45,-133,-370,-108,194,419,709,578,593,446,-55,-402,-268,-230,-168,117,715,587,283,173,259,262,-19,96,422,182,11,-85,-137,-217,-303,-586,-804,381,2097,522,-902,-1020,-714,-457,-158,-187,-334,-350,-303,-182,-26,-3,-17,-5,12,56,173,318,414,577,744,876,865,897,700,344,152,2,-140,-240,-465,-460,-400,-375,-273,-364,-384,-415,-602,-737,-821,-641,158,661,323,-707,-379,1511,1367,-648,-328,155,-150,-471,-408,-345,-417,-500,-888,-523
2018-05-22,10:33:26.485,352,629,66,173,430,144,-28,435,565,670,337,108,164,188,-37,-228,-458,-706,-501,-1069,-1862,-303,-490,835,2125,1454,898,389,-70,-336,-536,-579,-531,-511,-590,-294,1107,1547,-398,-890,-682,-526,-336,98,256,276,256,184,129,226,411,499,429,479,556,655,248,-222,-160,-88,-72,282,474,83,-382,-496,-652,-571,-662,-428,331,441,-144,-773,-374,-71,-52,-219,10,-41,-492,-167,430,138,34,1252,2677,1698,419,-306,-602,-624,-410,-183,21,38,-97,-380,-694,-786,-702,-309,-87,-56,-136,-55,29,76,177,263,225,154,-51,-294,-450,-619,-752,-827,-871,-882,-1010,-974,-779,-1075,-1015,-554,-594,-388
2018-05-22,10:33:27.522,-406,-657,-574,-295,-147,-37,429,1438,251,-1059,-1313,-1041,314,1508,1504,995,605,360,140,-44,-101,38,72,402,612,723,480,163,73,-114,16,377,243,252,351,170,197,769,830,510,297,242,229,327,293,343,281,184,146,34,-21,-140,-380,-455,-418,761,2751,1599,-326,-828,-782,-595,-240,-13,35,17,62,94,108,89,46,85,82,29,57,119,158,127,105,126,102,-131,-331,-519,-683,-753,-754,-705,-686,-877,-950,-637,-426,-537,-519,-202,-291,-468,-522,-506,-633,-812,-776,-941,112,2797,2577,235,-497,-417,-853,-948,-491,-160,-207,-265,-205,-172,-231,-322,-405,-437,-397,-429,-490,-500,-478,-427
2018-05-22,10:33:28.559,-362,-341,-316,-334,-495,-1015,-1253,-767,-279,-219,-239,-340,-375,-396,-409,-366,-350,-425,-451,-462,-464,-447,-417,-556,-824,46,2363,1295,-1097,-1380,-1204,-1005,-572,-122,41,56,18,11,-40,46,156,144,93,16,68,156,269,453,678,837,660,453,264,48,-140,-354,-535,-484,-288,-264,393,626,187,-219,-548,-447,-187,-457,-770,-646,-473,503,292,-399,229,2119,2012,315,-39,-240,-477,-471,-314,-289,-431,-648,-563,-517,-640,-425,-13,223,301,423,444,333,240,249,289,262,315,287,-76,-513,-493,-410,-415,-350,-267,-250,-106,101,182,208,190,98,24,46,43,43,88,80,-96,449,2408,1801,-292,-568
2018-05-22,10:33:29.597,-581,-302,439,862,690,154,-309,-100,-274,30,795,808,412,62,22,-28,-34,145,-86,-163,36,143,301,223,304,548,337,233,409,224,96,203,454,505,422,377,280,237,75,-101,-217,-286,-475,-737,192,2090,1061,-877,-971,-762,-737,-427,-220,-292,-555,-1000,-909,-519,63,377,449,538,558,574,643,759,738,659,640,592,516,488,251,25,-181,-284,-316,-711,-769,-356,-119,-8,382,472,375,137,-156,-310,-383,-197,479,755,305,547,2031,1985,338,-130,-825,-892,-248,361,185,-184,-438,-534,-510,-363,-251,-300,-159,-149,-212,-170,-106,-71,-54,-18,-190,-471,-503,-479,-534,-571,-625,-714,-673,-503
2018-05-22,10:33:30.634,-417,-228,-59,-66,-159,-275,-434,-535,-562,-533,-534,-626,-682,-598,153,524,-1172,-2179,-1817,-1406,-1063,-536,-155,-146,-128,167,382,175,-84,-10,-4,-147,-345,-49,378,584,654,647,565,340,213,560,691,407,-141,-299,51,473,506,278,8,-71,221,281,104,4,289,448,211,221,193,-297,-310,1066,2524,1528,423,-87,-303,-299,-231,-428,-574,-330,-3,107,146,149,117,130,263,408,447,558,592,603,610,545,413,245,-24,-309,-470,-548,-667,-680,-697,-728,-759,-624,-344,-285,-413,-476,-319,-239,-176,-156,-97,-191,-510,-369,1165,2100,1509,456,-295,-493,-250,23,14,-84,-293,-350,381,1179,1199,600
2018-05-22,10:33:31.671,73,-43,-46,-5,27,58,159,136,70,426,561,316,377,348,189,67,28,21,31,27,170,260,280,271,240,171,29,-344,-233,164,209,-442,-34,2257,2687,315,-591,-622,-521,-244,-140,-215,-234,-260,-234,-183,-169,-107,-92,-15,90,158,378,582,609,562,477,455,251,-59,-155,-217,-339,-461,-563,-632,-528,-370,-118,269,228,81,-31,-231,-338,-313,-225,7,3,-272,-515,-162,1822,2172,588,289,333,16,-572,-979,-464,173,251,-188,-30,242,-17,98,87,170,430,287,440,564,623,546,366,385,395,288,-91,-918,-1135,-825,-585,-228,79,149,218,170,91,109,29,-90,-218,-244,-207,-249
2018-05-22,10:33:32.708,-290,-433,3,1683,1309,-654,-783,-674,-513,-157,217,284,167,119,187,65,-125,-340,-471,-761,-778,-365,-712,-681,-522,-770,-1056,-1001,630,959,238,-411,-826,-1283,-1561,-1668,-1552,-379,309,-11,-523,-752,-780,-892,-1382,-1454,-1471,-850,-139,-109,-1038,-1030,599,1682,587,-496,-1094,-986,-1209,-1245,-1017,-991,-924,-972,-1307,-1658,-2393,-2455,-52,1361,836,200,1223,986,233,-113,-286,-352,-393,-645,-818,-920,-954,-862,-762,-715,-722,-547,-333,-329,-330,-168,-172,-312,-288,-155,-174,-213,255,245,369,1428,1563,-151,-370,-233,85,283,454,411,50,166,26,832,1690,1453,785,485,321,-11,27,323,-231,37,1455,1510,1335,1228
2018-05-22,10:33:33.746,1003,663,428,396,392,383,304,273,424,575,714,670,389,-122,-283,-205,-8,218,366,244,-342,-176,1650,1851,230,-110,-389,-475,-310,0,45,31,103,166,160,204,276,258,346,442,414,463,467,573,622,558,460,315,129,243,-183,-593,-822,-917,-1276,-1108,-630,-594,-154,360,487,371,234,163,110,106,49,-98,-97,-516,-519,1735,3640,1991,921,344,-587,-1195,-829,-440,83,419,409,322,270,136,68,-49,-159,-181,-108,-37,12,84,64,-176,-433,-320,-30,112,96,92,29,-16,-80,-74,75,191,194,161,87,-18,-83,-133,-170,-155,-98,-144,-383,99,1649,1355,-885,-1176,-1003,-882,-583,-54
2018-05-22,10:33:34.783,233,315,261,217,181,211,153,60,64,285,675,736,387,288,377,417,423,411,313,118,-325,-583,-277,-78,298,524,307,19,-58,-161,-181,-268,-512,-126,547,260,93,296,-90,-926,-372,1997,3213,1167,-201,-742,-885,-859,-654,-641,-852,-1547,-682,269,-134,-55,168,265,366,431,427,354,214,83,45,45,-64,-255,-462,-620,-678,-706,-740,-676,-489,-362,-294,-157,-71,-84,-176,-286,-317,-297,-27,166,52,-109,-140,402,1724,944,-889,-986,-831,-336,370,641,270,-23,-148,-54,205,406,435,184,-152,-190,29,-208,-34,679,817,509,366,188,-186,-366,-545,-471,172,218,321,474,105,-11,6,12
2018-05-22,10:33:35.820,-9,-63,-95,-168,-412,-818,-674,-544,-631,-476,700,1660,123,-918,-1014,-963,-780,-461,-332,-266,-187,-160,-191,-210,-108,54,232,344,463,561,529,614,680,603,482,354,184,105,71,-157,-253,-309,-314,-136,-342,-625,-309,-61,-79,-264,-15,92,94,146,181,199,188,-184,-433,326,1755,1811,1853,1217,206,-327,-367,-755,-1192,-596,216,495,490,305,-104,-316,-228,-211,-196,-220,-262,-228,-166,24,62,-124,-950,-1478,46,-71,187,577,509,327,91,-32,-204,-322,-426,-486,-419,-292,-325,-309,-292,-326,-449,-366,1130,2278,-8,-1239,-1079,-924,-674,-106,451,542,710,919,825,720,780,749,591,429,189,256
2018-05-22,10:33:36.857,687,1197,1631,1126,546,181,-84,-326,-591,-841,-1238,-1428,-572,282,179,-121,-329,-481,-461,-254,-175,-669,-866,-811,-692,301,776,-265,-588,866,1789,406,-478,-945,-1134,-1110,-962,-853,-863,-1172,-1505,-1419,-1107,-773,-510,-386,-279,-166,-136,-105,-84,-62,-75,-12,61,-60,-288,-472,-567,-648,-749,-759,-751,-780,-698,-552,-576,-657,-811,-844,-721,-727,-715,-627,-505,-460,-571,-94,1046,122,-1488,-1557,-880,51,700,716,583,472,421,367,327,-47,-44,26,340,948,819,355,-28,-179,-176,-77,53,118,67,181,297,172,-444,-321,299,309,-6,435,750,568,389,296,200,175,187,242,246,123,-375,-695,488,2550
2018-05-22,10:33:37.895,1186,-241,-516,-552,-602,-511,-356,-166,-147,-48,38,100,158,132,78,107,135,168,247,306,307,291,354,390,271,63,-143,-379,-532,-566,-603,-681,-642,-614,-482,-236,-221,-278,-311,-183,-174,-234,-242,-254,-251,-384,-703,333,2992,2148,143,-127,-169,-190,49,125,51,-41,-146,-243,-258,-276,-330,-291,-359,-367,-8,310,509,682,519,73,-337,-315,291,314,352,363,192,38,-38,-120,-159,-129,-140,-153,-169,-249,-316,-233,-173,-310,-487,-727,-945,-238,1610,1874,123,-397,-564,-590,-386,-194,-151,-98,-53,-70,-135,-135,-99,-69,-30,32,59,112,109,181,351,454,455,197,-51,-312,-455,-475,-462,-467
2018-05-22,10:33:38.932,-275,-215,-166,-174,66,91,101,103,354,747,565,222,12,-175,-403,-1197,-703,2551,3859,1733,509,-306,-779,-787,-801,-1063,-723,-248,-496,-424,261,255,-163,-284,-268,-286,-292,-68,380,306,44,47,46,53,-8,-106,-328,-395,-269,-8,215,242,182,109,7,-155,-207,-292,-329,-325,-319,-308,-298,-330,-355,413,1681,434,-679,-404,-540,-713,-485,-263,19,162,248,308,551,599,608,569,598,657,508,400,395,451,571,558,738,837,891,780,569,363,195,89,-26,-227,-452,-68,934,1170,886,516,157,-208,-240,-605,-739,119,308,-176,925,3454,2707,322,-338,-546,-700,-641,-460,-464,-381,-300,-312,-452
2018-05-22,10:33:39.969,-886,-1279,-654,135,261,235,280,248,169,43,-125,-126,-139,-349,-658,-859,-933,-977,-879,-731,-650,-494,-333,-307,-344,-471,-573,-622,-600,-533,-491,-404,-408,-535,-172,930,1053,-801,-1434,-1063,-787,-583,-496,-171,369,317,237,134,57,-42,-296,-80,223,491,687,590,220,-88,-424,-591,-467,-484,-174,-15,-9,171,156,-79,-203,-234,-223,-158,-96,-74,-18,-55,-118,-42,22,22,-45,-607,-1635,-645,3103,3576,415,-834,-963,-1103,-963,-724,-639,-603,-486,-355,-352,-371,-360,-270,-169,-16,179,398,522,501,508,417,217,-32,-297,-314,-395,-625,-642,-567,-475,-408,-363,-185,-106,-161,-262,49,194,-186,-223,340
2018-05-22,10:33:41.006,574,454,-65,-206,1103,2663,1305,57,-310,-567,-502,-216,-16,281,574,424,239,133,-301,-587,-341,39,357,627,641,533,523,500,461,390,292,194,114,20,-30,-43,14,58,96,145,-9,-279,-343,-151,84,273,351,408,348,218,140,-162,151,1720,1662,-212,-795,-763,-672,-400,-144,-99,-120,-70,-69,-35,51,148,131,125,246,334,476,661,703,755,761,574,431,202,-15,-200,-349,-508,-512,129,676,528,294,197,172,185,176,-3,-115,7,46,142,398,341,-449,-538,1308,2927,1368,-149,-526,56,-123,-197,-100,-89,-110,-128,-125,-131,-117,-91,-97,-141,-143,-134,-56,-35,-237,-426,-363,-144
