2018-05-22,11:04:15.445,1939,1923,1907,1902,1805,1543,1553,2452,3791,3995,2235,1160,1018,1119,1338,1345,1304,1292,1296,1282,1244,1231,1208,1178,1160,1168,1178,1170,1156,1138,1116,1098,1082,1080,1080,1068,1082,1071,1042,1007,967,918,833,758,689,640,614,601,621,633,641,668,684,711,718,741,753,755,775,778,781,770,779,776,758,754,755,746,748,743,732,733,727,714,691,671,666,658,660,654,646,641,617,628,616,605,601,580,561,537,524,511,498,481,459,448,436,418,402,425,437,392,369,363,327,295,266,257,245,216,211,204,199,185,84,-150,-137,752,2093,2294,562,-424,-481,-373,-167,-113,-106,-67
2018-05-22,11:04:16.483,-29,1,14,39,60,67,89,131,161,200,237,265,286,288,305,326,330,343,353,355,347,322,298,258,211,114,37,6,-3,-12,-25,-21,-10,5,22,37,55,75,82,99,108,134,154,155,163,165,174,157,153,152,152,156,153,149,149,141,139,132,129,115,104,93,64,60,64,63,64,62,56,49,44,30,24,33,33,45,45,29,26,39,28,49,68,88,78,83,94,66,57,47,69,74,63,82,92,108,66,-104,-325,109,1294,2335,1425,-207,-410,-470,-299,-170,-162,-156,-131,-101,-79,-67,-67,-63,-59,-46,-12,10,31,55,73,65,63,80,86,108
2018-05-22,11:04:17.520,120,111,101,71,74,43,-4,-81,-161,-202,-222,-228,-228,-216,-204,-176,-157,-136,-129,-123,-93,-66,-42,-27,-20,-11,-21,-20,-4,10,20,27,34,20,20,20,4,1,5,18,24,23,18,10,14,11,4,7,34,63,73,77,74,83,70,71,75,71,68,69,53,49,85,104,97,78,84,78,55,53,27,20,8,1,1,3,2,-117,-406,-342,574,1801,1962,269,-396,-505,-485,-295,-229,-216,-188,-180,-151,-127,-119,-99,-72,-65,-34,-3,16,43,52,67,65,61,53,58,75,79,72,52,37,28,-18,-82,-142,-211,-242,-248,-266,-272,-264,-248,-227,-200,-173,-152
2018-05-22,11:04:18.557,-131,-111,-92,-77,-59,-51,-55,-45,-46,-73,-89,-94,-100,-123,-128,-140,-168,-170,-183,-205,-203,-210,-198,-208,-201,-180,-170,-128,-95,-57,-15,16,44,53,84,111,128,144,169,204,202,199,229,247,251,251,258,252,215,235,232,229,229,212,220,215,197,102,-136,-87,698,1736,1821,250,-363,-378,-427,-252,-131,-115,-96,-80,-71,-49,-33,-40,-37,-20,-6,10,16,25,13,18,28,45,57,77,103,107,93,73,50,39,-24,-119,-196,-278,-326,-336,-347,-335,-324,-303,-283,-268,-233,-207,-170,-122,-92,-69,-74,-66,-49,-52,-55,-48,-44,-45,-49,-43,-50,-37,-24,-19,-23,-37
2018-05-22,11:04:19.594,-30,-41,-41,-27,-20,-14,-9,-4,-6,-25,-21,-26,-30,-38,-55,-54,-54,-44,-2,18,20,-1,-7,-6,-38,-59,-59,-49,-32,-41,-47,-38,-30,-63,-238,-388,127,1197,1898,848,-429,-514,-560,-420,-230,-178,-171,-152,-126,-105,-85,-75,-61,-50,-41,-29,-13,2,11,29,71,98,133,148,170,183,183,179,153,131,66,-16,-102,-199,-270,-296,-299,-291,-283,-256,-205,-165,-138,-122,-86,-64,-51,-28,-34,-15,-8,8,18,3,-17,-57,-91,-120,-168,-190,-201,-205,-203,-225,-226,-243,-271,-288,-317,-335,-348,-348,-353,-367,-356,-351,-343,-320,-321,-323,-306,-276,-223,-188,-103,-3,95,173
2018-05-22,11:04:20.119,273,357,388,455,505,574,628,663,701,726,769,771,608,405,793,1774,2563,1650,49,-208,-337,-324,-200,-219,-302,-310,-334,-337,-324,-316,-269,-230,-194,-160,-143,-129,-126,-91,-68,-51,-27,0,36,41,51,72,56,62,45,-35,-168,-303,-400,-479,-515,-505,-465,-397,-356,-309,-261,-220,-159,-132,-104,-76,-69,-49,-52,-65,-103,-197,-329,-471,-546,-577,-561,-490,-397,-257,-121,-25,46,27,-51,-171,-312,-450,-587,-672,-680,-577,-417,-263,-44,187,402,584,678,699,735,581,634,510,522,525,275,248,172,291,331,252,343,252,295,367,335,415,265,114,-174,117,1308,2346,1908,737,769,472
2018-05-22,11:04:21.156,25,-28,-311,-472,-528,-579,-590,-752,-687,-531,-539,-507,-590,-595,-565,-678,-632,-472,-273,-210,-203,-31,-104,-78,-3,-51,43,-42,-84,-203,-302,-330,-527,-364,-263,-259,-166,-172,-96,-106,-120,-53,-96,-2,36,103,225,201,170,24,-146,-406,-639,-638,-683,-710,-656,-510,-206,-186,-322,-508,-665,-620,-440,-125,229,513,662,618,489,308,100,22,83,245,491,653,798,769,556,240,23,-37,-56,-29,10,60,113,109,145,188,228,129,-70,447,1570,2440,1693,245,8,-322,-470,-325,-194,-203,-139,-112,-139,-122,-61,-61,-137,-247,-295,-369,-405,-351,-242,-130,13,190,287,284,250,201,218,259
2018-05-22,11:04:22.194,269,205,80,-76,-315,-600,-939,-1281,-1540,-1681,-1527,-1200,-694,-13,552,1006,1301,1351,1281,1138,969,779,596,329,180,132,52,-24,-68,-96,-109,-133,-159,-197,-247,-290,-360,-423,-510,-504,-498,-545,-460,-458,-576,-703,-592,-225,-96,-133,-199,-251,-355,-564,-852,-981,-919,-806,-796,-658,168,1134,1416,352,-511,-528,-705,-684,-495,-374,-375,-319,-128,66,148,220,283,338,336,284,256,275,258,230,207,178,147,127,111,136,170,227,254,257,177,113,-1,-92,-144,-197,-190,-196,-257,-279,-314,-292,-263,-202,-106,-7,132,277,416,523,580,630,620,580,524,419,316,223,140,47,-48,-113,-183,-208
2018-05-22,11:04:23.231,-206,-194,-138,-116,-50,-17,15,40,8,2,-7,-29,-81,-133,-131,-141,-131,-113,-112,-82,-78,-64,-127,-298,-244,491,1443,1665,260,-354,-374,-523,-426,-210,-118,-125,-95,-56,-27,9,20,60,80,79,84,62,47,17,22,51,77,127,150,176,194,179,176,146,103,17,-116,-228,-316,-367,-383,-402,-397,-391,-372,-355,-325,-271,-236,-190,-153,-122,-77,-62,-23,-7,7,24,33,68,93,119,144,138,156,144,140,150,136,148,140,128,129,116,118,103,110,110,114,155,146,124,122,125,109,76,93,94,80,86,81,94,82,73,26,-188,-259,349,1387,2018,938,-324,-430,-612
2018-05-22,11:04:24.268,-540,-310,-196,-198,-187,-151,-136,-99,-96,-79,-61,-47,-48,-47,-26,-13,2,44,66,102,142,177,224,232,228,220,181,111,-29,-168,-285,-360,-400,-423,-408,-402,-383,-330,-322,-297,-280,-241,-207,-209,-175,-178,-157,-128,-118,-91,-90,-82,-77,-77,-44,-56,-61,-44,-37,-33,-49,-32,-31,-22,-11,-6,2,-13,-22,-6,-18,-6,-3,3,-3,-10,34,35,17,17,11,5,-32,-32,-19,-31,-19,-23,-16,-12,-28,-47,-213,-392,-35,981,1982,1607,-62,-468,-600,-635,-417,-249,-230,-210,-161,-143,-107,-92,-62,-21,-14,19,35,54,72,74,119,136,176,230,256,280,282,270,254,225
2018-05-22,11:04:25.305,188,70,-46,-155,-244,-276,-325,-335,-331,-313,-265,-259,-236,-217,-196,-176,-171,-146,-130,-118,-84,-88,-71,-74,-63,-54,-63,-41,-40,-35,-32,-34,-27,-30,-21,-21,-25,-13,-16,3,7,-14,1,2,4,8,-2,-1,-18,9,-4,0,40,21,11,13,33,5,-33,-15,-7,-2,-13,-29,0,-5,-12,-83,-262,-255,440,1453,1831,504,-407,-434,-593,-512,-289,-177,-183,-166,-140,-107,-71,-54,-18,-7,1,29,32,40,37,56,96,114,177,219,259,275,258,264,228,191,102,-46,-174,-300,-382,-413,-444,-416,-407,-377,-341,-311,-271,-268,-257,-247,-232,-199,-198,-172,-185,-157,-125,-160
2018-05-22,11:04:26.343,-122,-111,-91,-75,-85,-75,-72,-37,-9,-22,2,-10,2,9,-25,8,24,27,27,19,37,25,37,27,9,42,11,49,51,35,45,-14,-27,-36,-47,-30,-46,-24,-20,0,6,-95,-257,-151,679,1787,1946,473,-390,-450,-585,-420,-192,-167,-165,-140,-100,-54,-34,-3,44,63,78,82,100,104,107,147,172,205,235,267,317,332,336,316,305,276,197,78,-61,-174,-251,-310,-317,-310,-299,-260,-249,-233,-230,-207,-189,-193,-193,-152,-113,-120,-124,-102,-103,-97,-95,-86,-68,-55,-33,-29,-29,-19,-29,-19,-19,-4,3,-11,-3,2,6,5,13,18,13,0,0,-7,14,4
2018-05-22,11:04:27.380,6,13,-4,7,15,12,-16,-4,9,2,-4,1,27,41,1,7,1,-36,-49,-41,-39,-45,-38,-17,-29,-26,-55,-213,-416,-55,1041,2080,1614,-66,-533,-631,-653,-426,-283,-269,-237,-200,-175,-161,-141,-108,-94,-80,-54,-27,-18,-10,10,20,51,90,112,161,193,208,216,209,216,185,107,-16,-162,-238,-306,-334,-354,-370,-325,-307,-295,-283,-247,-212,-214,-178,-148,-138,-127,-133,-98,-88,-80,-64,-66,-36,-21,-23,-28,-33,-20,-16,-16,-6,-4,13,6,7,7,-9,-8,0,24,7,-3,22,22,10,19,16,20,19,16,10,11,11,-1,21,28,16,19,21,19,15
2018-05-22,11:04:28.417,17,14,16,27,-1,-10,10,20,18,25,37,26,5,4,-42,-44,-23,-33,-38,-46,-34,-38,-37,-91,-312,-401,318,1547,2321,1035,-341,-499,-631,-503,-311,-252,-231,-176,-128,-140,-112,-70,-53,-47,-23,3,3,17,53,64,88,117,147,180,203,226,230,236,237,222,197,109,-5,-123,-215,-275,-289,-290,-302,-299,-273,-272,-227,-201,-200,-176,-160,-154,-149,-143,-128,-116,-99,-92,-89,-58,-59,-41,-52,-41,-18,-28,-5,-12,-3,-7,-23,-6,-7,4,-22,-15,4,-6,-12,-19,-10,8,1,-6,1,12,0,-10,-3,-10,-13,-8,-14,0,0,0,21,-3,-19,-10,0,9
2018-05-22,11:04:29.454,-5,21,18,17,13,36,26,-2,-8,-31,-44,-36,-61,-47,-50,-40,-17,-37,-76,-244,-364,206,1183,1836,881,-373,-412,-588,-557,-338,-202,-183,-164,-134,-109,-84,-59,-58,-36,-17,7,23,28,42,54,88,116,154,203,205,248,283,266,237,191,153,44,-106,-227,-336,-393,-420,-425,-413,-410,-370,-343,-324,-287,-278,-237,-193,-173,-155,-131,-97,-96,-97,-91,-77,-50,-62,-50,-15,-15,-4,-9,-4,0,4,14,9,2,-4,-8,9,-2,1,2,23,23,8,6,0,-1,16,14,22,10,26,30,21,31,29,35,24,7,22,26,24,18,10,19,16,19,14,20,32
2018-05-22,11:04:30.492,44,35,32,31,0,-33,-15,-29,-32,-13,-22,-12,-37,-75,-245,-363,202,1331,2131,1220,-278,-502,-643,-584,-361,-267,-244,-213,-176,-150,-127,-91,-81,-56,-43,-22,5,12,48,47,67,108,122,168,200,230,248,243,256,216,180,120,-6,-125,-246,-305,-344,-364,-367,-360,-326,-301,-295,-274,-237,-198,-190,-185,-152,-148,-120,-94,-80,-58,-72,-40,-31,-33,-17,-23,-21,-9,-20,-29,-31,-9,-15,-10,-10,-33,-9,-19,-15,-22,-32,-6,-25,-17,-29,-27,0,9,24,18,-4,24,11,18,23,12,13,10,25,15,-3,2,13,17,11,4,11,-1,-1,-2,12,17,6,34
2018-05-22,11:04:31.529,58,41,35,31,-6,-25,0,-1,-22,-4,-9,-22,-28,-75,-274,-430,132,1323,2254,1374,-239,-481,-633,-591,-362,-304,-274,-253,-225,-178,-158,-116,-106,-93,-70,-54,-28,-19,9,16,40,83,101,157,191,206,236,239,237,215,173,145,35,-68,-179,-268,-299,-336,-315,-296,-264,-231,-220,-183,-181,-166,-144,-141,-113,-117,-97,-80,-72,-32,-43,-36,-23,-25,-17,-36,-29,5,13,22,10,13,36,36,31,28,14,-1,3,14,10,30,32,26,35,12,17,19,10,13,-7,8,18,11,14,19,18,0,0,12,11,7,-16,-6,-12,-16,-5,-1,5,43,47,47,45,59
2018-05-22,11:04:32.566,4,0,26,8,21,26,22,17,-3,-35,-211,-308,251,1216,1864,948,-314,-423,-571,-544,-347,-220,-215,-196,-128,-126,-106,-69,-58,-36,-37,-17,-15,0,15,22,73,115,140,177,199,245,253,237,233,182,131,47,-91,-215,-353,-415,-438,-442,-431,-417,-383,-359,-331,-314,-298,-258,-238,-218,-184,-163,-131,-129,-102,-88,-85,-71,-75,-72,-64,-57,-29,-37,-24,-15,-12,-17,-28,-17,-25,-25,-3,-21,-12,-2,1,-10,-18,8,-3,-10,3,-11,-11,-13,-5,-10,-3,12,-32,-18,-1,-10,-12,-42,-23,-21,-12,12,33,38,19,27,17,-30,-17,-13,-15,-23,-29,-5,0,-13
2018-05-22,11:04:33.603,-103,-312,-251,564,1726,2056,531,-421,-515,-634,-475,-284,-218,-216,-189,-167,-145,-104,-97,-77,-49,-37,-3,-3,25,32,28,66,95,156,193,212,252,259,270,240,219,188,83,-40,-178,-255,-317,-369,-382,-380,-348,-308,-296,-281,-284,-232,-192,-196,-176,-163,-137,-117,-95,-92,-71,-44,-44,-37,-27,-20,-4,-13,-8,1,-20,13,10,26,33,3,17,-5,-1,-5,-12,-19,-20,-4,-14,-28,5,7,16,15,4,16,5,17,14,4,-7,-16,9,-6,-13,4,2,17,16,13,24,24,20,2,-1,-1,4,15,9,27,39,10,17,9,-24,-22,-21,-6,-26,-19,-24,-30
2018-05-22,11:04:34.641,-28,-187,-421,-94,943,2093,1851,109,-480,-592,-625,-436,-295,-272,-273,-231,-201,-167,-151,-118,-84,-78,-47,-13,6,14,15,55,61,93,130,158,199,214,233,224,228,219,159,91,-26,-162,-254,-326,-341,-352,-357,-341,-334,-273,-255,-224,-204,-220,-186,-184,-140,-123,-118,-97,-91,-81,-68,-70,-53,-64,-54,-33,-44,-31,-26,-8,-35,-47,-24,-32,-21,-15,-11,-2,-22,-17,-35,-33,-4,-4,-1,-16,-10,-4,-6,11,7,0,0,-3,17,11,7,-5,-5,13,3,8,9,12,28,23,36,35,34,33,5,6,-10,3,40,11,16,6,6,25,7,18,31,16,20,42
2018-05-22,11:04:35.678,14,-12,2,7,-32,-21,-16,-26,-26,-100,-321,-345,439,1675,2295,867,-384,-499,-636,-524,-315,-288,-265,-219,-189,-150,-136,-92,-60,-49,-32,-25,4,-1,19,45,55,102,130,156,203,221,259,273,275,254,211,155,40,-101,-195,-265,-316,-365,-351,-332,-332,-293,-281,-262,-248,-216,-174,-180,-155,-129,-100,-75,-94,-73,-66,-62,-54,-71,-49,-73,-67,-39,-55,-55,-58,-38,-35,-50,-38,-60,-57,-42,-25,1,-12,-11,-17,-22,-7,-10,3,-7,-22,-4,-8,-12,-29,-25,-18,-27,-17,-31,-35,-22,-40,-32,-33,-23,-16,-24,-9,-2,-12,-26,-35,-50,-83,-71,-68,-80,-62,-65
2018-05-22,11:04:36.715,-53,-60,-79,-190,-382,2,948,1798,1338,-139,-399,-503,-564,-352,-212,-166,-144,-117,-81,-75,-38,-14,7,31,35,76,78,101,107,111,164,178,223,279,307,338,339,348,313,276,213,72,-56,-186,-298,-349,-392,-386,-378,-352,-311,-304,-287,-268,-246,-226,-220,-181,-156,-134,-116,-108,-93,-94,-76,-53,-47,-34,-37,-27,-29,-35,0,-4,1,9,3,17,2,11,-3,-11,-9,-27,-11,-14,-19,-5,-14,-12,-5,8,15,-2,1,-1,-6,-15,-33,-17,-19,-13,3,-12,-16,-17,-15,-25,-27,9,-2,19,24,6,13,-14,-28,-25,-21,-15,-29,-26,-29,-27,-25,-180,-400,-161
2018-05-22,11:04:37.752,868,2030,1869,112,-484,-595,-647,-427,-261,-250,-237,-200,-170,-138,-117,-89,-65,-48,-32,-40,-23,-5,11,38,45,74,118,149,193,218,237,223,211,210,158,76,-40,-161,-260,-331,-360,-386,-364,-330,-326,-285,-276,-266,-244,-235,-203,-196,-170,-156,-138,-99,-82,-71,-68,-67,-40,-64,-66,-48,-32,-18,-33,-10,-15,-20,-15,-39,-34,-14,-9,-6,-20,4,3,12,7,-15,13,8,12,5,4,24,8,16,20,13,31,7,11,1,-2,6,-8,-6,-9,-16,12,13,15,4,-13,-3,-11,0,-16,-24,15,29,44,32,32,-7,-41,-13,-13,-8,3,3,16,-14,-87,-306
2018-05-22,11:04:38.790,-396,348,1575,2358,993,-324,-482,-609,-486,-305,-261,-247,-227,-185,-156,-138,-99,-94,-59,-35,-15,-7,-1,28,43,63,103,125,158,174,232,263,249,244,229,223,173,63,-55,-170,-249,-322,-373,-355,-355,-311,-288,-269,-225,-216,-188,-179,-174,-163,-152,-109,-101,-80,-53,-50,-32,-24,-13,-2,-3,9,-1,13,12,2,19,9,16,3,2,24,4,29,35,11,-10,-13,32,20,7,22,2,9,12,14,15,-3,9,23,10,-1,-29,-15,-20,-15,-3,-33,-29,-41,-33,-7,-23,-19,-31,-41,-47,-28,10,0,13,19,26,40,-3,-5,0,-2,19,16,7,9,16,-12
2018-05-22,11:04:39.827,-178,-333,123,1091,1839,1047,-305,-457,-559,-592,-407,-264,-254,-254,-239,-253,-256,-278,-279,-279,-302,-308,-286,-253,-232,-164,-120,-64,-4,44,94,152,197,204,215,227,242,212,120,12,-144,-231,-259,-295,-273,-253,-222,-203,-174,-128,-108,-84,-46,-20,14,25,47,45,53,56,77,81,82,88,100,89,93,90,84,72,60,68,67,61,54,29,35,49,43,27,33,36,15,12,25,47,38,23,40,33,14,19,9,19,14,6,-5,-24,-23,-19,-15,-8,19,16,1,5,-10,-68,-67,-68,-71,-57,-60,-71,-72,-67,-161,-363,-262,576,1696,1879,324,-495,-557,-704,-491,-266
2018-05-22,11:04:40.864,-232,-226,-200,-158,-145,-135,-96,-84,-73,-57,-23,-7,9,14,39,82,106,129,154,200,228,240,249,254,251,206,122,1,-149,-264,-363,-419,-410,-393,-380,-362,-323,-306,-287,-261,-259,-240,-216,-203,-197,-191,-175,-150,-133,-118,-112,-101,-71,-54,-65,-66,-43,-47,-43,-26,-28,-34,-20,-4,-2,-9,-9,-15,-15,6,-3,1,0,-2,0,-12,-9,-13,-16,0,-9,-11,-10,1,-3,4,-4,-14,-3,-2,5,34,50,43,30,24,8,-20,-18,-10,-4,-1,4,0,0,-10,-216,-433,-45,1087,2318,1934,104,-456,-622,-628,-410,-319,-290,-246,-200,-177,-153,-128,-100,-93,-74,-50
2018-05-22,11:04:41.901,-39,-25,-2,9,36,59,76,108,149,181,214,232,250,249,227,191,107,0,-138,-211,-276,-322,-323,-310,-284,-246,-233,-210,-207,-205,-195,-177,-154,-135,-119,-99,-78,-70,-52,-38,-36,-33,-26,-21,-3,-10,-3,4,3,14,11,14,12,9,12,14,27,32,11,17,20,24,29,22,27,22,9,7,13,9,1,4,-3,-10,5,15,-3,-12,-10,-5,-17,-10,-24,-9,-1,0,3,22,24,15,1,-15,-17,-20,-35,-32,-32,-32,-25,-9,-39,-208,-413,-38,964,2003,1595,-93,-410,-545,-631,-415,-252,-227,-203,-161,-126,-108,-85,-70,-48,-25,-15,-1,4,23,47,97
2018-05-22,11:04:42.939,118,136,174,210,253,277,292,305,284,257,214,121,-12,-158,-271,-337,-378,-397,-386,-370,-333,-308,-287,-276,-244,-215,-209,-197,-169,-154,-131,-106,-91,-86,-64,-54,-50,-40,-35,-28,-13,-4,-8,-26,-18,-25,-16,-16,-23,-7,0,-2,-5,-5,6,1,-17,-14,-5,-8,-12,-10,-17,-30,-13,-17,-23,-12,-14,-22,-38,-31,-8,-3,4,8,23,8,9,7,-23,-39,-24,-20,-14,-11,-13,-4,6,-26,-195,-372,0,1027,2010,1529,-120,-448,-558,-623,-383,-228,-209,-188,-160,-137,-111,-94,-76,-63,-53,-31,-15,3,32,56,79,99,136,161,217,251,278,293,287,293,293,238
2018-05-22,11:04:43.976,136,-14,-155,-276,-342,-359,-380,-373,-355,-327,-289,-270,-237,-218,-205,-174,-168,-139,-117,-83,-71,-72,-38,-27,-12,7,4,5,-3,10,18,32,41,19,27,32,35,32,24,49,58,52,55,46,59,38,4,1,-23,-6,-4,-13,-33,-56,-58,-100,-106,-118,-135,-137,-156,-146,-146,-151,-133,-133,-137,-139,-123,-106,-108,-86,-82,-83,-80,-78,-48,-55,-46,-38,-93,-75,-80,-80,-57,-64,-65,-68,-63,-125,-379,-483,141,1440,2425,1386,-206,-488,-649,-549,-365,-303,-302,-262,-222,-200,-152,-143,-115,-92,-66,-32,-25,5,32,61,84,98,139,157,190,241,256,273,252,266,266,215
2018-05-22,11:04:45.013,163,50,-66,-162,-218,-237,-256,-242,-243,-240,-218,-226,-182,-157,-144,-124,-122,-108,-101,-78,-56,-58,-28,-21,1,26,22,46,33,40,56,57,49,25,25,22,1,8,11,20,8,0,23,13,14,0,-8,9,-13,-2,-18,-32,-27,-53,-33,-29,-37,-35,-40,-23,-26,-24,-12,-32,-27,-30,-28,-27,-28,-8,-16,-11,1,-5,14,-5,-26,-55,-51,-38,-54,-45,-27,-26,-13,-29,-88,-245,-270,376,1300,1632,425,-447,-432,-575,-511,-295,-184,-175,-167,-129,-109,-79,-61,-62,-30,-8,0,21,49,80,93,122,158,199,257,300,342,383,388,375,353,324,257,119,-23,-162
2018-05-22,11:04:46.050,-262,-315,-364,-371,-375,-363,-355,-357,-354,-369,-371,-351,-336,-314,-271,-236,-212,-181,-143,-124,-111,-96,-75,-60,-34,-32,-42,-27,-13,-10,-6,3,8,16,12,15,12,22,35,30,32,35,31,34,45,47,40,62,45,42,45,42,30,39,20,16,33,36,50,59,60,45,36,32,8,-3,-3,-1,6,7,7,11,5,-29,-183,-365,13,1048,1939,1362,-203,-499,-597,-620,-377,-246,-235,-211,-183,-150,-123,-100,-81,-71,-52,-38,-28,-6,15,43,49,85,119,149,177,217,259,286,300,298,280,238,145,0,-147,-261,-332,-389,-405,-386,-359,-334,-313,-309,-280,-250,-219,-198
2018-05-22,11:04:47.088,-182,-160,-147,-151,-135,-110,-90,-78,-55,-46,-40,-22,-10,-4,-7,-4,-13,-19,-18,-7,1,-7,-11,-13,-7,-5,-7,-12,2,4,-10,-7,-10,-9,-2,5,9,1,-7,-9,0,25,19,17,12,0,4,4,12,6,-3,8,-8,-5,0,0,-1,1,30,14,13,18,-8,-30,-21,-29,-25,-25,-27,-32,-29,-47,-188,-413,-245,726,1925,2043,291,-478,-562,-637,-446,-297,-265,-243,-216,-183,-153,-120,-100,-85,-72,-58,-32,-11,-5,8,16,38,65,85,109,152,178,199,215,229,220,222,171,78,-27,-153,-237,-302,-320,-314,-314,-304,-294,-271,-253,-227,-192,-182,-155,-140
2018-05-22,11:04:48.125,-134,-112,-96,-87,-72,-49,-41,-37,-27,-27,-37,-39,-34,-18,-25,-29,-20,-30,-35,-22,-22,-13,4,-10,-15,-4,2,-4,5,18,15,8,8,30,29,18,15,28,42,40,44,40,9,23,25,23,18,14,16,1,14,19,9,16,0,-12,-16,-8,0,-12,-9,8,35,34,13,23,-7,-18,-10,-18,-12,-18,-29,-32,-38,-36,-197,-393,-44,930,1927,1585,-53,-433,-522,-579,-405,-256,-228,-195,-174,-160,-139,-119,-79,-52,-46,-30,-18,-1,-2,5,40,53,87,115,157,194,225,264,266,256,225,176,116,-14,-165,-277,-356,-402,-438,-437,-412,-401,-366,-352,-320,-307
2018-05-22,11:04:49.162,-296,-266,-257,-228,-197,-176,-144,-137,-120,-101,-100,-77,-72,-65,-59,-61,-47,-54,-40,-37,-36,-16,-21,-8,-1,13,25,33,21,19,21,5,-4,9,16,23,26,10,14,10,5,5,-6,3,1,18,24,19,33,30,36,40,43,51,47,84,89,75,71,56,36,25,24,37,31,40,39,32,24,-40,-230,-313,339,1495,2088,912,-391,-474,-610,-480,-260,-218,-203,-185,-175,-133,-112,-89,-72,-62,-41,-41,-21,-3,16,41,44,70,96,113,152,182,226,228,223,226,212,189,127,17,-111,-226,-292,-344,-354,-342,-323,-301,-288,-264,-256,-241,-199,-183,-158,-137,-134,-122
2018-05-22,11:04:50.199,-104,-58,-56,-63,-29,-16,-10,-23,-29,-29,-38,-27,-32,-29,-27,-33,-26,-30,-7,0,-4,4,7,6,-4,0,12,2,-2,4,8,8,4,17,9,0,11,8,19,10,-3,0,-5,3,5,0,8,4,7,3,13,14,12,25,49,35,27,15,-4,-41,-40,-18,-13,-7,-10,-19,-21,-37,-164,-399,-224,744,1928,1993,261,-532,-601,-644,-417,-307,-289,-266,-251,-225,-198,-164,-151,-138,-114,-104,-79,-54,-32,-16,-18,-6,17,47,89,118,160,195,210,212,223,214,166,103,1,-120,-206,-280,-314,-324,-321,-291,-275,-258,-227,-209,-183,-181,-171,-160,-153,-129,-122,-101
2018-05-22,11:04:51.237,-83,-56,-44,-56,-50,-52,-43,-37,-41,-35,-39,-38,-26,-37,-28,-22,-14,-4,0,11,-1,-5,0,7,15,8,9,9,18,30,14,26,14,11,20,17,30,12,0,10,8,13,9,6,6,4,9,-1,-1,-1,1,5,0,0,8,14,17,2,1,-31,-32,-23,-28,-19,-20,-25,-30,-35,-60,-268,-464,33,1125,2159,1488,-201,-421,-572,-554,-373,-291,-271,-251,-211,-180,-145,-109,-105,-77,-71,-54,-33,-27,-2,0,19,40,49,95,119,139,163,179,198,198,197,170,118,42,-73,-177,-257,-293,-320,-321,-300,-304,-292,-262,-241,-214,-197,-166,-147,-134,-114,-123,-104
2018-05-22,11:04:52.274,-81,-59,-46,-53,-43,-31,-43,-26,-15,1,2,-9,6,7,12,9,1,-5,-5,2,-4,-6,-14,-11,-1,-8,7,14,2,8,11,15,23,23,17,20,30,35,22,32,29,36,32,21,21,14,24,10,-13,1,-3,10,8,12,32,42,48,19,8,-10,-26,-10,-17,-6,-1,3,7,-11,-40,-168,-364,-62,851,1702,1352,-194,-411,-497,-576,-387,-212,-173,-161,-129,-95,-66,-46,-25,0,2,1,19,20,43,50,54,89,108,147,168,205,259,266,268,250,233,198,128,22,-137,-262,-352,-410,-421,-442,-414,-387,-377,-346,-335,-315,-297,-273,-237,-217,-173,-146,-134
2018-05-22,11:04:53.311,-114,-113,-109,-111,-83,-67,-71,-46,-45,-54,-48,-40,-28,-28,-8,-14,-25,-6,-5,-9,-18,-13,0,-1,7,10,17,12,3,18,18,11,14,14,18,14,7,23,0,11,33,52,49,38,29,5,-9,-1,-9,-1,-3,-6,-15,-12,-9,-96,-275,-293,403,1477,1938,676,-388,-467,-603,-504,-277,-202,-197,-158,-133,-103,-86,-68,-42,-25,-8,-5,16,38,55,86,99,121,148,181,205,229,275,291,283,269,242,209,126,-13,-145,-245,-315,-350,-370,-357,-352,-317,-297,-277,-253,-249,-232,-204,-182,-148,-133,-108,-97,-78,-60,-63,-56,-54,-40,-25,-28,-25,-18,-2,-9,-22
2018-05-22,11:04:54.348,-5,-12,-5,-1,-6,-8,-17,-9,-1,-6,-2,-2,7,-7,-3,4,-2,3,2,0,1,0,13,0,-9,10,10,18,5,11,12,6,13,7,18,56,42,20,17,24,-4,-19,-11,-8,-2,-9,-20,-15,-25,-74,-299,-416,275,1439,2197,1012,-346,-497,-655,-548,-353,-297,-275,-249,-204,-173,-141,-121,-112,-91,-81,-62,-54,-34,-7,0,25,45,64,106,122,162,190,193,209,202,206,183,138,38,-109,-204,-269,-316,-332,-344,-322,-292,-278,-254,-238,-200,-197,-187,-162,-154,-131,-128,-117,-101,-86,-61,-52,-43,-39,-33,-20,-23,-19,-15,-31,-22,-9,4,5,15,16,15
2018-05-22,11:04:55.386,14,7,-11,-15,-11,4,-5,-6,0,0,6,7,6,17,28,30,19,9,12,17,11,4,2,9,0,6,-10,4,21,6,7,17,37,53,44,47,28,8,-21,-30,-28,-39,-30,-34,-43,-35,-31,-105,-347,-347,469,1619,2177,638,-387,-465,-612,-490,-325,-268,-261,-237,-195,-157,-126,-115,-91,-47,-35,-25,-26,-13,8,20,61,79,99,137,151,193,230,246,248,242,242,201,117,2,-132,-229,-296,-341,-357,-369,-345,-322,-299,-284,-259,-235,-228,-190,-180,-163,-133,-126,-88,-74,-71,-56,-57,-41,-31,-28,-24,-44,-23,-9,-2,1,-8,3,3,5,11,5,11,-3
2018-05-22,11:04:56.423,2,2,-4,1,-7,5,1,0,11,0,-2,-1,-1,2,-1,21,12,0,0,-7,2,8,6,21,13,38,22,0,14,-10,-21,-26,1,0,-20,0,-2,5,-2,-88,-246,-140,633,1538,1581,168,-392,-407,-547,-432,-227,-172,-134,-110,-89,-68,-58,-31,-17,-9,14,18,23,31,50,84,106,132,164,192,233,262,294,305,310,282,241,210,83,-63,-197,-303,-365,-417,-420,-413,-400,-358,-343,-308,-279,-255,-230,-221,-182,-163,-155,-111,-103,-74,-72,-67,-56,-70,-55,-61,-72,-72,-77,-63,-65,-54,-38,-41,-33,-39,-42,-46,-48,-36,-54,-39,-28,-31,-18,-17,-19,-22
2018-05-22,11:04:57.460,-17,-2,-12,-3,-10,-16,-5,-4,-4,-16,-11,-4,-9,-8,-18,-10,-2,3,31,41,42,37,30,15,-3,-5,-7,-11,-7,0,0,0,-20,-160,-376,-93,876,1878,1644,48,-485,-567,-633,-410,-267,-232,-206,-180,-151,-124,-88,-71,-53,-24,-16,1,17,39,60,67,85,92,137,187,221,258,260,272,273,257,241,175,90,-33,-149,-233,-306,-342,-345,-332,-311,-313,-272,-250,-242,-202,-186,-160,-147,-150,-141,-136,-111,-99,-78,-57,-51,-35,-42,-35,-25,-28,-12,-28,-33,-23,-24,-13,-20,-11,-14,-19,-8,-14,-12,-8,-12,-16,-12,6,-6,-6,8,-7,6,0,1,4
2018-05-22,11:04:58.497,-3,0,-22,-24,-9,-5,-7,-23,-10,-2,-13,-7,-20,-13,-1,-15,-22,-22,-19,-22,-29,-13,-22,-14,8,7,2,4,8,-35,-37,-14,-28,-15,-16,-26,-29,-34,-110,-339,-324,451,1638,2196,812,-389,-495,-648,-503,-318,-269,-256,-232,-189,-174,-153,-125,-105,-71,-50,-36,-28,-29,-16,-12,9,41,68,96,116,157,188,211,233,205,213,193,137,42,-90,-196,-284,-330,-345,-346,-320,-321,-299,-275,-260,-228,-219,-190,-173,-165,-150,-136,-123,-116,-98,-65,-68,-66,-61,-49,-24,-35,-19,-15,-23,-19,-24,-15,-15,-17,-8,2,16,4,7,9,-1,8,5,13,27,31,35
2018-05-22,11:04:59.535,19,26,14,12,23,23,33,20,11,13,-5,17,18,9,18,10,14,7,13,20,6,19,5,6,2,-7,-5,-23,-3,15,0,21,22,24,31,0,-12,-19,-12,-7,-19,-7,-6,-7,-38,-170,-392,-252,704,1902,2166,384,-445,-521,-635,-458,-308,-286,-252,-218,-198,-173,-151,-123,-106,-87,-75,-68,-39,-20,7,2,14,55,71,100,132,166,205,224,247,247,230,225,160,69,-56,-166,-233,-302,-323,-331,-318,-273,-265,-251,-250,-233,-191,-173,-149,-150,-136,-112,-103,-71,-56,-40,-26,-31,-27,-31,-18,-23,-27,-15,-19,-9,-4,-3,5,-9,4,0,6,21,10,24
2018-05-22,11:05:00.572,25,13,21,3,24,25,25,29,14,17,4,5,1,-3,9,0,5,6,-7,-1,-15,0,0,0,7,-11,-6,-11,-14,-5,-25,-12,0,5,25,6,-4,-10,-27,-32,-34,-30,-44,-40,-26,-37,-17,-44,-143,-317,-229,568,1481,1557,99,-460,-462,-605,-474,-282,-225,-199,-165,-121,-94,-77,-51,-31,-4,-6,5,31,30,45,55,83,115,134,173,209,245,280,291,306,288,279,232,137,16,-145,-267,-354,-405,-405,-401,-386,-370,-360,-324,-308,-273,-250,-239,-215,-201,-172,-146,-134,-104,-100,-80,-80,-65,-49,-53,-42,-47,-52,-40,-42,-27,-17,-12,-7,-14,-8,-18,-12
2018-05-22,11:05:01.609,-2,-21,-9,-24,-11,-1,-3,8,-7,4,-2,-7,6,3,23,28,7,9,-10,3,-4,-19,-9,-19,-9,-3,0,5,-6,-1,-8,0,15,0,33,60,43,36,17,-8,-17,-8,2,0,7,8,18,9,-36,-195,-383,107,1166,2002,1282,-247,-470,-597,-594,-364,-253,-224,-210,-183,-144,-131,-101,-91,-79,-55,-47,-12,-3,22,43,48,71,81,116,144,181,230,238,263,274,255,256,189,100,-11,-155,-246,-327,-353,-358,-353,-331,-321,-283,-273,-257,-222,-214,-189,-181,-162,-140,-135,-110,-105,-97,-79,-80,-73,-66,-58,-51,-54,-39,-44,-38,-25,-25,-9,-34,-18,-8,-15
2018-05-22,11:05:02.647,4,-7,8,4,-1,2,-20,0,3,6,23,4,0,-6,1,7,8,16,3,7,7,0,8,-9,4,19,7,7,-1,14,10,-2,18,11,21,26,16,10,-2,6,-3,-12,2,-11,-1,16,9,3,2,-14,-29,-12,-3,-35,-26,-40,-28,-22,-83,-276,-468,7,1150,2178,1590,-106,-493,-607,-614,-400,-317,-292,-259,-226,-192,-177,-127,-101,-90,-49,-49,-26,-9,3,25,27,52,70,83,114,129,172,208,223,232,228,236,215,167,57,-69,-153,-243,-299,-305,-320,-296,-286,-263,-230,-212,-188,-170,-134,-119,-108,-79,-78,-45,-35,-43,-40,-42,-27,-9,-1,2,-3
2018-05-22,11:05:03.684,2,-6,9,21,19,32,16,13,20,1,6,-1,7,16,9,23,11,33,42,29,35,21,31,35,20,5,-3,0,19,21,18,0,-2,-10,-2,2,-8,-11,-3,6,3,-15,-10,-13,-33,-25,-19,-8,-23,-15,-7,-21,-15,-40,-66,-77,-55,-34,-50,-55,-57,-57,-50,-84,-192,-339,-23,844,1567,1100,-289,-465,-503,-596,-405,-240,-203,-175,-157,-137,-109,-73,-52,-43,-24,-25,-12,0,-3,13,28,52,90,108,156,192,235,271,285,301,273,256,206,96,-18,-186,-301,-365,-411,-416,-418,-390,-374,-347,-313,-306,-270,-251,-225,-190,-185,-139,-120,-96,-66,-61,-50,-60
2018-05-22,11:05:04.721,-33,-41,-54,-27,-31,-14,-5,-1,25,33,53,48,40,53,43,43,16,3,19,8,16,3,23,28,0,13,0,5,16,-3,-3,-16,-16,-17,-25,-18,-14,-19,-16,-21,32,23,8,13,-18,-57,3,95,117,113,125,99,103,84,64,31,3,25,26,-65,-190,-296,-445,-129,897,2011,1785,103,-607,-670,-709,-494,-288,-279,-123,-38,-59,-1,-2,16,-79,-79,-22,21,0,-15,-21,-21,-42,20,58,33,-15,114,159,119,206,219,174,158,92,-53,-236,-308,-323,-435,-520,-535,-525,-480,-457,-395,-344,-317,-245,-230,-209,-175,-172,-130,-141,-93,-62,-29,44,75,154,174
2018-05-22,11:05:05.758,160,183,116,140,158,147,201,169,174,155,142,188,173,198,145,115,107,24,24,-36,-45,-6,-15,66,107,202,318,352,363,321,269,226,146,84,63,16,5,9,-27,22,-32,-84,-100,-159,-125,-119,-57,-4,3,92,56,77,57,-23,-159,-383,130,1032,1587,725,-464,-457,-601,-680,-483,-443,-429,-445,-436,-398,-444,-369,-341,-302,-228,-226,-124,-134,-86,-42,-47,34,30,80,118,105,197,209,251,260,213,222,119,5,-152,-309,-375,-479,-477,-480,-479,-386,-411,-341,-321,-314,-244,-239,-189,-178,-142,-84,-96,-44,-42,-22,25,-3,44,16,26,63,18,52,5,24,44,3
2018-05-22,11:05:06.796,55,21,54,44,12,68,25,50,24,-6,34,-22,2,0,5,58,15,38,14,20,41,-13,44,24,26,48,-15,35,8,17,-7,-191,-235,256,1236,1766,756,-396,-496,-568,-519,-285,-120,-139,-90,-63,-72,-11,-45,16,12,8,73,49,112,111,125,160,150,190,182,197,229,228,291,291,300,286,247,216,81,-55,-191,-307,-347,-416,-403,-392,-380,-337,-326,-272,-250,-210,-169,-169,-103,-67,-46,-12,-21,3,6,18,27,0,4,-17,-16,-22,-40,-7,-29,-17,7,0,20,-2,11,-2,-8,21,-1,21,19,14,36,17,25,14,12,17,-4,15,18,16,39,-6
2018-05-22,11:05:07.833,35,22,-13,-9,-32,-9,-34,-15,4,-12,11,-24,-67,-240,-365,200,1192,1850,894,-428,-470,-609,-543,-281,-153,-135,-161,-115,-113,-93,-68,-80,-43,-48,-26,2,-11,27,25,56,84,85,149,170,209,246,247,290,266,271,250,187,104,-59,-164,-259,-335,-347,-386,-364,-340,-325,-281,-283,-254,-242,-214,-169,-189,-155,-142,-133,-104,-115,-80,-89,-70,-55,-81,-51,-71,-67,-62,-69,-47,-66,-42,-38,-56,-28,-35,-25,-30,-34,4,-16,3,-17,-29,2,-13,11,-2,-12,1,-9,16,2,12,27,7,28,0,1,19,18,37,17,30,46,13,27,7,-4,-18,-23,12,-28
2018-05-22,11:05:08.870,-13,-9,-20,10,-33,-175,-422,-148,855,1921,1765,7,-590,-620,-700,-469,-300,-258,-232,-220,-181,-190,-182,-165,-174,-124,-132,-98,-56,-60,-30,-45,5,47,65,128,138,186,216,220,247,226,233,220,180,136,12,-86,-184,-254,-253,-284,-272,-276,-264,-229,-218,-178,-171,-146,-104,-110,-70,-62,-47,-38,-57,-42,-79,-88,-89,-108,-68,-80,-68,-58,-75,-59,-98,-73,-55,-64,-30,-40,-21,-25,-22,-5,-30,1,-2,3,25,15,37,16,20,47,32,58,35,43,57,47,59,39,49,64,49,54,26,47,64,55,82,96,125,114,93,118,64,74,84,84,106,92,104,87
2018-05-22,11:05:09.907,76,51,-164,-368,42,1147,2286,1679,-87,-439,-496,-523,-363,-237,-256,-249,-232,-228,-196,-201,-169,-143,-132,-89,-100,-80,-71,-64,-35,-49,1,46,65,111,135,180,185,164,175,163,172,108,28,-74,-199,-260,-330,-372,-358,-372,-340,-341,-317,-293,-276,-224,-221,-199,-190,-183,-146,-158,-132,-116,-122,-88,-94,-76,-76,-80,-69,-99,-68,-69,-83,-57,-69,-45,-58,-41,-22,-52,-28,-36,-28,-7,-20,2,-20,-14,-2,-28,-13,-35,-19,5,-22,-4,-22,-3,2,3,31,17,33,34,20,23,-15,9,6,-5,21,-9,11,11,-8,-29,-189,-244,335,1197,1549,370,-499,-417,-560,-480
2018-05-22,11:05:10.945,-233,-69,-86,-62,-35,-33,13,13,28,32,47,72,69,89,94,97,136,135,177,195,218,259,268,304,309,287,278,209,177,66,-72,-198,-328,-361,-408,-428,-410,-404,-349,-336,-292,-264,-261,-211,-192,-145,-108,-93,-64,-73,-50,-34,-44,-13,-25,-11,-17,-31,-26,-44,-25,-24,-17,-7,-33,1,-21,-24,-6,-5,2,-5,5,18,-13,-2,-29,-6,7,-3,15,-25,-11,-4,-9,10,12,51,35,2,27,-1,-24,-19,-17,-13,-45,-18,-22,-40,-11,-45,-173,-387,4,1000,1864,1301,-300,-539,-584,-627,-359,-173,-155,-150,-141,-91,-102,-81,-76,-82,-36,-37,-11,-1,1,58
2018-05-22,11:05:11.982,65,83,85,106,155,166,217,217,225,244,215,232,200,127,40,-117,-222,-314,-363,-369,-389,-353,-344,-318,-291,-281,-236,-239,-206,-172,-154,-125,-135,-107,-90,-100,-79,-97,-68,-52,-60,-37,-36,-25,-32,-38,-6,-17,0,-14,-22,3,-21,0,-9,2,19,-1,8,-8,-16,0,-24,0,-13,-12,5,-8,14,1,21,31,7,31,21,30,52,50,83,55,50,50,17,-10,-24,-10,-22,-23,-21,-53,-41,-46,-135,-352,-359,454,1720,2185,671,-624,-647,-744,-532,-305,-284,-266,-276,-250,-231,-229,-178,-155,-116,-89,-60,-19,-19,8,20,18,38,35,69,89,111,126,124,142
2018-05-22,11:05:13.019,134,129,129,113,76,-31,-123,-219,-291,-327,-344,-328,-323,-301,-278,-257,-212,-198,-179,-176,-160,-116,-123,-87,-61,-48,-20,-42,-24,-29,-22,-23,-42,-34,-50,-46,-39,-36,-6,-6,-4,17,32,47,32,38,66,46,57,30,28,32,19,36,22,21,11,-3,8,-10,-3,-6,-13,5,-6,-2,23,33,64,31,18,20,-34,-52,-58,-55,-65,-71,-65,-68,-47,-64,-220,-433,-59,1010,2027,1585,-135,-557,-614,-646,-421,-294,-296,-281,-278,-214,-156,-101,-3,35,85,126,144,150,121,123,131,198,265,289,337,317,327,326,309,341,279,299,297,226,146,5,-109,-218,-285,-302
2018-05-22,11:05:14.056,-368,-318,-312,-270,-222,-248,-175,-179,-169,-114,-125,-89,-107,-94,-77,-89,-25,-59,-43,-30,-57,-16,-40,-4,17,-2,32,-21,0,-3,-10,30,1,11,-10,-14,4,-20,4,-9,-1,32,3,15,-19,-38,-12,-51,-25,-49,-73,-67,-101,-80,-135,-103,-96,-106,-60,-102,-69,-80,-114,-112,-283,-429,-77,796,1522,858,-411,-483,-567,-573,-352,-89,-84,-105,-94,-141,-96,-123,-98,-63,-83,-19,-19,29,69,54,140,130,182,228,218,285,266,324,314,261,299,214,209,98,-60,-147,-321,-342,-413,-423,-371,-399,-329,-327,-311,-287,-345,-299,-348,-361,-343,-408,-359,-360,-305,-237,-229,-147
2018-05-22,11:05:15.094,-155,-114,-67,-95,-81,-86,-85,-124,-173,-206,-217,-229,-202,-185,-186,-148,-155,-76,59,132,227,222,234,243,206,214,190,211,266,332,431,458,541,617,604,429,233,717,1631,2263,1346,-164,-427,-625,-686,-596,-588,-670,-712,-777,-880,-986,-1131,-1242,-1336,-1436,-1523,-1629,-1633,-1618,-1559,-1451,-1369,-1206,-1050,-879,-735,-649,-523,-436,-357,-277,-241,-181,-180,-197,-207,-238,-212,-163,-64,75,176,256,298,363,409,456,506,528,566,591,599,607,601,612,619,616,615,594,597,576,578,572,535,528,515,483,466,448,449,431,413,420,419,430,443,461,435,401,405,351,324,318,304,301,271,278
2018-05-22,11:05:16.131,272,259,236,123,-92,-177,561,1686,2296,980,-86,-188,-379,-373,-214,-174,-184,-166,-155,-137,-139,-93,-74,-60,-16,-14,11,20,18,49,63,79,96,124,166,187,220,225,220,225,217,204,145,36,-73,-205,-289,-348,-367,-350,-342,-318,-312,-289,-249,-253,-231,-207,-180,-186,-203,-180,-171,-170,-154,-112,-75,-58,-28,-13,-12,9,14,17,-10,3,34,38,30,11,48,93,95,83,89,62,29,5,0,-12,-12,-30,-37,7,15,-5,-47,-192,-297,224,1160,1679,616,-492,-488,-636,-605,-371,-221,-199,-163,-132,-101,-46,-40,-3,20,46,114,140,169,180,184,226,245,276,310,350
2018-05-22,11:05:17.168,399,396,417,398,383,361,310,232,76,-62,-182,-291,-342,-374,-368,-345,-344,-333,-338,-304,-279,-257,-217,-211,-200,-197,-146,-116,-120,-107,-109,-106,-81,-93,-65,-55,-58,-39,-42,-24,-22,-27,-22,-27,-6,16,32,43,22,40,1,-19,-4,-18,-11,-49,-44,-27,-32,-32,-62,-156,-358,-212,636,1677,1697,159,-557,-587,-669,-419,-228,-209,-196,-174,-139,-135,-134,-106,-83,-36,-26,5,13,-2,26,35,54,79,109,136,157,201,226,226,259,238,203,164,77,-60,-236,-266,-293,-362,-374,-384,-343,-332,-338,-320,-270,-219,-218,-211,-203,-202,-175,-179,-180,-141,-128,-103,-107,-123,-118,-107
2018-05-22,11:05:18.205,-106,-95,-35,-42,-65,-43,-39,-45,-45,0,57,50,39,32,24,1,-7,-4,-5,-25,-23,-31,-4,-3,0,-69,-301,-317,444,1619,2084,562,-464,-530,-662,-508,-306,-238,-222,-202,-171,-157,-109,-102,-94,-25,-22,-28,-12,21,20,46,80,72,110,114,152,227,249,261,247,255,236,163,110,-12,-169,-228,-289,-340,-369,-346,-333,-329,-308,-244,-216,-214,-202,-195,-172,-134,-100,-72,-60,-62,-50,-46,-74,-65,-7,-12,-28,-38,-31,-40,-33,-32,-53,47,55,39,22,36,28,-39,-45,-30,-34,-33,-32,-6,-9,-19,-23,-141,-324,-130,807,1885,1769,59,-570,-582,-606,-377,-226,-209
2018-05-22,11:05:19.243,-198,-161,-110,-89,-80,-84,-49,-21,-6,1,35,53,55,64,91,123,141,179,206,214,260,280,283,268,204,157,62,-75,-215,-301,-345,-362,-364,-349,-352,-342,-308,-270,-261,-227,-214,-200,-179,-167,-141,-136,-140,-102,-67,-96,-78,-55,-73,-82,-50,-33,-42,-34,-11,-27,-14,22,31,12,27,13,-23,-2,-11,-25,-30,-3,10,0,-15,-3,-50,-276,-362,376,1598,2198,812,-418,-529,-636,-484,-273,-213,-198,-147,-111,-110,-99,-80,-66,-49,-34,17,36,49,73,90,88,102,125,143,168,193,221,236,238,222,221,184,75,-53,-158,-248,-315,-354,-355,-356,-333,-286,-254,-232,-232
2018-05-22,11:05:20.280,-209,-164,-152,-127,-143,-100,-59,-50,-61,-53,-46,-22,-28,-29,-29,-29,-18,-5,-20,-34,10,9,-4,-5,-20,-13,33,67,46,42,46,41,27,3,-9,-6,-5,-4,10,-12,8,20,-45,-223,-380,120,1257,2241,1424,-294,-492,-609,-582,-334,-251,-239,-217,-164,-156,-145,-112,-60,-51,-46,-26,4,22,27,39,56,58,101,155,162,172,235,273,244,238,225,195,112,-21,-119,-194,-284,-307,-315,-314,-301,-282,-268,-259,-234,-199,-179,-167,-141,-122,-117,-113,-103,-102,-80,-41,-39,-58,-89,-76,-67,-44,-24,-25,-41,-43,-37,-18,-27,-32,-26,-20,10,18,-4,1,17,7,12
2018-05-22,11:05:21.317,23,31,18,14,29,46,65,55,40,25,-13,4,10,-18,-4,-8,-24,-37,-23,-94,-287,-281,460,1563,1952,435,-465,-468,-615,-479,-287,-214,-182,-146,-137,-125,-114,-91,-50,-24,-2,12,12,35,55,61,83,108,124,137,194,245,262,288,280,254,212,174,88,-47,-172,-271,-348,-386,-387,-371,-371,-356,-324,-321,-260,-227,-209,-166,-174,-114,-101,-74,-52,-60,-72,-65,-45,-63,-61,-42,-48,-43,-39,-35,-32,-48,-46,-36,-37,-23,-39,-31,-23,-21,-19,-29,0,4,23,55,35,29,19,16,0,-19,-24,-18,-14,-18,-25,-24,-38,-65,-184,-329,-96,776,1728,1506,-102,-484
2018-05-22,11:05:22.354,-526,-632,-408,-226,-159,-147,-100,-64,-50,-21,-24,-4,14,22,42,38,62,96,104,128,140,181,214,243,243,256,291,299,272,234,163,61,-79,-205,-291,-357,-377,-387,-398,-374,-345,-321,-294,-278,-245,-212,-186,-181,-140,-117,-103,-71,-74,-73,-48,-42,-43,-56,-31,-28,-25,-21,-32,-17,-19,-24,-8,-15,-6,-5,0,16,7,22,14,10,13,-7,0,-20,-9,5,8,16,15,47,38,22,35,41,80,65,42,50,18,5,4,-6,-3,-7,-1,-2,-8,-26,-171,-375,-14,1060,2086,1567,-81,-505,-598,-578,-367,-264,-248,-197,-163,-160,-135,-123,-106,-82,-65,-42,-31,-20
2018-05-22,11:05:23.392,5,19,18,20,38,80,107,152,177,212,230,206,201,195,157,73,-50,-162,-264,-316,-348,-366,-355,-348,-312,-294,-270,-248,-224,-185,-176,-158,-143,-134,-111,-104,-94,-84,-79,-43,-47,-59,-45,-39,-40,-52,-37,-26,-31,-27,-33,-15,-9,-21,-20,-29,-25,-11,-4,-3,-15,-15,-14,-18,3,0,-9,-9,8,16,8,19,20,12,8,-7,-12,6,5,0,1,2,0,7,19,24,30,22,17,-21,-13,-2,-1,2,-9,-19,-22,-31,-101,-338,-376,409,1645,2244,755,-418,-506,-639,-480,-301,-261,-249,-224,-186,-172,-150,-133,-120,-98,-68,-43,-35,-47,-27,-14,0,23,55
2018-05-22,11:05:24.429,80,92,113,134,152,177,189,201,174,145,82,-31,-127,-214,-262,-286,-297,-285,-300,-274,-226,-219,-193,-180,-156,-133,-115,-88,-90,-64,-35,-26,-23,-24,-23,-3,9,2,3,4,3,2,-4,-6,22,28,17,22,20,30,18,1,7,4,19,19,9,-3,9,10,-16,-2,35,34,21,3,0,0,-9,-17,-30,-19,3,-14,-32,-34,-15,-9,-7,-2,-22,9,14,5,8,-34,-64,-34,-12,-40,-62,-59,-43,-37,-44,-140,-321,-200,613,1515,1484,-48,-446,-462,-621,-462,-251,-184,-156,-112,-97,-70,-67,-37,-9,-4,-9,2,37,42,57,81,101,122,139,182,220,225
2018-05-22,11:05:25.466,246,242,241,247,216,185,109,-15,-135,-249,-335,-395,-409,-412,-408,-394,-374,-348,-327,-302,-246,-221,-191,-136,-119,-117,-116,-88,-91,-89,-66,-50,-25,-34,-34,-14,-15,-25,-28,-11,-4,-13,-15,-21,-15,0,-11,0,-20,-16,0,-7,-1,-8,25,30,20,19,6,-1,15,11,8,4,5,1,13,22,18,35,52,35,31,34,33,-13,-17,-7,1,2,-15,-6,-3,-33,-154,-342,-110,800,1769,1533,-5,-495,-537,-630,-419,-231,-201,-182,-169,-149,-115,-82,-65,-49,-25,-11,1,12,20,32,41,64,78,98,133,177,217,235,252,252,234,213,181,127,11,-111,-209,-308
2018-05-22,11:05:26.503,-374,-381,-375,-352,-344,-306,-287,-284,-248,-213,-185,-181,-161,-139,-118,-95,-80,-69,-52,-29,-18,-26,-12,11,3,0,-2,5,3,-5,0,-1,1,15,2,14,28,33,28,8,17,34,44,34,16,9,8,10,3,-13,-5,5,14,24,19,8,-3,-4,-20,-23,-28,-19,-7,-13,-9,9,24,11,8,24,19,-20,-29,-16,-22,-1,-13,-7,-16,-16,-163,-426,-119,909,2022,1800,89,-460,-553,-586,-389,-258,-225,-212,-148,-126,-127,-83,-68,-66,-36,-17,-10,-29,16,19,31,43,34,67,89,143,177,166,195,193,197,185,166,132,32,-71,-174,-255,-296,-331,-335,-327
2018-05-22,11:05:27.541,-303,-278,-278,-249,-237,-211,-179,-178,-150,-120,-87,-64,-52,-33,-59,-28,12,-8,-9,-22,-25,-13,-7,-3,-35,-22,19,11,22,6,1,-25,-28,12,2,19,13,13,34,12,3,-9,7,21,7,16,1,-12,10,-13,-4,2,-26,11,4,-3,-31,-52,-57,-84,-70,-53,-56,-11,12,23,7,-12,-48,-67,-36,-30,-35,-41,-32,-45,-35,-15,-194,-355,185,1227,1978,1023,-300,-413,-535,-521,-333,-224,-193,-178,-119,-87,-81,-69,-52,-37,-18,10,7,-2,6,25,41,58,53,127,138,176,213,236,255,237,224,226,186,98,-56,-172,-271,-352,-419,-430,-435,-429,-402,-373
2018-05-22,11:05:28.578,-339,-296,-268,-256,-179,-154,-152,-159,-135,-91,-81,-90,-93,-69,-44,-45,-53,-49,-54,-16,11,-5,-25,-12,-10,-5,2,17,17,19,30,37,25,27,49,42,27,27,22,28,31,32,15,16,11,26,52,34,-2,-11,0,18,23,26,45,47,38,42,12,-4,1,-7,-15,-23,-4,2,-3,-33,-141,-307,-156,688,1698,1720,125,-504,-506,-627,-430,-260,-217,-185,-151,-120,-104,-91,-88,-87,-70,-38,-30,-8,17,37,50,42,67,103,132,163,194,236,279,293,265,253,214,150,43,-105,-215,-296,-358,-389,-371,-350,-341,-333,-310,-283,-245,-243,-214,-190,-176,-161,-157,-109
2018-05-22,11:05:29.615,-93,-76,-48,-56,-37,-32,-34,-53,-59,-47,-48,-42,-41,-28,-11,-12,-14,-24,-22,-33,-32,-14,5,-1,-15,-8,0,0,-1,-9,-14,-12,-3,-10,-5,0,17,15,8,14,3,5,3,12,24,21,32,24,11,25,22,28,36,31,18,27,2,-25,-31,-31,-8,-16,-32,-6,2,-26,-168,-392,-141,851,1985,1921,129,-511,-547,-616,-423,-303,-270,-246,-227,-204,-186,-159,-133,-101,-88,-74,-42,-45,-39,-18,-12,13,36,52,77,105,156,174,188,200,208,226,214,145,53,-75,-163,-253,-307,-326,-343,-339,-313,-287,-252,-234,-224,-209,-177,-172,-173,-160,-123,-88,-70,-68
2018-05-22,11:05:30.652,-67,-54,-41,-31,-30,-21,-16,-21,7,6,-16,-30,-18,-31,-21,-7,-13,-8,-9,13,36,26,17,-10,-4,-10,-4,-1,14,2,-11,1,14,2,-12,-20,-25,-5,-10,-16,-17,-15,-9,-7,-15,-21,-26,-27,-2,-4,-20,-14,-14,-28,-30,-29,-4,24,9,6,4,-26,-26,-23,-24,-17,-14,-23,-12,-25,-52,-215,-437,-8,1064,2054,1435,-257,-448,-557,-587,-391,-271,-240,-212,-176,-147,-137,-121,-88,-71,-64,-49,-18,-8,6,30,43,67,101,138,170,182,234,258,280,291,290,272,223,133,17,-110,-232,-330,-371,-379,-386,-358,-353,-339,-314,-302,-271,-234,-215,-182,-157
2018-05-22,11:05:31.690,-127,-112,-85,-72,-69,-63,-63,-59,-47,-58,-56,-49,-30,-16,-4,-6,-17,-9,-31,-27,-8,-23,-13,0,-2,9,16,23,13,25,27,14,12,-2,-11,-7,19,24,0,8,14,11,10,9,4,-3,-3,9,20,14,8,15,27,33,41,30,13,0,-10,-10,-9,-16,-11,0,8,7,-60,-253,-286,388,1442,1932,694,-433,-455,-606,-502,-266,-200,-175,-137,-106,-84,-63,-34,-32,2,25,19,30,45,59,62,75,107,131,155,192,224,267,284,303,294,274,245,185,89,-49,-201,-308,-369,-425,-434,-412,-384,-383,-357,-352,-334,-296,-265,-256,-224,-177,-155,-140,-132,-116
2018-05-22,11:05:32.727,-67,-43,-44,-30,-30,-16,-13,-23,-19,-25,-9,-4,-9,-15,-2,6,-9,-7,-11,-7,4,-2,4,0,-19,-3,-5,4,-10,10,22,6,15,20,27,31,23,11,3,15,9,-6,11,12,3,5,9,19,16,24,29,9,4,9,18,20,18,17,29,16,8,13,-13,-38,-16,-9,-19,-8,-6,-20,-22,-37,-205,-444,-71,1042,2205,1853,-23,-493,-581,-582,-382,-301,-271,-231,-206,-164,-156,-133,-95,-74,-73,-62,-39,-31,-16,-2,9,22,34,51,83,112,143,182,206,224,234,241,217,168,81,-48,-188,-275,-308,-349,-363,-338,-314,-313,-312,-299,-266,-243,-212,-195
2018-05-22,11:05:33.764,-177,-170,-157,-124,-103,-86,-74,-56,-45,-42,-31,-24,-21,-37,-17,-8,-9,-1,0,-7,-4,0,5,0,-8,-11,-5,15,2,7,17,28,22,27,13,6,0,9,3,-14,0,-2,-2,-19,-23,-3,5,0,7,7,15,11,6,16,9,-8,-20,-14,-26,-22,-20,-23,-23,-3,-14,-33,-43,-26,-7,-10,14,25,3,-1,-2,-20,-14,-19,-21,-20,-36,-28,-26,-47,-134,-342,-298,500,1568,1929,491,-420,-462,-613,-511,-310,-257,-270,-216,-174,-167,-139,-92,-83,-74,-41,-50,-34,-10,18,43,66,106,124,177,209,245,303,322,363,380,363,350,292,204,47,-86,-215
2018-05-22,11:05:34.801,-326,-321,-363,-358,-318,-296,-248,-223,-182,-141,-118,-56,-31,-6,6,2,16,20,28,28,26,33,23,19,26,42,22,-27,-50,-80,-92,-118,-146,-159,-137,-143,-143,-130,-113,-108,-114,-96,-78,-80,-97,-122,-133,-129,-77,-93,-104,-98,-97,-95,-87,-85,-83,-100,-95,-105,-114,-110,-108,-92,-85,-62,-30,-29,-41,-43,-70,-116,-105,-84,-91,-103,-83,-67,-53,-66,-136,-317,-354,334,1420,1882,617,-436,-484,-625,-520,-284,-208,-199,-159,-106,-80,-82,-62,-41,-18,-3,-1,-7,-6,15,27,54,62,69,102,109,140,190,219,240,251,239,221,193,125,-5,-125,-230,-340,-369,-375,-384
2018-05-22,11:05:35.839,-380,-346,-308,-289,-249,-212,-190,-175,-123,-63,-41,-28,-10,-3,30,54,79,81,74,89,91,86,102,87,74,72,59,55,51,56,69,72,69,68,85,77,65,42,48,55,39,48,29,22,25,4,6,34,35,25,32,39,14,42,42,3,-3,0,0,-37,-7,36,16,-20,-22,-23,-13,-11,-28,-37,10,39,15,-6,-20,-44,-35,-28,-6,-17,-29,11,23,-9,-153,-392,-272,658,1899,2104,458,-512,-599,-667,-481,-333,-304,-281,-238,-210,-197,-165,-137,-130,-126,-95,-91,-95,-50,-7,-17,-17,3,36,57,67,89,133,172,178,177,175,226,225,153,44,-66,-167
2018-05-22,11:05:36.876,-258,-310,-331,-345,-367,-294,-240,-239,-229,-207,-192,-179,-166,-158,-129,-114,-106,-84,-55,-55,-47,0,-3,-22,-32,-1,-4,-12,-36,5,39,17,16,31,23,25,36,31,10,15,8,5,23,26,20,26,31,52,29,-5,24,-2,-16,-12,-20,-12,3,-16,-63,-40,-67,-65,-29,-44,-50,-47,-52,-55,-41,-51,-86,-36,-18,-16,-12,-4,22,25,53,37,-13,31,15,-35,-33,-29,-43,-48,-45,-50,-56,-46,-155,-343,-103,826,1806,1636,-13,-434,-433,-549,-393,-236,-162,-134,-114,-102,-47,-27,-32,-18,-9,11,22,22,30,31,39,47,77,97,149,173,189,238,278,284
2018-05-22,11:05:37.913,271,262,253,181,65,-64,-198,-292,-368,-408,-400,-377,-358,-347,-325,-305,-300,-288,-257,-228,-222,-219,-188,-148,-127,-93,-82,-80,-64,-45,-44,-43,-29,-11,-22,-28,-23,-19,-46,-29,-23,-26,-17,-14,-5,1,6,14,5,-24,-12,-5,-5,-11,-8,-11,-16,-14,-18,-30,-29,-22,-35,-49,-28,-31,-42,-33,-42,-27,-15,-5,6,1,35,8,-47,-42,-57,-64,-70,-67,-54,-62,-45,-32,-12,-34,-180,-349,-38,965,1960,1586,-53,-534,-588,-626,-409,-262,-249,-221,-178,-141,-105,-78,-43,-29,-19,3,21,37,41,37,49,84,96,125,153,179,226,257,283,312,292,283,282,223
2018-05-22,11:05:38.950,130,-11,-138,-237,-321,-348,-341,-353,-322,-316,-309,-276,-263,-245,-220,-179,-154,-158,-140,-120,-89,-69,-62,-54,-61,-44,-61,-42,-33,-31,-27,-33,-12,-5,1,18,11,5,5,-5,0,-3,-11,-7,-1,0,1,-17,-33,-43,-25,-16,-20,2,10,6,-6,-3,0,4,5,-1,3,13,19,8,-22,-11,2,-2,-18,-19,-27,-9,1,-6,-8,-1,-8,-3,-11,-8,9,-3,-18,-24,-43,-35,-29,-22,-30,-28,-18,-23,-16,-71,-289,-427,168,1380,2321,1324,-323,-535,-640,-546,-341,-295,-304,-272,-229,-195,-158,-124,-99,-98,-87,-62,-55,-35,-24,-22,-12,22,55,75,86,119
2018-05-22,11:05:39.988,143,168,195,196,190,192,194,185,120,-22,-134,-212,-285,-313,-325,-320,-305,-275,-236,-207,-194,-184,-172,-156,-137,-133,-122,-111,-70,-71,-70,-59,-66,-39,-15,-24,-4,6,5,8,7,-1,2,4,-8,16,16,5,14,7,14,19,10,8,8,18,13,7,5,4,11,12,17,12,14,18,10,14,21,9,20,14,1,13,10,14,23,24,16,0,11,27,22,14,13,5,-6,-2,4,9,8,1,46,63,48,54,35,12,14,24,13,11,-3,-13,-9,-12,-110,-336,-326,425,1466,1830,468,-405,-414,-551,-465,-268,-184,-179,-153,-116,-84,-87,-79,-45,-39,-39
2018-05-22,11:05:41.025,-7,4,-12,-23,8,5,35,74,100,120,155,209,234,245,248,238,216,168,106,-5,-167,-283,-350,-422,-478,-469,-432,-433,-406,-379,-370,-324,-289,-270,-218,-162,-131,-117,-77,-73,-62,-57,-53,-59,-70,-49,-42,-43,-42,-28,-23,7,-3,4,18,10,23,8,9,10,2,7,-16,3,9,11,12,1,-10,-31,-30,4,3,-12,-22,-32,-37,-20,-23,-37,-35,-33,-37,-39,-47,-48,-45,-50,-58,-61,-38,-34,-16,-4,15,23,16,2,-30,-58,-44,-22,-25,-36,-10,-3,-20,-32,-121,-336,-197,696,1821,1921,336,-467,-521,-621,-413,-240,-204,-196,-163,-140,-117,-97,-73,-58
2018-05-22,11:05:42.062,-26,-13,0,0,19,35,59,85,91,102,120,153,186,220,247,276,283,284,257,229,156,48,-78,-185,-277,-329,-331,-326,-323,-288,-282,-258,-224,-201,-192,-180,-155,-137,-118,-104,-90,-72,-51,-58,-40,-20,-33,-30,-26,-3,-15,-15,-12,-28,-26,-13,0,-16,-5,6,9,-7,-15,-13,-7,-17,-9,-17,-40,-28,-13,-28,-8,11,8,9,12,19,20,-1,5,24,27,21,10,-2,13,-4,-25,-18,2,-2,-23,-18,-17,-17,-26,-36,-46,-27,-27,-17,-35,-38,-44,-30,-22,-34,15,6,-10,0,-21,-19,-17,-4,-2,-2,-13,-16,1,-38,-252,-409,138,1350,2397,1569
2018-05-22,11:05:43.100,-242,-494,-613,-545,-377,-299,-281,-250,-220,-203,-181,-166,-134,-102,-88,-94,-76,-24,-17,-14,-14,0,21,47,70,81,132,163,181,211,208,199,213,189,136,34,-78,-164,-257,-306,-309,-299,-278,-272,-257,-250,-209,-186,-163,-149,-149,-133,-114,-100,-83,-57,-58,-61,-54,-19,-2,-6,-21,-23,-7,-11,0,1,-7,-10,-5,16,9,-7,-3,11,-7,-20,-28,-18,1,3,-12,-7,-6,10,18,-10,-9,9,12,2,-10,-12,-12,-24,-29,-28,-26,-17,-10,-1,-17,-28,-25,-5,0,3,0,-11,-31,-24,1,10,-2,20,24,-6,-5,-25,-50,-33,-34,-46,-38,-23,-25,-26
2018-05-22,11:05:44.137,-26,-100,-289,-274,477,1441,1670,252,-459,-450,-561,-477,-291,-214,-207,-185,-163,-131,-101,-86,-55,-46,-18,4,25,35,33,38,84,106,135,167,214,240,281,307,297,293,289,285,237,111,-3,-140,-276,-369,-422,-432,-432,-440,-408,-371,-357,-361,-302,-270,-274,-238,-214,-197,-167,-142,-136,-136,-132,-130,-118,-106,-97,-72,-60,-49,-45,-24,-10,-11,-1,0,-21,11,19,5,6,2,7,22,16,0,1,15,14,5,6,21,39,38,32,13,25,52,28,19,32,41,42,33,24,32,30,35,21,23,14,21,27,4,1,23,73,56,31,38,-3,-22,-7,-11,-31,-29
2018-05-22,11:05:45.174,-27,-28,-35,-73,-247,-406,90,1232,2186,1436,-194,-509,-612,-576,-365,-298,-287,-242,-194,-178,-166,-144,-130,-101,-57,-40,-31,-41,-45,-23,-16,8,35,44,64,84,114,146,178,200,196,171,184,165,77,-9,-108,-217,-277,-313,-334,-342,-322,-302,-290,-262,-243,-228,-198,-157,-141,-142,-122,-93,-81,-57,-31,-12,-13,-14,-10,-16,-16,-12,3,23,16,14,4,13,31,44,34,25,44,31,18,27,9,0,4,16,24,11,8,-10,-24,-3,-16,-18,-10,-7,-18,-24,-20,-41,-33,-14,-12,-11,-7,-11,-5,-22,-17,-4,-9,-17,-31,-9,-34,-17,-2,-25,-20,-4,4,1
2018-05-22,11:05:46.211,30,52,37,35,3,-27,-9,5,17,-9,-3,14,7,0,-142,-395,-237,696,1975,2212,437,-483,-549,-634,-460,-329,-317,-293,-253,-208,-180,-162,-156,-117,-85,-49,-28,-27,-7,8,12,13,30,47,74,127,151,165,216,247,263,259,260,257,214,120,3,-120,-213,-279,-291,-301,-310,-276,-257,-231,-236,-227,-214,-212,-181,-158,-142,-125,-127,-97,-62,-47,-52,-43,-32,-35,-28,-18,-25,-23,-31,-17,-3,-19,-19,-31,-19,-23,-22,-22,-37,-34,-39,-44,-3,-7,-28,-38,-15,-9,9,7,-3,-6,-17,-21,-17,-25,-28,-21,-16,-20,-12,11,7,8,4,-33,-42,-16,-19,-42
2018-05-22,11:05:47.249,-46,-46,-32,-34,-16,-2,-44,-61,-36,-26,-42,-45,-50,-50,-49,-57,-134,-309,-203,565,1493,1616,127,-474,-435,-595,-476,-274,-192,-181,-171,-119,-108,-76,-52,-38,0,16,8,20,28,42,46,82,98,126,156,180,243,272,290,298,298,292,281,230,148,43,-86,-237,-336,-389,-415,-402,-401,-381,-375,-337,-291,-281,-266,-234,-202,-175,-159,-134,-116,-107,-83,-93,-64,-49,-72,-84,-88,-68,-71,-55,-46,-38,-27,-32,-30,-23,-18,-17,-21,-23,-22,-26,-15,-21,-6,-4,-13,-22,-10,-4,-8,-6,-4,-3,-5,-1,7,13,-3,-7,14,36,40,14,2,-1,13,40,18,28
2018-05-22,11:05:48.286,37,62,44,44,38,12,13,13,17,31,42,52,33,20,8,-148,-345,-6,1031,2079,1698,-40,-522,-588,-611,-395,-267,-247,-222,-191,-159,-125,-118,-105,-80,-66,-18,-13,-24,-12,-19,-19,0,4,32,49,87,102,139,210,229,226,228,220,193,148,42,-85,-200,-296,-337,-339,-349,-340,-326,-296,-268,-243,-209,-187,-173,-163,-156,-141,-130,-116,-92,-99,-91,-69,-63,-62,-62,-44,-39,-41,-46,-30,-8,-27,-45,-25,-24,-12,-15,2,20,23,22,19,22,41,39,34,24,27,28,24,28,21,21,9,10,35,23,23,20,9,14,14,19,14,-2,3,7,20,11,4
2018-05-22,11:05:49.323,20,7,-2,-5,15,16,4,-5,6,13,17,17,29,39,42,24,5,2,-5,1,-3,-10,-12,-24,-26,-16,-84,-323,-382,342,1597,2319,974,-400,-532,-651,-544,-371,-323,-287,-246,-220,-202,-181,-140,-124,-124,-98,-78,-60,-62,-42,-38,-16,3,15,43,68,98,134,156,158,170,185,188,179,160,98,2,-104,-204,-267,-305,-321,-319,-298,-275,-265,-251,-196,-176,-168,-160,-129,-103,-97,-82,-48,-46,-55,-51,-16,-18,-28,-12,-6,-6,-7,-2,11,-13,9,11,16,30,32,38,39,37,28,16,21,18,19,13,17,33,18,12,16,13,19,7,0,0,6,12,-2
2018-05-22,11:05:50.360,0,0,0,-11,-33,-24,-16,-18,-25,-28,-19,-12,-13,-27,-22,-38,-55,-50,-36,-40,-26,-15,4,-7,-5,-9,-50,-45,-38,-30,-33,-52,-46,-61,-41,-51,-174,-357,-122,787,1722,1499,-54,-462,-493,-582,-418,-249,-200,-181,-168,-145,-115,-82,-65,-39,-19,4,0,16,17,23,52,72,96,142,170,207,253,305,330,343,337,300,289,274,200,71,-92,-194,-295,-357,-384,-391,-379,-375,-334,-317,-318,-297,-265,-218,-212,-179,-133,-126,-120,-109,-102,-93,-87,-73,-97,-68,-39,-47,-35,-30,-33,-11,-29,-22,-33,-27,-11,-18,-20,-39,-41,-23,-26,-35,-45,-22,-7,-33,-31,-44
2018-05-22,11:05:51.398,-40,-29,-23,-14,-15,-19,-20,-6,10,-7,-10,-14,-15,-9,6,21,3,7,14,0,0,-10,-5,-5,-4,12,9,-10,2,2,-22,-45,-55,-38,-29,-42,-54,-52,-50,-67,-226,-418,-59,1001,2017,1641,-41,-468,-558,-577,-345,-210,-200,-189,-172,-156,-144,-98,-81,-70,-48,-36,-4,5,-11,16,55,84,93,114,160,180,197,222,232,250,272,278,268,253,221,105,-24,-161,-271,-350,-394,-407,-399,-404,-389,-368,-345,-308,-257,-237,-215,-207,-212,-216,-210,-197,-189,-187,-190,-183,-159,-138,-120,-116,-113,-111,-98,-79,-64,-63,-56,-52,-34,-37,-18,-17,-29,-36,-36,-16,-26,-34
2018-05-22,11:05:52.435,-31,-36,-29,-19,-19,-16,-8,3,8,5,15,17,7,9,1,7,19,21,11,17,10,15,13,17,42,44,31,30,59,49,54,71,57,94,121,100,98,88,52,37,42,50,30,45,47,38,27,-50,-259,-357,321,1573,2414,1122,-336,-466,-603,-499,-319,-287,-250,-222,-199,-168,-151,-132,-108,-95,-70,-46,-40,-47,-22,6,14,33,61,87,102,115,147,183,217,225,212,226,230,230,171,45,-51,-142,-215,-279,-306,-311,-311,-296,-294,-296,-262,-250,-273,-252,-242,-219,-185,-146,-150,-159,-135,-132,-118,-101,-74,-61,-67,-74,-58,-24,-23,-17,-17,-9,15,11,14,18
2018-05-22,11:05:53.472,13,28,32,19,32,43,44,43,43,57,54,44,28,33,32,29,27,22,26,42,9,9,36,36,8,-17,-23,0,0,-19,-26,-21,-12,-7,-18,-2,-6,-39,-59,-87,-79,-63,-66,-68,-56,-86,-63,-50,-77,-224,-369,171,1143,1774,794,-412,-409,-535,-542,-348,-212,-180,-152,-108,-68,-33,-13,3,32,61,76,72,61,55,56,56,114,118,169,214,237,258,280,309,326,314,284,241,183,84,-42,-187,-291,-366,-412,-435,-420,-385,-368,-357,-350,-316,-300,-282,-240,-214,-186,-142,-123,-107,-101,-113,-110,-96,-88,-77,-68,-58,-47,-34,-17,-18,-23,-10,0,-6,-21,-13
2018-05-22,11:05:54.509,-25,-38,-25,-15,-17,-34,-31,6,20,26,23,10,15,28,26,1,-3,2,0,3,3,0,-11,9,13,-9,-4,0,-8,-20,-21,-10,-16,13,25,9,12,-7,-23,-19,-18,-19,-12,-15,-12,-5,-1,-74,-281,-318,403,1624,2234,842,-437,-517,-618,-492,-315,-268,-257,-213,-173,-160,-141,-117,-84,-67,-45,-43,-43,-24,-14,-8,-5,24,58,84,119,119,168,184,199,220,215,212,207,181,115,14,-86,-181,-257,-304,-319,-302,-270,-278,-269,-245,-224,-191,-185,-161,-154,-160,-130,-106,-100,-83,-51,-54,-60,-61,-42,-37,-24,-19,-16,-20,-31,-52,-47,-51,-39,-34,-35,-39
2018-05-22,11:05:55.547,-36,-26,-21,-14,-20,-29,-16,-34,-17,4,-10,-13,-3,0,14,25,10,0,1,4,-7,-28,1,23,8,-26,-23,1,0,-3,-5,-13,-24,-18,-11,-19,-14,0,19,46,39,20,31,11,-7,-14,0,0,-8,9,15,21,6,-106,-369,-299,570,1823,2245,611,-423,-498,-591,-446,-299,-267,-257,-213,-176,-140,-120,-92,-35,-17,-22,-13,3,9,12,42,49,57,73,92,102,138,178,208,226,237,223,231,237,203,124,18,-88,-192,-250,-279,-303,-296,-272,-274,-260,-235,-205,-190,-174,-150,-137,-141,-113,-72,-63,-48,-41,-45,-54,-40,-26,-24,-20,-17,-15,1,8,-5
2018-05-22,11:05:56.584,0,9,23,30,21,21,15,16,-4,-20,-31,-49,-40,-30,-21,-15,-23,-12,-1,-7,-4,-5,-12,-30,-56,-53,-49,-59,-46,-58,-72,-86,-90,-86,-83,-75,-70,-55,-32,-48,-51,-43,-70,-78,-70,-77,-68,-69,-71,-74,-80,-96,-184,-355,-213,577,1492,1499,24,-468,-478,-585,-430,-241,-179,-151,-120,-98,-70,-43,-18,7,26,35,41,31,43,59,69,100,140,153,169,181,228,276,296,299,303,309,282,239,150,26,-97,-228,-329,-374,-405,-404,-395,-374,-350,-329,-299,-279,-258,-239,-215,-184,-149,-129,-109,-98,-101,-82,-69,-65,-32,-28,-31,-29,-23,-14,-11,-12,-32,-32
2018-05-22,11:05:57.621,-15,-14,3,-11,-15,-23,-18,-19,-22,-27,-27,-32,-34,-24,-33,-28,-9,-30,-44,-31,-34,-35,-33,-17,10,28,3,1,1,-8,-14,-32,-10,-1,15,30,45,49,42,38,18,1,-5,-7,-6,-11,-18,-4,-35,-52,-197,-412,30,1114,2114,1526,-176,-537,-613,-610,-400,-280,-262,-241,-199,-161,-135,-111,-104,-75,-68,-57,-38,-41,-23,8,20,15,42,89,115,134,160,172,199,208,204,207,194,198,163,76,-32,-152,-214,-272,-307,-321,-333,-317,-292,-261,-249,-240,-217,-198,-164,-144,-120,-102,-92,-68,-72,-71,-59,-66,-58,-59,-72,-67,-65,-74,-78,-71,-62,-73,-75,-72
2018-05-22,11:05:58.658,-67,-68,-75,-62,-67,-68,-60,-62,-55,-60,-64,-60,-53,-26,-26,-19,-17,-24,-8,-8,-11,-8,-10,-4,11,36,32,34,43,39,49,48,36,44,36,26,13,16,23,16,38,39,42,73,77,61,55,47,29,19,30,20,18,13,9,16,1,-36,-210,-412,28,1144,2240,1699,-51,-473,-566,-542,-354,-284,-267,-237,-194,-185,-167,-127,-101,-70,-72,-65,-24,9,20,13,48,56,71,119,128,141,173,182,215,236,252,241,229,207,164,118,-7,-129,-191,-270,-289,-288,-289,-294,-268,-228,-220,-206,-187,-178,-147,-133,-135,-115,-93,-75,-92,-109,-102,-80,-57,-79,-73,-61
2018-05-22,11:05:59.696,-54,-32,-40,-38,-54,-76,-58,-68,-81,-94,-110,-94,-102,-85,-93,-105,-87,-107,-112,-130,-120,-82,-62,-41,-48,-42,-14,-17,7,-19,-20,-6,-22,-11,-23,-11,-10,-21,7,-6,-20,-10,0,31,16,34,39,15,15,-29,-32,-18,-30,-38,-47,-13,-10,-13,1,-82,-243,-252,408,1347,1637,405,-429,-418,-557,-497,-273,-197,-190,-152,-140,-113,-97,-37,1,3,28,22,20,29,31,40,40,77,112,139,183,193,230,268,272,291,265,252,227,169,96,-32,-154,-278,-350,-383,-408,-397,-399,-364,-337,-341,-297,-277,-244,-214,-193,-154,-152,-130,-122,-131,-106,-103,-103,-88,-79,-66
2018-05-22,11:06:00.733,-76,-67,-55,-44,-31,-42,-5,-5,-22,-7,-21,-4,-11,2,18,0,22,20,26,33,18,16,-5,-3,6,-3,15,13,23,18,21,28,3,9,-16,-1,18,13,33,31,37,70,48,44,39,12,8,15,25,10,3,14,22,33,13,-83,-307,-256,597,1747,2043,543,-472,-550,-667,-507,-324,-307,-267,-243,-198,-167,-155,-115,-110,-51,-52,-43,9,-9,1,0,13,58,68,95,117,161,193,187,224,238,245,241,217,193,115,16,-87,-196,-229,-295,-318,-326,-314,-261,-255,-251,-231,-200,-168,-167,-162,-149,-123,-96,-107,-86,-69,-57,-45,-60,-44,-61,-52,-17,-40,-20
2018-05-22,11:06:01.770,-39,-43,-34,-27,-5,-21,-19,-12,-5,9,0,-8,-14,-15,-4,-14,-1,-5,-14,14,24,13,-8,2,15,0,6,7,5,20,13,43,21,6,29,20,28,6,16,18,8,13,7,36,61,23,20,40,25,-1,-14,10,-3,17,28,31,33,-17,-165,-377,-68,947,2055,1880,154,-435,-488,-567,-380,-290,-267,-217,-218,-183,-153,-128,-112,-108,-81,-73,-61,-68,-70,-72,-66,-59,-47,-2,52,89,120,146,177,225,206,211,222,211,184,105,17,-63,-158,-221,-268,-274,-293,-304,-271,-289,-246,-215,-204,-169,-179,-124,-103,-95,-85,-103,-81,-102,-123,-63,-33,-39,-77,-40
2018-05-22,11:06:02.807,-28,-42,-20,-45,-50,-56,-64,-62,-65,-44,-31,-22,-8,-34,-20,-21,-16,7,15,21,15,16,5,-4,-6,-40,-56,-28,-48,-28,-25,-18,-30,-34,-23,-47,-22,0,-2,26,8,-13,-6,-53,-64,-48,-22,-22,-17,-10,-29,-27,-26,-99,-255,-184,585,1502,1571,146,-456,-445,-593,-494,-292,-209,-162,-117,-89,-77,-64,-26,-20,-22,18,12,30,34,61,63,87,129,149,172,201,222,264,289,329,334,323,308,252,185,71,-73,-202,-309,-346,-349,-344,-347,-360,-351,-337,-308,-283,-291,-267,-228,-186,-166,-172,-143,-124,-110,-112,-112,-92,-111,-94,-77,-95,-81,-72,-60,-68,-58
2018-05-22,11:06:03.845,-27,-17,0,6,5,4,26,38,-1,-7,22,14,1,0,-8,-20,-18,-11,1,9,3,23,38,11,20,19,8,4,-12,-15,-20,-9,2,0,3,15,18,8,-14,-38,-52,-44,-39,-46,-35,-6,11,35,30,-61,-288,-265,547,1732,2093,539,-502,-539,-633,-478,-305,-253,-246,-232,-216,-202,-178,-136,-104,-75,-53,-31,-17,-10,-11,-7,-13,40,65,86,107,132,163,218,228,224,227,210,211,200,143,38,-86,-194,-269,-309,-329,-325,-312,-292,-270,-264,-244,-205,-188,-167,-158,-145,-103,-74,-80,-52,-36,-27,-15,-18,-24,-14,-14,-4,3,0,13,50,53,69,71,67
2018-05-22,11:06:04.882,70,45,23,34,17,-13,-14,18,19,22,16,8,9,9,-9,-8,-17,-27,-1,12,25,38,59,54,50,57,39,6,3,22,33,29,43,69,79,111,97,97,76,44,27,24,17,-2,-8,-7,-17,-17,-54,-157,-369,-103,867,1864,1617,-73,-495,-571,-656,-482,-346,-309,-289,-255,-222,-199,-163,-132,-131,-92,-70,-68,-63,-70,-62,-16,-4,5,60,90,105,154,209,226,234,244,245,242,191,167,72,-56,-178,-277,-337,-385,-391,-378,-355,-337,-325,-290,-268,-241,-223,-203,-143,-124,-128,-107,-112,-95,-78,-74,-35,-16,0,5,34,49,53,39,7,16,33,10,-12,22
2018-05-22,11:06:05.919,26,17,5,30,9,10,6,16,12,16,25,5,-15,-8,-8,-2,-16,-12,-31,-45,-24,1,1,16,23,6,-18,-44,-68,-81,-87,-92,-113,-112,-110,-112,-112,-131,-249,-390,4,937,1685,1055,-353,-494,-531,-574,-365,-206,-164,-135,-93,-56,-17,-9,-1,22,30,39,35,26,38,50,69,93,111,147,188,218,251,286,301,314,325,299,252,204,116,-26,-136,-237,-335,-383,-364,-351,-338,-326,-301,-271,-243,-237,-247,-199,-153,-145,-111,-90,-77,-66,-62,-61,-47,-27,-40,-49,-38,-54,-64,-76,-68,-62,-59,-50,-47,-34,-6,-2,-8,-7,1,4,-16,-4,-6,-44,-28,3
2018-05-22,11:06:06.956,-4,-13,-19,-25,-11,11,-2,-50,-20,4,-18,-15,-31,15,36,42,29,28,47,16,-29,5,23,-12,-17,-38,-59,-70,-54,-167,-372,-191,743,1891,1858,241,-522,-589,-637,-419,-264,-258,-225,-175,-160,-140,-117,-96,-74,-68,-33,-19,-22,-2,-2,-3,11,37,55,74,104,146,186,213,238,259,256,234,225,199,105,-22,-127,-228,-305,-331,-339,-328,-310,-288,-278,-267,-242,-211,-195,-175,-167,-150,-128,-117,-86,-80,-48,-28,-23,-27,-31,-17,-24,-34,-41,-39,-38,-51,-23,-6,7,23,15,23,40,24,28,22,13,4,-6,11,16,24,17,28,18,15,25,2,-13,-28
2018-05-22,11:06:07.994,-24,-29,-12,-14,-13,-19,-13,1,8,0,-26,-42,-53,-16,5,15,31,8,-5,-3,-23,-31,-25,-26,-27,-34,0,-18,-20,-27,-141,-379,-231,706,1938,2129,435,-479,-533,-593,-423,-286,-286,-262,-211,-174,-147,-131,-115,-104,-79,-56,-55,-51,-20,0,-5,4,20,28,58,80,101,145,168,179,183,181,202,212,186,104,-9,-109,-190,-252,-319,-337,-307,-291,-281,-264,-228,-209,-204,-191,-164,-152,-146,-110,-77,-83,-56,-35,-30,-23,-15,-6,9,26,24,9,-3,-3,-7,-4,-3,0,0,14,19,14,23,14,9,5,0,-6,-24,-11,10,-36,-41,-29,-33,-43,-41,-20
2018-05-22,11:06:09.031,-25,-35,-14,-5,5,-1,-2,-6,-5,-15,-19,1,2,-3,-4,-15,-17,-11,-2,-13,-21,-6,11,2,2,-22,-50,-17,-14,-28,-57,-53,-48,-44,-43,-66,-200,-392,-72,872,1766,1398,-156,-444,-495,-587,-405,-248,-229,-215,-169,-141,-135,-107,-85,-41,-19,-21,-1,18,12,27,22,54,81,107,146,179,223,249,248,283,294,295,277,226,154,34,-66,-186,-307,-369,-385,-390,-390,-366,-349,-341,-322,-285,-251,-215,-205,-171,-148,-137,-132,-99,-103,-121,-103,-96,-84,-91,-78,-61,-61,-57,-63,-67,-49,-57,-24,-6,3,-10,-5,-8,-28,-12,-2,-5,-14,-6,5,-2,-10,-21
2018-05-22,11:06:10.068,-39,-41,3,-1,-4,2,5,6,-8,-8,-2,-17,3,17,14,-6,9,26,37,43,23,33,14,17,13,3,2,-6,-28,-18,-25,-42,-168,-344,-43,893,1869,1533,-64,-486,-530,-595,-410,-257,-212,-203,-170,-140,-108,-81,-65,-51,-27,2,7,-24,-24,5,13,11,33,67,85,130,158,190,226,244,257,251,219,208,179,75,-76,-171,-253,-339,-358,-359,-346,-336,-321,-287,-268,-241,-217,-209,-188,-168,-142,-124,-97,-78,-55,-43,-44,-44,-29,-9,-12,-2,0,0,15,26,24,21,17,2,21,34,17,7,-5,8,12,8,10,5,15,24,20,14,26,16,-6,-17
2018-05-22,11:06:11.105,-10,-17,-23,-21,-11,-10,-4,-1,-7,3,2,-14,4,14,-3,-4,8,19,-13,-18,10,7,0,15,47,44,21,27,-8,-27,-25,-19,-20,-26,-24,-37,-50,-73,-225,-430,-131,889,2043,1867,73,-536,-597,-637,-441,-328,-321,-300,-258,-212,-180,-167,-152,-130,-119,-81,-71,-77,-66,-47,-44,-29,-14,3,48,63,88,127,154,188,199,200,219,216,212,144,31,-68,-162,-236,-266,-278,-284,-281,-249,-214,-194,-175,-148,-124,-114,-105,-75,-59,-44,-19,-9,-8,-7,-4,-31,-50,-48,-63,-35,-20,-6,-12,-29,-23,-29,-27,-25,-13,2,-1,10,27,37,48,28,38,34,33
2018-05-22,11:06:12.143,36,8,26,11,15,19,5,13,-9,-8,-21,-42,-24,-2,-11,-23,-16,6,-18,-4,5,-28,-25,16,32,14,12,40,15,21,32,52,53,16,0,-33,-40,-30,-37,-8,7,-23,-20,-30,-42,-173,-347,-55,846,1760,1439,-198,-466,-532,-592,-421,-255,-229,-211,-158,-132,-115,-112,-102,-45,-20,-13,-29,-16,9,-17,11,24,21,70,87,127,180,205,200,208,241,225,210,189,123,42,-97,-205,-292,-386,-424,-438,-430,-401,-391,-359,-331,-305,-269,-254,-209,-181,-145,-127,-131,-115,-130,-105,-85,-84,-58,-61,-56,-55,-59,-45,-39,-34,-39,-30,-2,0,-2,-21,-28,-25,-41
2018-05-22,11:06:13.180,-27,-20,-8,2,-2,18,13,5,26,29,38,26,32,22,47,74,78,65,67,54,26,49,51,46,77,88,58,54,81,73,48,32,-3,-4,1,7,-13,-12,-27,-32,-49,-93,-224,-387,26,1081,1954,1303,-316,-541,-624,-646,-397,-279,-260,-243,-205,-161,-137,-118,-105,-67,-40,-43,-32,-17,-22,-17,2,44,53,53,88,120,177,226,245,291,304,300,286,290,258,155,34,-98,-174,-246,-291,-279,-284,-277,-277,-278,-265,-258,-203,-173,-147,-107,-96,-63,-45,-53,-59,-61,-39,-56,-56,-35,-27,-15,-37,-28,-30,-49,-41,-62,-69,-65,-66,-64,-65,-27,-22,-24,-12,-20
2018-05-22,11:06:14.217,-12,-15,-42,-53,-71,-52,-57,-58,-57,-58,-43,-47,-26,-40,-70,-29,-11,-26,-41,-35,-4,-13,-14,-10,-15,-7,-2,0,10,37,57,43,50,14,1,22,18,27,24,17,32,16,-46,-264,-390,250,1496,2380,1271,-376,-535,-658,-519,-332,-284,-281,-260,-223,-214,-194,-170,-147,-124,-116,-91,-79,-89,-70,-74,-36,-17,-19,29,45,59,87,108,136,145,172,157,165,155,99,33,-51,-149,-235,-291,-297,-314,-276,-240,-218,-190,-179,-170,-149,-142,-113,-127,-98,-72,-82,-76,-79,-50,-28,-43,-29,-49,-56,-46,-45,-58,-75,-54,-71,-48,-24,-50,-32,0,8,2,-32,-22,-47
2018-05-22,11:06:15.254,-46,-32,-30,-3,-15,-8,-2,5,13,1,31,39,49,63,55,51,65,51,56,60,56,18,52,48,49,76,53,103,134,114,88,79,70,37,-5,9,53,28,38,49,33,5,-18,-152,-388,-224,706,1796,1949,137,-451,-397,-515,-409,-280,-241,-218,-177,-142,-136,-135,-118,-61,-39,-32,-22,4,38,18,12,67,75,81,122,161,200,214,249,232,240,249,225,193,122,23,-99,-243,-348,-404,-419,-403,-404,-390,-373,-345,-334,-304,-280,-262,-222,-218,-177,-136,-129,-125,-127,-121,-107,-125,-98,-97,-89,-77,-40,-25,-20,-15,-8,-7,3,-12,4,-11,-23,9,-24,2,15
2018-05-22,11:06:16.292,2,13,7,31,3,17,63,39,12,21,1,9,35,43,5,-30,-17,-29,-48,-40,-40,-36,-28,-6,8,17,43,-24,-193,-174,601,1768,1954,387,-542,-552,-636,-469,-300,-247,-222,-189,-181,-148,-130,-129,-101,-79,-62,-37,-37,-16,21,40,51,71,106,131,144,189,217,241,264,288,279,278,241,180,46,-85,-190,-304,-388,-376,-380,-398,-400,-378,-342,-323,-314,-289,-271,-249,-189,-163,-149,-134,-117,-104,-104,-102,-73,-55,-50,-41,-27,-28,0,-2,-8,-13,3,-7,-6,-18,-22,-9,-6,-15,-22,-23,-17,-5,-7,0,13,30,23,18,22,32,31,57,67,55,51,74
2018-05-22,11:06:17.329,62,65,55,57,48,38,47,31,5,-9,-7,-3,3,27,-3,-27,-31,-98,-305,-372,360,1552,2139,800,-534,-587,-683,-544,-357,-324,-335,-310,-268,-241,-210,-163,-140,-114,-69,-55,-50,-18,8,27,34,57,76,93,148,172,208,233,229,282,287,279,245,189,126,18,-86,-181,-257,-306,-331,-334,-320,-295,-268,-246,-240,-232,-187,-162,-139,-105,-102,-96,-87,-68,-35,-59,-49,-40,-36,5,15,37,25,21,6,-3,-11,-21,-15,-3,0,-10,-30,-22,-9,-34,-39,-53,-17,-4,-20,-17,-22,-10,9,-25,-16,-15,-20,-17,-28,-10,8,11,17,2,16,22,20,1,-3,12
2018-05-22,11:06:18.366,9,4,-27,-24,9,27,20,23,24,-19,-42,-16,-5,-12,-22,-33,-42,-29,-32,-165,-389,-222,734,1962,2102,233,-513,-564,-646,-455,-340,-327,-279,-228,-207,-197,-156,-104,-83,-85,-56,-45,-60,-45,-27,-18,-5,6,42,58,75,123,157,190,194,195,185,171,176,156,84,-1,-87,-176,-253,-277,-279,-291,-274,-267,-257,-241,-221,-194,-172,-155,-155,-120,-77,-71,-69,-71,-71,-28,-9,-16,-37,-40,-31,-30,-47,-44,-25,-31,-30,5,2,0,-3,-12,-13,-26,-27,-3,-14,8,-4,0,22,29,5,-1,8,3,0,0,-1,-6,-21,-19,-4,-19,0,17,17,11,20,19
2018-05-22,11:06:19.403,10,12,5,-9,5,8,4,11,19,28,48,60,49,21,21,4,4,8,13,4,-15,-11,-15,-19,-49,-246,-467,-53,1056,2193,1671,-91,-458,-568,-554,-380,-293,-298,-259,-213,-195,-192,-198,-150,-123,-127,-99,-82,-66,-40,-29,6,2,15,34,29,48,72,113,139,160,170,170,185,165,141,87,-27,-145,-213,-278,-310,-305,-303,-273,-255,-249,-223,-194,-172,-158,-145,-112,-79,-62,-39,-19,-4,-17,-26,-16,-16,-18,-19,-25,-29,-20,-18,-17,-36,-37,-13,-15,-22,-17,-3,-1,-16,-19,-27,-13,-24,-9,12,0,-9,-8,3,15,29,20,7,-1,2,-13,-7,2,-3
2018-05-22,11:06:20.441,-6,7,0,-4,-1,-19,-16,-14,-27,-11,-12,-17,-7,4,29,40,50,45,38,28,25,25,39,32,37,42,37,7,-43,-245,-547,-314,692,1987,2023,375,-300,-454,-590,-478,-387,-376,-356,-315,-290,-269,-222,-197,-180,-147,-127,-104,-82,-77,-81,-55,-32,-40,-13,13,5,43,92,125,127,124,147,179,201,149,93,37,-62,-135,-176,-205,-231,-230,-230,-224,-202,-182,-195,-172,-147,-145,-104,-75,-45,-50,-71,-48,-32,-37,-17,-9,-7,-3,1,-17,-2,7,12,34,6,20,36,22,18,1,-2,14,5,47,31,18,25,14,7,24,28,28,36,36,23,24,19,24
2018-05-22,11:06:21.478,12,-6,18,25,19,14,16,38,48,31,28,30,38,28,20,44,30,19,8,0,-23,-44,-15,-12,-20,-13,-15,-28,-80,-279,-481,70,1191,2078,1119,-226,-330,-467,-482,-344,-270,-249,-238,-229,-190,-150,-110,-103,-82,-54,-48,-38,-5,-17,-18,-11,15,14,0,52,107,143,149,167,187,176,176,172,148,90,9,-102,-216,-277,-339,-380,-363,-356,-335,-309,-290,-262,-234,-207,-179,-175,-142,-92,-82,-69,-61,-61,-55,-35,-16,-22,-27,-28,-37,-26,8,-4,-13,-22,-21,-24,-18,-27,-18,-16,-22,-42,-29,-11,-18,-37,-40,-15,-26,-39,-8,-1,-23,-16,-18,-15,-2,-26
2018-05-22,11:06:22.515,-15,1,42,33,26,40,9,-18,-8,-7,-12,-15,-13,-21,-18,-14,-81,-278,-434,165,1215,1910,904,-432,-479,-611,-593,-423,-341,-310,-260,-228,-186,-170,-149,-126,-103,-67,-53,-24,-7,14,44,52,57,48,66,107,124,154,165,186,199,183,198,179,146,85,-9,-114,-211,-272,-303,-313,-309,-302,-275,-247,-245,-221,-205,-182,-167,-158,-116,-106,-112,-104,-88,-81,-66,-41,-53,-46,-37,-47,-45,-47,-48,-34,-33,-21,-29,-16,-5,-12,0,-6,11,14,-13,-17,-24,-10,0,-10,-11,0,9,9,21,28,14,20,16,12,30,33,69,74,61,62,55,50,20,11,25,18
2018-05-22,11:06:23.553,-1,10,3,-11,-14,-159,-426,-309,608,1882,2136,595,-183,-315,-478,-397,-303,-259,-230,-228,-169,-139,-114,-84,-85,-65,-59,-39,-33,-33,-26,-13,26,36,52,60,90,136,164,179,206,222,231,225,239,212,137,39,-68,-158,-206,-231,-249,-254,-230,-195,-192,-173,-177,-165,-156,-171,-168,-178,-161,-161,-153,-138,-157,-135,-125,-133,-137,-190,-153,-129,-135,-123,-140,-91,-82,-81,-46,-37,14,15,29,20,-13,18,14,6,35,42,57,29,8,29,34,51,78,93,61,45,57,8,-5,-22,-26,-21,19,-6,6,-13,7,-68,-296,-253,548,1687,2060,502,-465,-459,-566,-434,-269,-247
2018-05-22,11:06:24.590,-216,-189,-183,-118,-91,-65,-22,-21,-9,15,27,15,32,65,80,61,45,88,154,149,176,195,235,255,250,242,164,144,120,-35,-139,-199,-285,-325,-332,-344,-332,-297,-275,-229,-200,-181,-171,-142,-112,-97,-88,-65,-61,-67,-56,-82,-55,-54,-82,-41,-36,-40,-57,-64,-51,-61,-29,-27,-70,-63,-59,-67,-97,-98,-96,-100,-86,-95,-105,-92,-95,-84,-89,-90,-90,-100,-85,-115,-105,-88,-63,-68,-75,-48,-37,-50,-47,-74,-31,-26,-13,0,-14,0,-41,-174,-363,88,1182,2158,1443,-231,-445,-511,-569,-350,-212,-174,-157,-132,-77,-68,-54,-24,-16,18,49,43,61,52,63,52
2018-05-22,11:06:25.627,79,137,159,168,195,255,270,256,314,292,275,264,209,156,34,-90,-175,-269,-307,-352,-350,-352,-345,-297,-273,-233,-182,-171,-150,-103,-72,-91,-60,-47,-56,-54,-55,-45,-19,-43,-43,-56,-81,-94,-107,-81,-98,-119,-110,-107,-90,-75,-68,-62,-82,-73,-89,-74,-52,-58,-58,-88,-55,-22,-21,-27,-27,6,42,44,48,21,-4,-44,-43,-50,-49,-50,-35,-38,-34,-38,-32,-212,-368,88,1124,1970,1247,-291,-520,-561,-564,-358,-226,-190,-176,-123,-102,-79,-46,-35,-8,0,10,50,62,67,75,68,82,114,117,120,168,189,196,244,277,269,257,229,201,126,31,-122,-227,-296
2018-05-22,11:06:26.664,-363,-365,-391,-369,-334,-325,-330,-315,-260,-214,-200,-176,-153,-124,-109,-99,-90,-35,-5,-29,-39,-28,-36,-22,-19,-14,-15,-19,6,-3,12,18,-12,26,44,36,27,21,23,19,19,26,-9,24,37,18,19,14,13,-19,-12,9,7,3,6,48,75,13,18,51,56,19,-9,-5,-2,-12,-36,-28,-37,-51,-84,-304,-428,248,1492,2308,1031,-493,-571,-683,-566,-373,-299,-283,-228,-182,-178,-158,-130,-86,-56,-61,-55,-37,-19,8,20,44,48,69,62,85,157,162,179,207,213,220,207,216,201,113,27,-93,-188,-237,-284,-300,-314,-315,-279,-258,-230,-212,-210,-219,-190,-150
2018-05-22,11:06:27.702,-166,-156,-115,-93,-93,-91,-65,-67,-107,-75,-42,-52,-67,-55,-44,-42,-18,-28,-63,-38,-28,-20,-21,-7,-4,-26,-30,-73,2,24,5,17,18,14,-2,-10,0,-19,4,2,10,9,0,19,15,30,46,33,65,59,30,58,73,32,24,-11,-4,23,37,23,23,20,-53,-255,-403,149,1327,2326,1476,-270,-517,-593,-545,-363,-301,-274,-234,-188,-171,-170,-141,-122,-133,-92,-42,-40,-39,-14,30,16,22,26,40,48,102,120,145,169,163,177,221,209,172,127,24,-71,-163,-244,-304,-332,-326,-327,-303,-313,-270,-235,-227,-204,-181,-165,-153,-123,-93,-91,-87,-65,-31,-43
2018-05-22,11:06:28.739,-75,-28,-1,-7,-2,13,-2,4,3,-6,-8,-21,-36,24,24,3,13,17,-12,-11,-2,9,8,-11,-7,-3,62,36,12,0,-14,15,2,-8,-6,-28,-40,-17,0,-24,-53,-29,-42,-32,20,47,56,40,9,-23,-13,-12,-18,-2,-14,0,11,6,-28,-135,-316,-131,718,1677,1650,91,-452,-443,-576,-447,-270,-230,-243,-169,-123,-68,-76,-93,-61,-38,-17,0,-8,-1,2,33,108,103,128,174,200,224,275,298,312,290,290,288,249,142,30,-88,-232,-308,-405,-409,-419,-423,-397,-386,-372,-346,-317,-293,-278,-256,-199,-211,-186,-165,-142,-156,-115,-105,-124,-114,-86,-46
2018-05-22,11:06:29.776,-69,-92,-80,-75,-51,-52,-48,-50,-41,-10,-24,-29,-26,-3,2,-15,-22,-2,0,-3,-20,-25,4,6,-5,15,12,-3,32,40,12,30,11,0,-1,-26,-11,-23,-21,1,0,-7,-34,-125,-299,-94,780,1753,1611,-48,-546,-506,-576,-387,-239,-191,-158,-128,-100,-70,-78,-50,-14,-18,-10,25,31,27,70,97,75,101,147,177,196,210,251,255,288,301,305,288,242,177,67,-83,-206,-287,-328,-373,-385,-337,-330,-327,-327,-310,-261,-254,-228,-193,-173,-158,-145,-107,-99,-92,-71,-91,-85,-67,-28,-47,-40,-19,-48,-27,-44,-49,7,-8,-1,-29,-4,3,-44,4,-41,-28
2018-05-22,11:06:30.813,-8,11,26,-1,-9,6,4,20,20,14,11,9,-2,-20,-15,0,12,45,52,66,46,37,67,29,-2,-8,-1,7,-26,-12,-3,15,0,-111,-329,-150,861,2074,1984,243,-553,-593,-606,-411,-268,-283,-273,-200,-159,-135,-128,-99,-73,-80,-38,-34,-21,-12,-24,1,11,70,64,72,125,138,159,161,183,215,218,217,194,150,84,-5,-116,-228,-286,-303,-321,-326,-298,-262,-247,-219,-226,-217,-177,-158,-160,-108,-98,-86,-66,-79,-55,-76,-51,-63,-56,3,-14,-30,-40,-35,-29,-36,-29,-40,-36,-33,-39,-30,-30,-25,-28,-23,-17,-67,-33,34,24,6,-17,-8,-34,-26
2018-05-22,11:06:31.851,-17,-43,-66,-11,7,3,-27,-3,0,-14,-16,-19,3,-11,-12,-10,-18,17,10,15,14,-18,-6,-29,-35,-17,-50,-7,-20,-27,-44,-195,-416,-63,1049,2204,1788,-26,-514,-561,-581,-376,-272,-281,-251,-211,-200,-182,-150,-100,-114,-74,-50,-48,2,5,0,19,20,60,77,91,100,118,174,186,208,225,208,200,210,192,111,-25,-116,-209,-282,-294,-304,-292,-298,-258,-236,-240,-228,-198,-155,-158,-151,-120,-110,-101,-76,-71,-69,-52,-35,-47,-58,-34,-20,3,-28,-28,-4,-31,-27,-53,-4,16,8,-3,-23,-5,6,-5,1,-19,-15,-12,-11,-19,-16,-3,-12,-7,-3,2
2018-05-22,11:06:32.888,6,5,17,-5,12,17,8,9,9,17,50,42,54,41,6,11,-17,-17,-24,-23,4,1,-14,-14,-4,-15,-116,-317,-263,512,1521,1737,267,-461,-462,-582,-474,-281,-241,-204,-146,-144,-101,-76,-82,-73,-40,-17,-22,8,4,-12,35,48,79,98,133,176,168,212,248,260,276,261,254,227,161,80,-42,-199,-286,-347,-375,-395,-396,-387,-354,-330,-343,-319,-254,-193,-189,-183,-166,-138,-103,-101,-97,-68,-56,-45,-52,-74,-60,-69,-52,-48,-45,-30,-49,-32,-43,-40,-29,-41,-30,-33,-43,-14,4,12,4,-3,-14,1,33,19,3,6,3,4,-18,-23,13,8,5,-3
2018-05-22,11:06:33.925,-37,8,15,5,-9,5,9,31,22,9,26,7,-26,-1,-2,9,-16,-27,-2,-10,-8,-69,-308,-347,404,1691,2310,829,-458,-547,-635,-496,-315,-284,-265,-217,-198,-175,-150,-128,-95,-79,-62,-40,-44,-23,-4,7,2,35,80,95,112,125,140,159,174,191,199,230,241,203,134,25,-79,-175,-248,-285,-336,-343,-302,-278,-275,-270,-227,-188,-191,-205,-186,-152,-126,-126,-101,-87,-65,-63,-77,-75,-89,-56,-30,-31,-38,-46,-27,-19,-46,-34,-10,25,14,6,-10,-13,12,28,17,10,14,12,8,1,17,35,21,-10,29,43,31,23,6,25,50,30,15,13,51,36
2018-05-22,11:06:34.962,29,38,18,28,24,3,25,55,54,41,3,3,15,2,0,3,11,0,-21,2,-15,-212,-437,-11,1108,2259,1760,-138,-495,-606,-563,-336,-266,-263,-265,-230,-186,-159,-122,-133,-123,-82,-65,-42,-36,-31,-28,-5,8,27,54,57,78,70,94,144,180,192,176,169,174,117,67,-30,-153,-255,-299,-294,-310,-325,-293,-299,-256,-244,-226,-185,-170,-152,-150,-123,-100,-96,-82,-65,-41,-42,-63,-27,-1,-21,-27,-37,-22,-25,-26,-14,-20,-14,-52,-10,7,8,-10,-22,-22,-39,-33,-26,-46,-19,-21,-36,-9,6,2,-25,-40,-43,-20,-42,-64,-40,-21,-51,-28,-10,-6,-11
2018-05-22,11:06:36.000,-22,-13,-3,-6,14,19,42,24,-24,-24,-22,8,7,10,-14,-7,0,-8,-21,-158,-352,-82,896,1832,1480,-216,-417,-470,-560,-387,-248,-204,-172,-134,-133,-99,-46,-33,-24,-29,-16,-8,18,26,42,54,53,61,90,128,185,217,225,248,258,265,240,231,207,138,43,-82,-205,-305,-378,-405,-393,-379,-362,-356,-335,-305,-251,-211,-197,-171,-169,-146,-138,-109,-77,-73,-82,-75,-74,-54,-42,-24,-33,-41,-33,-34,-27,-22,-33,-24,-19,-16,-20,-3,7,5,14,17,17,13,-4,-1,-14,1,-8,4,18,21,25,5,0,15,4,-8,-16,-19,0,-19,0,6,-15,6
2018-05-22,11:06:37.037,24,31,20,0,-16,-9,2,-7,-8,1,7,22,2,-69,-275,-339,353,1531,2187,930,-462,-517,-648,-541,-306,-260,-263,-246,-217,-191,-143,-109,-86,-69,-50,-57,-22,-18,-4,-7,7,41,52,65,89,110,139,152,190,193,193,192,189,163,109,-3,-135,-239,-290,-300,-331,-348,-346,-317,-289,-262,-264,-258,-212,-180,-156,-157,-120,-104,-118,-92,-69,-75,-44,-45,-28,-25,-31,-25,-39,-25,-30,-13,-16,-30,-27,-25,-9,-5,0,23,3,-4,-11,9,32,18,16,10,-10,9,-2,7,13,11,13,0,3,5,9,13,1,4,-4,3,0,0,12,10,17,44,44,45
2018-05-22,11:06:38.074,26,12,-10,-6,0,-18,-20,-15,-11,12,0,-79,-278,-364,287,1479,2247,1069,-413,-543,-647,-547,-358,-316,-286,-263,-212,-186,-172,-141,-120,-70,-65,-48,-25,-25,-9,-1,9,25,27,77,83,94,117,139,171,167,188,208,202,186,120,36,-85,-183,-249,-288,-301,-306,-301,-286,-281,-252,-245,-216,-166,-158,-141,-124,-109,-98,-94,-78,-96,-69,-31,-52,-36,-46,-35,-37,-40,-24,-47,-36,-14,-34,-5,-2,-8,-6,-10,20,-1,0,6,-5,-4,-5,15,19,15,12,21,20,-2,22,40,24,19,6,27,28,19,16,9,24,11,0,-7,-16,1,36,37,63,34,25
2018-05-22,11:06:39.111,1,13,28,10,0,-15,-10,12,-18,-92,-276,-371,237,1317,2100,1078,-327,-419,-542,-512,-318,-235,-213,-193,-187,-145,-112,-75,-61,-57,-29,-15,-13,-18,7,25,25,48,89,109,102,147,178,186,217,217,220,223,214,181,97,6,-110,-227,-314,-336,-342,-369,-360,-357,-337,-294,-286,-275,-253,-218,-192,-191,-152,-113,-123,-115,-97,-80,-78,-72,-63,-54,-25,-45,-41,-21,-37,-31,-41,-28,-19,-43,-10,-16,-31,-2,-20,-8,-10,-15,0,13,29,13,15,26,8,1,-8,-15,-25,-14,-6,-7,-1,9,10,42,43,33,32,10,8,-1,-21,-33,-34,-18,-10,1,-29,-82
2018-05-22,11:06:40.149,-219,-333,238,1211,1819,753,-423,-430,-571,-539,-332,-222,-201,-192,-149,-119,-104,-88,-70,-36,-14,-5,14,13,29,44,69,98,81,124,156,177,219,259,282,280,281,266,237,232,134,-3,-138,-265,-345,-410,-400,-373,-361,-349,-361,-288,-257,-250,-232,-176,-143,-128,-116,-129,-112,-57,-36,-41,-43,-29,-16,-42,-36,2,0,14,5,20,23,-21,-15,-15,17,23,7,7,12,12,2,-1,18,15,22,-11,-18,14,-16,-39,-65,-68,-18,-54,-34,0,-10,8,-12,15,9,12,20,-35,-5,0,-32,-15,-4,14,-8,-19,-13,-35,-25,-72,-252,-355,213,1387,2193,1158,-404,-529
2018-05-22,11:06:41.186,-632,-554,-326,-232,-228,-206,-173,-135,-126,-120,-98,-100,-60,-2,-8,-12,5,33,40,30,63,88,121,131,175,201,228,256,240,256,261,223,153,45,-90,-205,-261,-285,-320,-322,-303,-287,-270,-275,-206,-175,-193,-175,-173,-158,-158,-149,-125,-92,-83,-83,-51,-39,-59,-12,-19,-42,-33,-20,-3,-16,-20,12,86,117,120,132,148,125,95,75,123,91,32,10,-35,-65,-66,-77,-76,-105,-101,-110,-137,-121,-151,-117,-112,-111,-90,-128,-95,-120,-106,-81,-115,-90,-109,-104,-73,-93,-60,-69,-52,-61,-86,-63,-91,-206,-343,67,1009,1659,979,-340,-459,-531,-620,-439,-298,-250,-228,-467
2018-05-22,11:06:42.223,-624,-597,-499,-363,-286,-142,-132,-285,-268,-177,-69,-25,13,76,96,181,227,294,366,364,404,378,373,380,290,206,56,-73,-182,-306,-321,-378,-376,-364,-351,-307,-327,-294,-264,-273,-252,-259,-223,-200,-212,-171,-190,-147,-148,-151,-102,-91,-86,-74,-33,-27,-9,11,8,24,39,91,102,118,159,158,198,214,221,239,223,232,214,212,198,196,248,204,191,212,187,157,125,110,133,93,62,92,-4,38,-58,-163,-209,-271,474,1438,1943,863,-430,-359,-636,-554,-284,-287,-33,31,291,498,563,754,590,567,460,337,342,35,-106,-325,-588,-756,-1203,-1402,-1637,-1635,-1436,-1574,-1560,-1681
2018-05-22,11:06:43.260,-1561,-1394,-1451,-1237,-1212,-1400,-1333,-1222,-633,-255,174,521,719,1081,1340,1849,1911,1860,1906,1766,1747,1602,1172,1194,1323,1296,1498,1559,1517,878,679,479,372,355,219,222,0,-249,-261,-512,-353,-187,28,204,75,334,435,417,238,-162,-543,-746,-690,-609,-636,-500,-517,-358,-318,-263,-15,-36,-43,-133,-245,-297,-671,-756,-360,553,1310,129,-1293,-1354,-1419,-1346,-1224,-913,-922,-773,-771,-645,-402,-510,-517,-415,-411,-219,-265,-195,-145,-157,-6,-132,-19,94,59,192,136,337,370,298,463,403,464,419,275,208,-35,0,-89,-127,43,-44,81,85,105,137,19,172,186,156,173,65,252,152,186,196
2018-05-22,11:06:44.298,72,240,126,150,151,161,296,127,239,184,106,177,56,211,151,105,251,101,142,125,49,249,86,260,146,98,249,165,389,317,363,383,251,437,304,356,342,157,256,150,138,122,166,278,13,-90,-44,639,1841,1890,461,-225,-227,-342,-422,-179,-260,-330,-194,-223,-83,-167,-179,-163,-324,-217,-303,-306,-282,-424,-321,-416,-376,-271,-361,-258,-427,-389,-390,-517,-396,-497,-392,-385,-495,-460,-692,-687,-731,-790,-693,-761,-546,-425,-322,-251,-552,-656,-761,-658,-635,-666,-412,-447,-435,-335,-402,-271,-338,-360,-319,-378,-378,-387,-384,-409,-397,-375,-356,-325,-314,-279,-275,-291,-293,-339,-307,-242
2018-05-22,11:06:45.335,-165,-81,1,119,178,216,280,325,394,446,498,546,561,551,516,437,284,321,1107,2205,2532,1126,46,103,-17,109,346,354,311,285,279,268,243,262,253,235,226,201,189,176,161,143,132,128,112,126,151,176,180,171,165,145,115,119,114,68,-24,-155,-285,-395,-437,-442,-420,-384,-363,-294,-224,-229,-229,-233,-337,-450,-395,76,290,267,254,168,79,-85,0,159,254,366,318,290,247,223,223,297,334,346,388,351,263,256,230,193,131,116,111,111,177,119,2,-156,-461,-821,-1045,-1145,-1199,-1248,-1106,-818,-595,-536,-370,-309,-10,1033,2176,2127,735,310,52,-477,-694,-881
2018-05-22,11:06:46.372,-1192,-1422,-1502,-1494,-1434,-1447,-1611,-1664,-1553,-1391,-1211,-1132,-1063,-852,-555,-409,-384,-258,45,127,344,560,574,574,1042,1390,1558,1580,1547,1497,1481,1430,1475,1469,1338,1173,960,869,871,890,885,828,753,690,618,545,472,337,194,22,-287,-612,-844,-890,-839,-742,-563,-263,149,491,746,820,637,320,75,-87,-267,-364,-470,-514,-534,-546,-707,-857,-922,-987,-1044,-1175,-1337,-1532,-1683,-1558,-880,-283,-657,-2046,-2364,-2301,-2219,-1217,-287,30,108,113,-179,-481,-594,-708,-792,-690,-802,-471,203,635,764,931,1122,1240,1339,1449,1515,1576,1625,1892,2005,1915,1784,1726,1736,1670,1495,1290,1082,924,787,728,458,-293
2018-05-22,11:06:47.409,-625,-567,-467,-405,-370,-361,-371,-317,-165,-122,-171,-275,-386,-556,-788,-879,-884,-970,-1048,-1169,-1334,-1558,-1789,-1864,-1870,-1838,-1685,-1561,-1510,-1502,-1499,-1552,-1757,-1529,-872,-248,235,603,656,558,371,-58,-558,-846,-743,346,1725,3013,2610,760,368,282,-95,456,1200,1279,1216,1328,1373,1345,1304,1241,1113,1010,967,928,927,924,835,682,586,589,379,77,-58,-11,286,641,1099,1569,1394,724,109,-192,-445,-659,-774,-724,-822,-934,-954,-918,-952,-977,-874,-828,-531,-176,45,50,-278,-803,-1333,-1473,-1658,-1898,-2080,-2223,-2253,-2186,-2000,-1629,-1122,-776,-562,-475,-458,-530,-784,-539,-507,-360,516,899,962,1491,1813,1784
2018-05-22,11:06:48.447,2086,2118,1967,1956,2609,3479,3509,2161,1341,1185,855,886,1243,1279,1087,885,618,339,143,-88,-252,65,460,196,513,1064,908,205,-567,-1021,-1046,-845,-235,-13,-483,-565,-82,831,1738,2073,1686,998,139,-650,-1282,-1504,-1439,-1306,-1127,-552,-320,-1245,-2167,-3061,-4252,-4389,-3628,-2685,-1724,-1325,-1307,-1132,-1066,-798,-52,180,159,-138,-318,-259,-19,421,878,1899,1878,1965,1938,1838,1405,912,829,845,1016,932,865,802,757,1430,2235,2111,457,-1112,-1373,-1585,-1716,-1600,-1333,-868,-159,651,799,144,-464,-1047,-1290,-1239,-1087,-787,-228,126,766,2102,2901,2709,2396,2312,1993,1327,287,-1317,-3275,-4454,-4168,-3507,-3302,-3297,-3327,-3302
2018-05-22,11:06:49.484,-3402,-3252,-2243,-651,385,642,891,1021,812,401,-230,-831,-1292,-1528,-1363,-1250,-957,-199,344,848,1463,2078,2627,2849,2945,2954,2642,2239,1902,1658,1559,1586,1655,1759,1692,1392,909,468,613,1661,2247,1202,-535,-839,-961,-1036,-443,-13,-155,-365,-611,-838,-834,-926,-948,-705,-90,661,1288,1696,1728,1595,850,-541,-1667,-1915,-1444,-2254,-3387,-4507,-8720,-9405,-7151,-5766,-5065,-4747,-5170,-6408,-8967,-10781,-11198,-10999,-9979,-8466,-6213,-2388,2551,5776,6717,6474,5510,2309,-1946,-5094,-6575,-6184,-4644,-2409,246,3149,6284,6043,1471,-839,123,2103,3621,4238,4763,4862,4549,3895,3887,4828,5475,4918,4101,2859,2353,2510,2972,2653,1986,489,-231,-245,-525,-270
2018-05-22,11:06:50.521,101,807,2153,3588,4951,5821,6437,5908,2705,960,1229,1522,1313,441,-639,-1456,-1891,-1664,-766,547,836,219,-322,-620,-520,-481,-1020,-1928,-2516,-2540,-2313,-2306,-2615,-1946,-711,-163,-473,-157,912,1407,2080,2850,3481,3888,3487,2411,1001,-540,-1572,-1871,-1436,-566,562,1053,1190,1228,1225,1395,1698,1849,1885,1870,1873,1926,2182,2231,2061,2056,2292,2671,3077,3095,1915,1094,1712,1946,1596,975,175,-708,-1569,-1924,-1861,-1780,-1723,-1736,-1525,-809,-119,326,557,784,1058,1031,645,134,323,424,1423,2051,2258,2467,2849,3002,3067,2837,2464,2330,2071,1417,988,690,489,333,445,264,132,153,15,-235,-457,-562,-516,-373,279,669,62,-463
2018-05-22,11:06:51.558,-272,-628,-1797,-3082,-4435,-5261,-4778,-3326,-1540,-438,175,1030,1695,2749,3480,3276,2188,400,-1334,-3021,-5017,-6149,-4989,-789,2554,2766,2936,1593,-78,-1861,-3736,-4613,-4668,-3686,-2184,-1105,-974,-1426,-1692,-1542,-1312,-1208,-1159,-1006,-1047,-716,-87,200,310,417,682,1061,1344,2043,2547,2534,2330,1948,1326,667,349,305,399,504,542,512,471,436,286,111,-34,-138,-31,48,-347,-601,47,1005,1195,274,-793,-1569,-1851,-1873,-1733,-1511,-1233,-582,345,1099,2178,3489,3851,3716,3597,2376,-26,-2449,-2320,-1546,-1827,-2131,-1967,-2357,-3803,-5306,-5999,-6821,-6724,-5534,-4650,-3647,-2532,-2232,-2994,-3151,-2414,-1514,-990,-1045,-1246,-1125,-740,-250,266,552,1369,2211
2018-05-22,11:06:52.596,2788,3375,3930,4110,3836,3370,2831,2414,2248,2188,2128,2062,2062,2042,1980,1816,1577,1374,1304,1971,2457,1767,1083,610,83,-281,-328,-474,-713,-877,-1022,-998,-904,-930,-827,-495,-11,84,-163,128,826,1201,539,-493,-754,-1253,-1877,-2271,-2594,-2834,-2949,-2993,-3106,-3210,-2585,-1117,-422,-361,-260,-417,-712,-693,-832,-951,-606,-259,-100,233,632,419,396,1324,1702,1772,2128,2482,2485,2250,2062,1940,1798,1549,1210,1037,893,729,377,-162,-739,-955,-1103,-1146,-404,189,646,1092,643,-228,-922,-1328,-1562,-1496,-1179,-984,-900,-613,-366,-162,512,1185,934,536,984,1957,1551,-1340,-3764,-4075,-2360,72,774,552,-201,-1182,-1934,-3056,-5174,-5254
2018-05-22,11:06:53.633,-3540,-2584,-2133,-1601,-1242,-1126,-791,-461,668,1420,1256,1724,2103,2034,2451,3152,3394,3172,2884,2496,2291,1994,1600,1287,1092,995,946,910,735,578,611,553,651,704,1063,1249,748,-222,-1433,-2576,-3197,-2876,-1719,-488,394,608,656,672,597,931,1138,802,498,289,143,-213,48,870,870,-225,-718,-784,-883,-1504,-1994,-2214,-2393,-2211,-1404,-415,-104,113,476,849,779,598,661,291,-171,71,727,1185,1281,1129,1254,1354,1092,1543,1868,1718,1669,1718,1875,1554,668,-192,-871,-1358,-1580,-1639,-1388,-797,-587,-2129,-4612,-4224,-2454,-246,831,654,46,-1171,-2429,-2546,-1376,-259,385,825,1367,2252,3644,4899,6438,6819,5785,4235,1471,-3615
2018-05-22,11:06:54.670,-7298,-7618,-3667,-677,-1518,-2038,-2195,-2104,-2043,-2394,-3055,-3609,-4179,-4311,-4796,-6765,-6778,-4574,-3468,-3403,-3397,-2269,-1418,-942,-537,221,514,549,830,1038,1237,1868,2669,3204,4180,5279,5950,6055,5648,4911,3618,2398,1879,1788,1647,1429,1191,897,549,-42,-314,-500,-393,125,650,1235,2029,2397,2278,2014,1674,1616,1655,1404,1082,960,766,182,-380,-322,192,635,-167,-1492,-1448,-1783,-2370,-2762,-3474,-2488,-1823,-1712,-1705,-1500,-924,-379,-410,-605,-179,311,416,433,465,567,656,759,1179,1187,1609,2343,2633,2468,2157,1976,1884,1763,1485,1220,1078,1014,984,840,271,-660,-1208,-1466,-1497,-677,516,733,-16,-895,-1454,-1488,-905,-385,-121,-265
2018-05-22,11:06:55.708,-305,-208,-131,68,230,234,-210,-745,-1228,-1457,-864,88,167,-1142,-1895,-1592,-1502,-1290,-1015,-1195,-1679,-2005,-1692,-862,-404,-391,-284,-127,127,317,160,69,135,-55,-169,283,860,1028,994,1021,1029,918,1081,1705,2096,2222,2133,1775,1299,842,462,180,-2,-185,-360,-553,-752,-866,-1075,-1171,-1096,-1063,-822,-60,673,633,228,-205,-573,-770,-846,-712,-512,-451,-618,-712,-664,-420,363,1355,1305,19,-408,142,502,1141,1850,2075,1785,1214,611,-395,-1649,-2468,-3035,-3140,-2989,-3139,-3495,-3464,-2563,-2058,-1978,-1676,-1430,-879,-345,-200,249,705,478,590,1253,1415,1155,1920,2570,2302,2139,2042,1775,1517,1586,1292,771,911,974,803
2018-05-22,11:06:56.745,698,417,207,386,828,422,-728,-1511,-1430,-782,421,611,-358,-1805,-3173,-3692,-3080,-1216,954,2426,2697,2370,3746,5073,4686,3660,2747,1694,-662,-5052,-7667,-6924,-4123,-487,1704,2173,1438,-66,-1838,-2837,-3000,-3081,-3213,-3140,-2670,-1993,-1312,-1094,-1383,-1509,-1350,-950,-700,-579,-493,-471,-194,37,204,408,683,1150,1785,2417,2852,2890,2709,2524,2390,2315,2045,1421,865,616,724,971,1169,1259,1218,1216,1123,968,737,413,792,2383,3242,1772,364,933,440,-1223,-2180,-2469,-2577,-2209,-1243,-418,190,653,901,1221,1375,1919,2891,3785,3351,1854,319,-225,219,51,-1350,-2437,-3009,-3269,-3409,-3687,-4146,-4014,-5404,-7991,-6902,-4695,-3663,-3907,-4229,-3499
2018-05-22,11:06:57.782,-2085,-1450,-1464,-1451,-1168,-1100,-752,-212,309,737,1108,1612,2044,2642,2976,3047,2909,2751,2621,2498,2267,2083,2607,3610,4234,3174,2086,1933,1462,1174,1121,1069,1131,993,763,693,531,493,772,1016,952,758,485,188,119,289,723,1095,910,310,-470,-1152,-1388,-1287,-1104,-944,-819,-861,-915,-1102,-1451,-1622,-1270,-925,-774,-637,-739,-994,-1264,-1247,-1017,-873,-893,-512,-416,-514,-513,-261,-70,-51,-102,186,699,842,991,716,636,1519,2436,2110,503,-23,-276,-609,-505,-304,-292,-337,-443,-583,-347,111,854,1166,782,399,235,222,462,1058,1561,1881,2469,2944,3065,2830,2220,1480,705,-806,-3023,-4563,-4862,-4374,-3526,-2403,-2624,-4491
2018-05-22,11:06:58.819,-5109,-3733,-2548,-2094,-1718,-1439,-1399,-1336,-989,-731,-12,129,332,1023,1145,1006,1046,1743,1919,2147,2375,2029,1856,2236,2792,2678,1209,483,245,-98,41,397,801,1052,713,467,755,883,53,-1369,-2943,-3831,-3167,-1233,175,1123,1845,3137,5162,6489,6716,6424,5761,4051,1308,-1580,-4465,-6895,-7893,-7267,-4843,632,5115,3844,2740,48,-3361,-4811,-4791,-3724,-1830,-634,-400,-235,-223,-827,-1745,-2072,-2393,-2356,-2020,-1285,-1059,-449,227,609,1120,1702,2313,1818,490,250,454,507,613,566,427,282,144,105,7,-75,-174,-256,-380,-595,-699,-515,-528,-364,642,1419,1231,341,-295,-321,-56,642,1211,1426,1631,1984,2240,2492,3283,4427,4831,4158
2018-05-22,11:06:59.857,3076,1808,171,-1926,-3664,-4389,-4280,-4110,-3964,-3745,-3508,-3280,-3099,-2848,-2391,-1637,-1244,-1123,-319,86,-557,-496,673,1889,587,-1164,-903,-1258,-1394,-1012,-608,-180,228,680,1564,2302,2726,2860,2560,1934,1316,860,575,391,310,241,136,-11,-331,-974,-1485,-1480,-1268,-879,-420,160,693,502,318,227,16,-9,136,285,428,665,483,134,-120,-427,-683,-692,-470,-248,-38,47,-126,-512,-1017,-1675,-2016,-1924,-1561,-1058,148,1744,2213,318,-621,-404,-325,32,442,553,591,797,937,1144,1612,1892,2357,2768,2855,2657,2184,1712,1270,961,811,853,853,834,805,781,730,535,169,-213,-808,-1087,-838,-380,275,469,-263,-1348,-1840,-1511
2018-05-22,11:07:00.894,-923,-642,-430,-232,-32,249,192,27,-166,-387,-289,-83,-249,-641,-920,-1033,-1017,-525,348,687,-733,-2090,-2096,-2191,-2092,-1255,-489,-309,-445,-428,-395,-365,-314,-84,105,327,582,626,584,829,891,721,799,1561,1477,1018,1489,1774,1980,1811,1586,1310,874,665,343,6,-132,-281,-634,-994,-1236,-1335,-1160,-533,-332,60,317,-534,-1874,-3320,-4241,-3582,-1814,-309,276,1000,1613,1617,1669,2342,2945,1836,180,-29,-70,216,685,789,820,549,-26,-454,-1003,-1732,-2289,-2856,-3108,-3262,-3391,-3126,-2352,-1555,-928,-401,-36,1116,809,-292,727,1347,1169,1313,1700,1836,1823,2005,1778,1852,1752,1586,869,327,88,-23,-139,-158,-207,-426
2018-05-22,11:07:01.931,-798,-1052,-873,-240,476,425,169,65,454,429,-640,-1756,-2549,-2991,-3493,-3340,-1862,-534,557,1598,2100,2471,2578,2815,2554,1803,1575,1052,-206,-1786,-2706,-2352,-1432,1139,2694,2283,-14,-2201,-2865,-2965,-3024,-3362,-3224,-1948,-884,-627,-364,-89,-166,-632,-937,-773,-606,-447,242,1033,1726,2345,2813,3087,3185,3093,2861,2561,2093,1416,809,460,435,678,852,817,1335,2242,2708,1589,700,723,634,1107,1629,1786,1521,398,398,1918,1289,-1151,-3098,-4107,-3766,-2447,-895,293,551,288,678,1948,3104,3990,4529,3728,2491,956,-343,-1591,-2520,-2994,-2731,-2301,-2049,-1984,-1942,-2094,-2494,-2669,-2606,-2150,-1264,-1329,-1387,-1057,-910,-1159,-1852,-2223,-2985,-4226
2018-05-22,11:07:02.968,-5612,-6003,-5948,-5187,-3583,-1317,-569,-1684,-1602,-958,-384,369,1037,1548,1787,1906,1879,1799,1777,1798,1840,1860,1874,1788,1583,1453,1548,2204,2817,2557,2440,2307,1877,1210,710,388,181,-32,-137,-206,-242,-280,-288,-327,-462,-645,-633,-452,-213,-52,104,135,152,130,143,7,-388,-775,-202,1108,1383,615,-265,-221,544,1110,-289,-1700,-1682,-1775,-1719,-1229,-952,-722,-275,23,430,909,1449,1599,1508,1051,1125,1369,1416,936,886,890,917,896,886,943,733,407,283,235,237,302,426,988,1890,1771,980,567,-591,-1553,-2200,-2977,-3319,-2572,-1430,-824,-584,-221,328,1069,2238,3160,3357,3262,2802,1488,-666,-2305,-4087,-6920,-6875,-3983
2018-05-22,11:07:04.006,-2060,-1326,-1123,-1772,-3653,-4387,-3023,-2415,-2525,-2268,-2014,-1771,-1298,-1070,-124,816,1233,1650,2048,2303,2314,2437,2606,2632,2934,3069,2912,2543,2120,1695,1225,860,683,877,1335,1515,1047,376,-96,-238,10,438,257,-794,-2351,-3641,-4330,-4245,-2678,-746,663,1267,1489,1847,2732,2948,1803,1877,3145,3628,3492,2713,1251,-607,-2261,-2742,-2338,-1955,-1783,-1646,-1465,-1220,-702,520,1933,2701,2495,1808,1799,1833,1179,-384,-979,-936,-547,324,1261,1602,1582,1377,811,145,-353,-480,-422,-410,-392,-625,-969,-1068,-913,-675,-625,-679,-682,-672,-619,-579,-507,-540,-737,-786,374,2619,3488,2076,1333,346,-1073,-1716,-1877,-1708,-921,-52,634,1167,1568,1279
2018-05-22,11:07:05.043,647,990,1808,2456,3156,3626,3432,2531,1001,-764,-1888,-2048,-1802,-1651,-1648,-1748,-2038,-2561,-3009,-2277,-1151,-1266,-1381,-1300,-1364,-1517,-1793,-1974,-1787,-1599,-1783,-1807,-1246,-995,-1114,-1270,-1356,-1313,-1163,-998,-982,-939,-80,1367,2492,1717,667,385,-104,-351,-187,-20,-15,-35,-50,-32,-147,-405,250,939,741,591,803,988,1001,948,859,811,717,278,-322,-725,-784,-807,-794,-671,-527,-344,-195,-172,-184,-206,-163,-72,95,249,282,247,136,-256,-735,-637,322,1141,1503,1613,1518,1199,591,588,1481,2214,1649,-241,-577,-608,-612,-199,106,70,159,580,885,1309,1699,1642,1491,1236,844,489,267,104,45,64,131,154,144,144
2018-05-22,11:07:06.080,41,-37,-184,-83,420,618,535,488,785,754,-222,-1670,-3142,-3863,-3271,-1772,-563,-237,-263,-40,304,536,654,439,157,-59,-151,-436,-349,407,985,514,-1198,-1608,-1319,-1175,-769,-554,-686,-1320,-2164,-2465,-2233,-1701,-1004,-555,-318,-119,-45,-19,-153,-493,-908,-680,69,419,470,674,1181,2098,2208,1922,1806,1657,1775,1939,1850,1753,1651,1496,1404,1270,997,981,1023,804,383,-2,-122,-302,-418,34,117,-497,-28,758,503,-166,-1119,-2758,-3906,-3002,-1833,-1197,-1063,-824,-614,-145,52,377,996,1191,834,434,-517,-1534,-2119,-2125,-1747,-1477,-1395,-1503,-1567,-1470,-1239,-549,-61,17,-104,-108,237,985,1544,1254,752,563,400,261
2018-05-22,11:07:07.117,1331,2112,2333,2263,1752,1060,733,-86,-53,322,-10,-350,-687,-999,-1075,-1016,-298,701,1169,-77,-844,-759,-637,401,1653,1733,2021,2388,1710,577,-761,-1920,-2174,-1107,-25,309,880,961,1672,2775,3186,2956,3184,3471,2601,-559,-7122,-11695,-10080,-2645,1136,1072,1439,361,-1170,-1608,-1615,-1747,-1536,373,1901,661,-190,-595,-1242,-1493,-1237,-853,-859,-1476,-2404,-3107,-3367,-2655,-1177,-168,-1114,-1065,87,1115,2464,3519,3906,3930,3522,2593,1796,1467,1611,1705,1628,1576,1655,1802,1842,1795,1765,1699,1684,1643,1497,1383,1330,904,-264,-886,-1595,-2738,-4091,-4873,-4186,-2121,-323,466,632,621,575,598,820,1039,1279,1404,1167,335,-593,-928,-714,-362
2018-05-22,11:07:08.155,-284,-655,-397,2455,3993,2724,1926,1615,718,-318,-795,-791,-1060,-1341,-1440,-1627,-2021,-2246,-2208,-2383,-2017,-1411,-1248,-1207,-1070,-880,-739,-634,-619,-583,-443,-128,207,442,601,765,819,821,828,836,768,660,713,707,793,581,-31,-282,356,1159,1066,124,-709,-463,326,544,392,132,417,1622,2715,1898,-143,-735,-722,-755,-741,-694,-693,-836,-1118,-1289,-1179,-1212,-1569,-1952,-2230,-2549,-2726,-2511,-2165,-1052,-363,-347,-248,-270,-372,-279,-418,-865,-996,-998,-560,-308,-195,188,516,696,456,626,1222,1183,1582,1912,1742,1563,1556,1394,1061,804,837,978,693,429,316,713,1608,1735,312,-530,-834,-665,640,2100,2080,1255,535,-45
2018-05-22,11:07:09.192,-1004,-1830,-1819,-1318,-1005,-1164,-1378,-1019,-22,1126,1047,568,230,-85,-601,-1180,-2323,-3855,-3531,-2060,-632,-133,-291,-699,-1440,-2599,-2825,-2030,-1260,-931,-315,370,477,381,438,401,552,443,1219,2547,2880,2481,1624,1037,1758,2797,2876,1725,1224,741,275,894,880,362,326,158,-17,-61,616,745,-178,-1165,-1924,-2387,-1764,-683,-786,-1479,-1900,-2259,-2003,-1167,-582,-568,499,2787,4454,4585,3722,2308,515,-84,-425,-2826,-6903,-8962,-8179,-6152,-2598,1456,3948,4404,3718,2529,1286,364,-154,-334,-463,-376,1031,2942,3859,2402,118,-517,-891,-434,314,567,1181,1753,1692,1187,630,292,82,54,85,359,458,509,407,91,-173,-213,-97,0
2018-05-22,11:07:10.229,118,155,183,243,267,287,215,89,-71,-473,-728,-641,-329,126,341,-278,-940,-1131,-1043,-721,-198,236,321,101,394,1131,1559,1850,2465,2331,-669,-6105,-8906,-7356,-3794,-70,2210,5342,6888,5329,3321,996,-1544,-3319,-3822,-3013,-2758,-2843,-1783,-366,-41,-43,245,321,563,539,-598,-2756,-4029,-3771,-3117,-2339,-1392,-304,646,1396,2064,3113,4302,4825,4438,3872,3589,3136,2583,2155,1662,859,22,-401,-404,-292,-285,-157,569,1586,1800,399,-468,-647,-938,-793,-242,-799,-2948,-3356,-1417,-111,-1187,-3366,-4465,-4110,-2002,20,1527,2535,2984,2795,2407,2101,1819,1892,2285,2162,1458,1420,2082,2162,1777,833,-315,-1620,-2650,-3413,-3470,-2987,-2402,-1930
2018-05-22,11:07:11.266,-1651,-1596,-1769,-2308,-3045,-2365,-1033,-777,-723,-510,-637,-602,361,1967,2715,735,-696,-1469,-1944,-1796,-1534,-1079,-532,222,930,1061,1086,1019,853,654,1022,1101,927,576,234,8,-182,-126,-49,-85,-90,-92,-119,-145,-189,-344,-571,-472,4,329,1114,2374,1927,208,-953,-1072,-510,-98,161,465,572,328,273,651,925,1072,985,868,1325,2042,1170,-2304,-4033,-3545,-2439,-657,1241,1976,1282,-183,-1565,-2014,-2445,-3504,-3624,-2073,-1084,-864,-610,-377,-419,-649,-914,-910,-1077,-881,-55,281,719,1290,1822,1945,1805,1823,1873,2049,2215,2185,2041,1878,1716,1634,1504,1336,1259,1193,1023,763,492,174,-115,-512,-924,-440,1322,2567,1799,1478
2018-05-22,11:07:12.304,2070,1085,32,-1471,-3656,-5232,-5229,-3905,-2244,-757,268,417,-3,-84,282,621,749,755,574,256,19,-144,-405,107,-17,-372,-412,-413,-717,-1030,-1257,-1376,-1124,-466,602,1537,2215,2841,2886,1510,-424,-2059,-3076,-2461,-1687,-1206,40,886,649,360,280,495,1282,2486,2124,615,204,-123,-179,69,120,-31,-365,-657,-864,-966,-731,-183,530,1358,1189,954,1791,2102,1082,-808,-3271,-5201,-5312,-3211,-345,1730,2687,2638,2188,1852,1537,1242,1200,1106,871,229,-916,-661,734,822,637,451,221,214,454,788,975,970,772,274,-90,483,2004,2371,443,-261,-397,-623,-811,-1332,-2028,-2529,-3012,-3507,-3628,-3183,-2535,-1988,-1521,-1018,-394,323
2018-05-22,11:07:13.341,1247,2056,2570,2755,2362,1728,974,142,-479,-676,-687,-569,-412,-267,-108,-18,33,208,534,726,666,641,443,119,637,1623,-89,-3119,-4878,-4144,-2955,-1574,-538,915,2670,4242,4363,2580,2021,2436,2628,2751,2410,985,-267,-390,84,238,-123,-950,-2171,-3204,-3300,-2049,-311,-241,-713,-742,-941,-1400,-1933,-1747,-1212,-1057,-1220,-1605,-1741,-1430,-993,-821,-557,191,781,1402,1947,2275,2337,2060,1833,1438,930,626,285,29,-58,-112,-169,-299,-188,534,1407,1227,-50,-376,-424,-373,301,332,-4,-1,530,1410,1991,1218,174,-300,-156,137,78,-204,-274,-247,-286,-373,-607,-713,-703,-648,-697,-791,-813,-818,-732,-721,-628,-450,-413,-555
2018-05-22,11:07:14.378,-838,-1188,-1602,-1990,-2317,-2358,-2181,-2250,-1893,-1728,-1947,-1778,-1384,-1398,-1643,-1465,-207,1667,1898,-135,-606,-245,223,668,951,1192,1429,1517,1616,1722,1814,1992,1832,1665,1431,1284,1183,1121,1018,909,806,630,430,256,18,-133,159,346,114,167,1221,2006,1537,385,-1195,-2231,-1739,-779,-247,-102,-5,138,-30,-565,-543,-69,185,266,493,686,1422,2576,2795,933,-999,-1121,-1166,-1998,-1513,-292,222,324,-436,-2180,-3298,-4605,-6788,-4433,-727,-460,-784,-372,37,143,815,1564,1841,1297,747,595,645,612,543,683,985,1917,3078,3730,4182,4208,4058,3263,2091,865,-519,-1930,-2885,-2917,-2643,-2536,-2558,-2743,-3017,-2781,-2516,-1590,828,2021
2018-05-22,11:07:15.415,577,-1544,-2270,-2553,-1888,-880,-293,-3,26,-30,-156,-607,-849,-455,230,714,1636,2781,3033,2259,1100,109,-414,-274,107,539,1056,1636,2116,1948,1230,287,-998,-2987,-4112,-3132,-1430,-1454,-2039,-1919,-1666,-1472,-1070,-81,959,1593,1566,922,498,513,365,255,1143,3889,6576,6092,3797,2269,912,-14,-561,-963,-1186,-1324,-1369,-1316,-1234,-950,-477,-107,-410,-1277,-1132,-547,313,1055,1263,976,65,-1031,-1508,-1434,-872,-64,535,816,926,887,763,1035,1407,1608,1928,2021,1898,1338,23,-1572,-2711,-3113,-2248,-711,146,329,178,-258,-369,180,650,-303,-2288,-2939,-2608,-2496,-1997,-1504,-1608,-1429,-1054,-760,77,458,416,118,-169,-235,-41,295
2018-05-22,11:07:16.453,628,853,1193,1559,1898,2275,2649,2834,2715,2211,1740,1497,1242,788,270,-139,-886,-1724,-2091,-3511,-3943,-2081,-1089,-205,874,1811,1531,409,-626,-916,-324,91,229,854,1493,462,-988,-595,88,534,862,837,638,525,400,157,165,336,217,-46,-431,-707,-811,-1157,-788,-418,43,41,-489,-792,-750,-590,-578,-624,-758,-960,-1207,-1296,-1009,-657,-282,153,558,777,1082,1649,2172,3217,3518,2942,1996,1058,275,-456,-1049,-1492,-1351,-318,1038,1089,-117,1,209,-686,-2489,-4639,-5072,-2535,1086,2297,1558,349,-190,-518,-778,-742,-390,-118,379,992,1147,872,534,241,18,-60,80,294,500,698,756,646,457,177,-16,-63,76,320
2018-05-22,11:07:17.490,278,57,-224,-426,-485,-594,-946,-2001,-1804,-264,177,-1022,-1454,-251,1517,2049,-140,-1660,-1760,-1655,-1041,-522,-433,-458,-469,-439,0,221,491,1244,2346,3335,3950,4050,3531,2360,766,-603,-1479,-1933,-1933,-1664,-1232,-629,-101,150,-107,-715,-1392,-2277,-2613,-2190,-871,215,600,165,-683,-1162,-677,265,748,743,645,384,-106,-462,-415,510,1797,1874,383,186,472,649,954,1085,1087,1038,1062,1215,1318,1164,583,-60,-134,-163,-322,-520,-751,-3284,-5897,-3837,-1039,1070,679,288,608,720,213,-63,225,409,522,226,-426,-533,11,664,748,1756,3741,4912,4525,3489,2134,428,-1300,-2630,-2990,-3246,-3492,-3079,-1906,-894,-2091,-3001,-3051,-3562
2018-05-22,11:07:18.527,-4294,-4727,-3228,-1176,-20,555,705,305,-249,-448,-48,885,1794,2236,2239,2052,1738,1245,806,535,554,867,1295,1916,2658,3204,3496,3486,3040,1789,508,169,309,605,674,259,-154,-360,-609,-1287,-2456,-3515,-4185,-3740,-2441,-1941,-2249,-1741,-216,701,-849,-2056,-1800,-1656,-1142,-335,396,823,1016,1119,1419,2009,2572,3055,3486,3684,3060,1725,391,-408,-861,-1056,-1040,-1199,-1339,-1324,-1131,-921,-705,-960,-2348,-3646,-3072,-1657,-680,247,724,450,-93,-142,140,641,1191,1251,889,352,36,-113,30,608,1289,2662,4684,5480,3585,2263,1246,-986,-2188,-1849,-1239,-546,212,657,400,-90,-424,-672,-1340,-2558,-3615,-3806,-3446,-2361,-1989,-2194,-2041,-2146
2018-05-22,11:07:19.564,-1641,-1142,-854,-51,397,551,611,857,1328,2010,2812,3288,3368,3270,3115,2425,1199,-36,-703,-860,-610,-549,-533,-471,-545,-428,651,1948,1889,-1372,-3692,-2891,-1660,-643,-5,151,-378,-885,-844,-308,391,1034,1542,1750,1629,1359,1048,853,823,921,1266,1773,2057,2224,2198,1236,-115,-814,-884,-660,-454,-303,-150,-46,-170,-540,-1244,-2646,-4579,-4843,-3528,-2701,-2150,-1740,-1164,-979,-1026,-824,-877,-1026,-528,992,2390,1078,-367,-498,-452,-32,409,694,1217,1880,2365,2512,2255,1807,1186,721,508,466,606,588,621,698,793,938,1367,1305,254,-546,-402,-236,76,-44,-540,-1088,-1633,-1570,-949,-195,328,404,223,194,147,140,265,535
2018-05-22,11:07:20.602,564,353,171,-17,-413,-453,354,1383,1067,-672,-1228,-1283,-1345,-1173,-1123,-1347,-2218,-3036,-2130,-1531,-1350,-1215,-1236,-1328,-1456,-1003,-683,-364,107,439,525,472,481,491,479,915,1220,1335,1358,1248,1208,1061,798,656,457,289,313,138,201,458,410,411,505,429,49,-608,-1373,-1897,-1458,-282,1347,2517,1420,-231,-529,-592,-333,-83,204,588,1069,1435,1261,817,31,-391,-120,268,646,1082,1450,1589,1634,1572,1259,1018,778,436,183,-320,-1365,-2024,-2252,-2352,-2333,-2525,-2687,-2795,-3024,-2339,-1865,-2041,-1906,-1502,-1193,-1248,-1116,-686,-301,-135,-43,24,-92,392,1399,2132,1031,-289,-620,-891,-793,-166,417,409,641,1125,1228,1058
2018-05-22,11:07:21.639,1342,1461,1513,1426,1484,1489,1073,310,91,681,1454,1619,1090,192,-1160,-2920,-4252,-4086,-2056,-24,980,1487,1607,1458,1277,1225,970,641,473,444,523,613,699,705,327,-659,-1669,-1878,-843,556,1052,305,-65,-74,-76,137,315,-1129,-2645,-1153,477,577,130,-30,-253,-902,-1234,-905,-446,-189,115,343,369,570,951,1201,1428,1694,1621,1527,1720,1645,1509,1110,349,-539,-1531,-1949,-2118,-2133,-2056,-1875,-1577,-1240,-890,-604,-399,-164,-162,-1058,-1568,-723,892,2838,2755,490,-918,-1801,-2121,-1873,-1728,-1079,-225,636,1433,1824,1818,1756,1843,1964,1778,1275,637,0,-578,-942,-1075,-1068,-1013,-917,-836,-795,-724,-602,-509,-389,-33,90
2018-05-22,11:07:22.676,-900,-1007,-30,-110,-316,-89,-11,-232,-542,-857,-870,-407,-118,-55,-60,-20,-221,288,1535,2832,2000,743,779,680,798,1138,1104,1004,955,917,908,887,898,877,866,862,848,815,818,797,596,321,378,-161,-625,-90,463,655,524,-39,-592,-847,-782,-682,-700,-844,-1028,-1158,-1156,-1064,-926,-915,-882,-655,-602,-591,-555,-473,-511,-603,-71,810,873,-687,-1431,-1291,-1326,-1052,-450,355,764,160,-1085,-1499,-1006,-513,-295,-159,-92,-193,-452,-271,65,298,493,804,1007,962,992,1007,718,598,899,1176,1214,1150,1150,1212,1134,1184,1150,1035,875,571,380,506,620,469,-105,-907,-1617,-2101,-2894,-3775,-2978,-661,458,180
2018-05-22,11:07:23.714,556,444,347,352,223,14,-184,-240,-332,-560,-473,-347,-238,-73,-55,9,164,443,738,847,750,753,763,763,830,672,277,-17,-296,-384,-185,-46,-210,-685,-1040,-869,-634,-578,-582,-669,-1063,-1108,-826,-707,-1186,-772,-307,-449,-750,-551,667,2063,1678,382,-228,274,509,287,582,1007,593,543,656,552,530,1004,1254,624,-798,-2556,-3337,-2715,-137,1887,1202,139,-549,-1075,-1041,-401,-202,-357,-323,-141,40,151,126,37,60,329,497,634,678,588,336,117,181,168,-194,-904,-1367,-1551,-914,211,136,-2007,-2488,-1069,-627,-350,119,197,-324,-796,-1071,-1293,-1441,-89,844,971,1238,1480,1621,1757,2049,2295,2023,1400
2018-05-22,11:07:24.751,1017,662,597,577,379,212,9,-271,-376,272,246,-879,-1476,-1088,-582,316,842,262,-741,-1866,-2598,-2195,-1280,-638,-455,-543,-853,-431,742,1486,376,-491,-340,-627,-860,-751,-490,-212,24,95,116,154,233,360,470,510,599,683,573,237,-229,-792,-934,-2494,-3172,-2336,-1744,-1821,-1819,-1788,-1930,-1500,-828,-509,-313,-103,59,218,506,811,1085,1524,2070,2638,3208,3452,3309,2972,2520,2106,2467,3245,3471,1549,-676,-1665,-1922,-1389,-900,-1298,-1972,-2258,-1604,120,1153,2098,2680,2535,1408,-658,-2821,-4367,-4665,-3603,-1763,246,1396,1453,1100,657,797,1418,2099,2815,3553,4159,4253,3737,3112,2222,745,-1159,-2766,-3467,-3316,-2898,-2564,-2276
2018-05-22,11:07:25.788,-2103,-2422,-2914,-3101,-2207,-2158,-1723,-323,-312,-787,-876,-1254,-1189,-1066,-947,-739,-588,-417,-188,104,393,752,1311,1939,2660,3414,3876,3990,4066,4034,4025,3903,3443,2734,2031,1227,364,-428,-1241,-2027,-2512,-2409,-2012,-1623,-1415,-1400,-1378,-1573,-1790,-1789,-1733,-1524,144,1250,1299,541,-845,-1802,-1247,288,1439,528,29,243,288,343,261,226,300,384,481,560,608,654,573,340,102,-110,-291,-429,-532,-714,-892,-1022,-1020,-889,-733,-632,-574,-606,-708,-893,-1220,-1611,-1628,-1004,-133,44,25,181,254,179,97,134,156,213,280,279,337,251,273,998,1962,2991,1964,1093,1078,1155,1333,1394,1317,1132,1419,1559,1336,1200,1138,1040
2018-05-22,11:07:26.825,956,876,792,763,725,578,-139,-737,-680,-457,-294,-81,215,172,-315,-871,-1184,-1173,-919,-669,-467,-313,-362,-567,-640,-835,-882,-738,-492,-173,278,800,1286,1459,1242,1428,1979,1670,-880,-3811,-5436,-7167,-8584,-9038,-8587,-7422,-6069,-5249,-5312,-6478,-8196,-7058,-1308,4719,5791,5523,5528,5305,4169,2746,155,-1346,-1099,-1105,-673,620,2299,4129,5052,4468,3502,2733,2214,1388,484,-295,-724,-974,-1241,-1381,-1435,-1449,-1538,-1542,-1480,-1428,-1605,-1864,-1327,-104,543,-896,-1529,-870,-145,835,1367,1809,1863,2333,3098,4782,6833,7528,7141,6270,4885,4132,3721,3022,2393,1720,916,129,-532,-947,-1158,-1358,-1686,-2164,-2747,-3518,-4614,-5803,-5939,-4921,-3572,-2912
2018-05-22,11:07:27.863,-2505,-2584,-1813,-1440,-1044,-1492,-2120,-867,-467,-1056,-419,119,39,590,1921,2956,1932,1991,2546,2678,2604,2198,1501,580,27,82,71,-134,-235,-348,-438,-534,-1027,-1958,-2972,-3681,-4305,-5476,-5951,-4877,-3636,-2646,-1357,284,1631,2202,2367,2288,1952,542,-1371,-1710,-1032,7,1106,2386,2916,2692,2343,2479,3424,4291,3709,3034,2458,2181,2588,2872,1672,5,-161,-53,103,479,738,1109,1317,164,-476,-154,-322,-304,71,372,306,-225,-402,-126,295,374,138,-69,-105,-91,-190,92,578,931,1254,1784,2525,3417,4080,3973,3212,2227,1244,327,-191,-436,-589,-608,-511,-379,-272,-361,-440,-123,-105,-737,-2165,-2710,-2064,-1140,141,400,-538,-1915
2018-05-22,11:07:28.900,-3242,-4282,-3934,-2145,298,2004,2338,2147,2120,2173,2284,2287,2112,1948,1542,967,461,-120,-588,-832,-924,-973,-986,-934,-904,-910,-974,-1126,-1389,-1817,-2242,-2476,-2786,-2627,-2258,-2310,-1942,-1552,-1552,-1612,-1908,-2048,-846,1090,1827,443,48,144,193,720,1027,1145,1534,1924,2306,2468,2440,2278,2002,1703,1475,1326,1243,1395,1406,963,6,-1312,-2809,-3489,-2435,-1612,-1116,-418,-47,-541,-1703,-3341,-4681,-4975,-4070,-2762,-1268,261,1141,1021,654,744,992,1244,1510,1546,1250,886,648,215,-620,-1852,-1516,-797,-148,147,-628,-1720,-2245,-2386,-2294,-1860,-980,774,3066,-990,-5479,-2027,178,263,544,1186,1217,719,204,245,502,127,-161,336,1069,1626
2018-05-22,11:07:29.937,2027,2600,3781,5156,6227,6600,5983,4841,3759,2410,1162,-49,-1006,-1491,-1742,-2440,-3804,-4830,-4215,-2837,-2271,-4478,-7424,-9005,-8559,-4778,-424,376,-251,-971,-1398,-1362,-1314,-1064,-534,131,576,709,766,936,1366,2326,3234,3858,4464,5031,5340,5295,4256,2460,574,-716,-1529,-1067,-556,-824,-1414,-2686,-5938,-10725,-11899,-8165,-5865,-5304,-4563,-3869,-3034,-2353,-2080,-2263,-1116,1424,3578,2971,2310,3033,4312,5490,6683,7127,6552,5407,4144,3146,2053,910,39,-264,-314,-283,-292,-279,-334,-458,-995,-2287,-4231,-4652,-4482,-3468,-1707,-1195,-2256,-3650,-4752,-5027,-4547,-3566,-2160,-839,-236,-235,9,951,2495,3990,5247,6021,6000,5328,4045,2385,1159,573,-44,-1164,-805,-179
2018-05-22,11:07:30.974,-5,303,112,-1175,-2529,-2379,-2115,-5333,-6636,-4263,-2636,-1864,-1379,-828,-499,102,1261,1989,2011,2088,2541,2957,3250,3429,3546,3809,4255,4612,4394,3906,3435,3206,3006,2859,2762,2685,2447,2210,2083,2043,1972,1885,1538,956,-781,-3850,-4903,-3869,-1706,-482,38,-585,-1868,-3547,-4702,-4679,-3471,-1660,56,1008,1433,1670,1859,2215,2901,3791,4176,4005,3435,2626,1832,825,-552,-2080,-3189,-3503,-3196,-2718,-2418,-2279,-2174,-2066,-1889,-1919,-2025,-2884,-3986,-3667,-2898,-2384,-1791,-1374,-1264,-1285,-1363,-1679,-1303,-12,1854,3683,2728,1592,1820,2188,3240,4199,4418,4272,4192,4270,4268,3875,3265,2505,1935,1611,1150,851,776,752,796,863,840,401,-2409,-4972,-4374,-1670
2018-05-22,11:07:32.012,-1374,-1101,-875,-999,-1488,-2223,-2895,-2951,-2083,-1217,-860,-723,-547,-473,-556,-452,-212,125,222,174,542,1102,643,-1340,-2230,-1591,-1073,-533,-113,128,208,284,404,545,605,553,184,-271,-218,-889,-1201,-539,112,324,261,7,-407,-629,-630,-250,165,420,560,746,1213,1556,1926,2243,2852,2962,3025,3462,3797,4041,4280,4285,3883,3189,2241,1190,239,-19,663,1643,1322,-1049,-2100,-2418,-3690,-5597,-5363,-3767,-1823,-553,-223,-1051,-2309,-3059,-3204,-2475,-922,304,737,879,1134,1860,2614,2939,2766,2137,1258,246,-753,-1577,-1889,-1682,-1278,-819,-422,-263,-297,-508,-772,-1105,-1369,-1331,-1055,-823,-522,-622,-1866,-2647,-2645,-1859,-360,1005,344,-2166
2018-05-22,11:07:33.049,-2379,-1413,-173,530,852,1172,1414,1610,1873,2231,3088,3957,4104,3808,3311,2767,2238,1754,1246,722,263,-112,-365,-480,-469,-256,-10,-216,-953,-2361,-3479,-3485,-2040,-586,32,-409,-1441,-2292,-2683,-2702,-2381,-1685,-645,296,882,991,869,1596,2948,3755,2558,2040,2045,1939,2126,1959,1291,604,14,-379,-549,-653,-834,-1044,-1258,-1456,-1554,-1531,-1267,-815,-887,-1314,-1078,-1051,-1703,-2135,-2139,-2138,-2123,-1869,-1234,-588,-67,1083,1583,1654,1739,1976,2315,2584,2670,2411,1735,1029,377,-281,-865,-1127,-559,387,580,-1312,-2552,-3134,-4033,-3609,-2513,-1716,-1095,-289,302,405,102,-193,-363,-87,828,1864,2537,2592,2368,2214,2099,2205,2209,2027,2314,1898
2018-05-22,11:07:34.086,1055,335,-280,-581,-471,-134,176,304,233,-8,-245,-515,-803,-902,-914,-1079,-1482,-1472,-894,-700,-954,-741,109,708,-1010,-1810,-1302,-1356,-1207,-1216,-1277,-953,-572,-292,312,774,1129,1544,2003,2306,2288,1832,1134,617,366,300,312,335,403,434,435,408,374,360,315,322,-470,-1416,-1811,-1532,-1256,-351,1131,1252,-386,-2419,-4390,-5494,-5098,-3376,-957,997,2659,3806,3754,2411,2351,2460,1866,1255,533,-550,-1799,-2696,-2944,-2651,-2355,-2213,-2138,-2090,-2039,-2001,-2009,-1977,-1973,-2042,-2306,-2463,-2158,-2086,-2485,-2484,-1559,-643,123,531,88,-553,-926,-983,-756,-203,392,821,1238,1463,1558,1664,1881,2232,2677,3013,3257,3948,5153,5590,3428,1220
2018-05-22,11:07:35.123,58,-908,-1273,-1330,-1271,-880,-402,-11,329,641,842,759,388,-497,-2398,-3674,-2947,-484,703,762,261,-853,-1829,-2399,-2567,-1855,-1337,-1202,-763,126,972,1383,1182,786,835,1251,1496,1401,1145,782,445,92,-525,-1250,-1592,-1418,-439,667,642,-780,-1067,-766,-702,-439,-287,-317,-71,851,768,223,500,602,481,154,-260,-670,-917,-901,-907,-669,-136,539,1229,1617,2255,2833,3265,3630,4286,5274,6299,6461,5744,4729,3722,2665,1505,355,-954,-2525,-4332,-5064,-4812,-4146,-3296,-2807,-2500,-1895,-1217,-1701,-3939,-3539,-1149,773,1224,440,-501,-2076,-3480,-3552,-2702,-1034,1075,2613,3075,2758,2262,2146,2497,2975,3628,4213,4458,4315,3917,3173,2105,972
2018-05-22,11:07:36.161,-200,-1112,-1600,-1535,-1432,-1825,-2739,-3388,-3230,-2231,-832,-135,-1872,-3643,-3245,-2735,-3293,-3312,-3124,-3276,-2391,-141,2010,1240,378,373,475,1161,2433,3342,4039,4374,3624,2737,1844,1252,1115,866,59,-1364,-2860,-3185,-2416,-1415,-907,-1185,-2002,-3503,-4002,-2060,-851,-130,195,-345,-1680,-3725,-5063,-4394,-2783,-895,593,1659,2487,3137,3440,3110,2635,2131,1685,1321,861,875,1009,32,-2442,-3470,-2923,-2533,-1981,-1454,-1191,-1048,-884,-733,-549,-137,1866,4060,4348,4123,3185,1684,78,-1589,-2765,-3190,-2602,-1864,-1009,-173,6,416,1086,1979,2815,3548,4577,4594,3719,2864,2427,2362,2261,2182,2081,1641,784,-400,-1459,-2147,-2918,-3661,-3561,-2743,-1866,-2948,-5271,-7123
2018-05-22,11:07:37.198,-6443,-2405,698,1001,151,-463,-1220,-1956,-1877,-852,515,1831,2642,2944,3045,2968,2954,2925,2868,2833,2840,2612,2123,1539,841,-271,-1410,-2123,-2198,-1854,-1503,-1249,-1180,-1183,-1214,-1336,-1483,-1599,-1691,-961,330,1322,2405,2913,2302,1459,1081,813,-552,-2221,-1757,-940,-162,289,317,324,637,1032,1588,1835,2176,2279,2182,2119,1950,1631,1261,904,646,476,436,407,397,420,429,484,539,542,775,1114,89,-2295,-2757,-1164,-95,480,-507,-2628,-4922,-6436,-6957,-6309,-4167,-1680,63,1003,1782,2683,2949,1499,501,777,1038,1275,1199,892,666,363,-97,-578,-1007,-1299,-1488,-1510,-1422,-1301,-1118,-977,-910,-870,-910,-970,-1012,-1220,-1502,-1376,-1247,-461
2018-05-22,11:07:38.235,518,1090,1203,700,-320,-1245,-1668,-1767,-1706,-1101,-476,-7,487,742,1133,1658,1983,1869,1400,1993,3928,5707,4967,3401,2707,1772,929,154,-463,-741,-699,-538,-788,-1358,-1947,-2511,-2981,-3365,-2865,-1116,232,797,529,-309,-1136,-1765,-2180,-2346,-2043,-1006,186,963,1195,1189,1094,1263,1520,1738,1951,2011,1778,1428,1140,772,311,-22,-385,-862,-1205,-1059,-395,93,-1156,-2770,-2780,-2496,-1888,-450,636,675,157,0,-258,-973,-1517,-1747,-1890,-1948,-1865,-1089,-266,219,911,1092,1247,1617,1940,2507,3195,3854,4335,4463,3990,2803,1587,538,-304,-938,-1203,-1221,-1123,-724,-245,-275,-596,-783,-1404,-3218,-4057,-3085,-1055,1490,1956,-571,-2605,-3388,-3441,-2953
2018-05-22,11:07:39.272,-1709,394,2113,2943,3226,3185,3262,3983,4905,5337,4862,3851,2617,1345,341,-507,-1464,-2530,-3376,-3680,-3815,-4166,-4478,-4590,-4462,-3481,-1330,-309,124,952,694,-953,-2067,-2744,-3368,-3282,-2243,-866,-17,584,1127,1267,1337,1926,3338,4267,3340,2144,1487,442,-169,-392,-492,-500,-562,-688,-848,-924,-807,-588,-681,-1196,-1988,-3428,-3215,-1428,-423,409,1781,1782,501,-791,-1679,-1843,-756,1182,2648,3433,3694,3650,3356,3041,2851,2602,2078,1580,1408,1440,1312,759,-234,-1200,-2026,-2036,-559,-180,-1456,-3079,-3425,-3542,-3428,-3020,-2771,-2624,-2878,-3042,-1871,-1653,-2195,-1837,-1360,-928,-937,-1294,-1982,-2455,-2044,-1283,-702,-103,311,623,855,1006,1206,1317,1552,2203
2018-05-22,11:07:40.310,3087,3883,4267,4230,3956,3346,2547,1837,1238,931,1001,1188,1276,1303,1140,1263,2131,2720,1179,-1877,-2557,-1836,-486,1441,1258,-842,-4306,-7842,-10050,-9340,-6286,-1818,2404,4302,4322,4323,4322,4184,3932,3628,3346,3156,3239,3042,1907,551,-808,-1925,-2818,-3020,-2720,-2430,-2200,-2101,-2098,-2062,-2172,-2352,-2533,-2823,-2918,-3252,-4019,-3268,-2326,-1669,-444,756,1330,-162,-2080,-2221,-2099,-1231,-20,598,912,1465,2163,2442,2911,3556,3873,4275,4806,5142,5064,4697,4199,3441,2513,1760,1348,1136,978,835,690,599,623,623,537,-14,-879,-1095,-1308,-1150,-103,1209,1667,859,-552,-2358,-4123,-4477,-3393,-1750,-6,1291,2098,1665,1227,2478,3071,2765,1970,895,-309,-1116
2018-05-22,11:07:41.347,-1673,-2395,-2682,-2402,-2130,-1997,-1807,-1733,-1713,-1724,-1689,-1669,-1747,-1877,-1878,-1532,-266,1064,1928,2303,1988,1360,323,-988,-1981,-2287,-2060,-1549,-835,-218,164,678,1162,1627,2026,2348,2274,1779,1241,1492,2719,4041,3205,1636,816,91,-203,-391,-674,-748,-647,-425,119,637,391,-587,-2373,-2750,-1506,-518,424,1013,804,-590,-2948,-4611,-4394,-2979,-1322,361,1502,1849,1667,1619,1931,2299,2563,2422,2225,2124,2146,2277,2368,2137,1423,350,-818,-2023,-3148,-3314,-2515,-1784,-1705,-242,801,971,890,557,-109,-742,-1613,-2123,-2290,-2611,-2665,-2480,-2101,-1546,-1064,-705,-395,-137,305,940,1404,1800,2115,1954,1346,741,332,44,-273,-549,-986,-1568,-1912,-1957
2018-05-22,11:07:42.384,-1645,-826,56,-424,-1507,-1100,222,1198,2451,3625,3565,3578,3219,1455,-1185,-1795,-755,56,752,1470,2583,3766,4895,5277,4911,4227,3376,2679,2173,1238,218,-365,-1061,-1560,-1818,-2349,-3093,-3902,-4725,-5405,-5608,-5575,-5589,-5194,-3726,-2692,-2489,-2781,-3589,-4254,-4656,-5132,-5371,-5027,-4236,-3284,-1524,-259,661,1251,1634,2600,4011,5288,4733,3116,2491,1832,1265,866,484,152,23,-63,-128,-122,-5,177,287,451,717,1048,1553,1941,1059,11,-562,-1105,-1148,-81,1297,1284,-219,-2293,-3911,-3433,-1464,495,1867,2621,2852,2783,2637,2688,2669,2349,1718,1008,562,224,-201,-291,151,191,-1078,-1692,-1247,-1036,-712,-309,-91,-191,-427,-228,-1107,-740,-141,256
2018-05-22,11:07:43.421,554,591,243,59,13,-607,-1072,-982,-788,-698,-644,-529,-438,-305,-118,74,400,662,891,1178,1269,1351,1378,942,683,450,340,326,278,164,65,-98,-113,835,2735,3730,1465,-403,-1465,-1750,-1227,-420,301,219,-628,-1227,-1254,-931,-360,165,358,168,91,195,391,810,1425,1628,1133,451,145,43,-125,-352,-726,-1190,-1552,-1640,-1522,-1426,-1355,-1158,-793,-419,-385,-1143,-2679,-2621,-1302,-459,-137,-386,-865,-504,468,620,-951,-1322,-1114,-889,-311,56,310,614,809,1006,1294,1509,1953,2071,2219,2304,2170,1868,1614,1497,1343,1201,1142,1103,989,720,459,444,427,-278,-1190,-1115,-668,237,614,34,-1205,-2166,-2777,-3005,-2828,-2096
2018-05-22,11:07:44.459,-1105,-219,472,783,952,1605,2272,1531,340,816,1249,1648,1558,683,-401,-378,1066,1898,1713,1465,1136,346,-949,-2672,-4099,-4719,-4616,-4221,-4378,-4922,-5175,-5002,-4601,-4272,-3822,-3384,-3025,-2021,-882,139,1094,1966,2554,2902,3131,3425,3588,3840,4169,4393,4705,5187,5405,5000,4749,4969,5020,3358,1198,-361,-2072,-3081,-3493,-3627,-3289,-2964,-3290,-3170,-2373,-1772,-1857,-2736,-3713,-4145,-4349,-4266,-3357,-2116,-868,-65,489,398,78,-186,-222,4,413,673,665,253,-537,-1168,-1414,-1489,-1472,-1269,-988,-786,-527,-224,43,481,1730,4990,6764,5787,3112,1857,1520,737,226,-276,-835,-1266,-1664,-1630,-1145,-644,-78,261,635,1395,1932,2520,2771,2795,2797,2773
2018-05-22,11:07:45.496,2700,2564,2399,2176,1944,1792,1735,1591,1425,1301,1145,970,729,410,-81,-683,-867,-654,-257,380,1222,2247,2175,1001,-46,387,1617,2096,926,872,1274,1965,3079,3460,2608,1017,-729,-2059,-2864,-3385,-3754,-3782,-3447,-3124,-3016,-2868,-2676,-2557,-2553,-2425,-2293,-2284,-2248,-2270,-2423,-2705,-3016,-3005,-3670,-4511,-4179,-3236,-2507,-2369,-2733,-3200,-3084,-2451,-1920,-1543,-934,-167,399,662,1472,3041,4832,4679,3091,2896,2949,3335,3802,4273,4411,4161,3641,3054,2492,1930,1483,1199,1127,1235,1317,1269,1135,317,-1005,-1629,-1296,-181,1197,1316,-39,-1519,-3141,-4982,-4288,-1498,676,1174,622,118,115,244,403,536,467,313,102,-66,-272,-263,541,1480,1144,-581
2018-05-22,11:07:46.533,-804,-587,-482,-201,-159,-463,-820,-1188,-1717,-1823,-1347,-811,-407,-175,3,50,-367,-791,-821,-631,-521,-346,-22,303,440,897,1438,1435,1397,1823,2209,2075,1830,1882,1962,1833,1592,1478,1369,1298,1263,1230,1116,859,686,1421,2345,1916,-459,-1914,-1801,-512,452,568,229,-615,-1701,-2416,-2182,-1148,-154,337,579,640,578,517,563,726,887,880,675,481,228,65,-113,-314,-401,-447,-352,-314,-468,-719,-1090,-1469,-1731,-1844,-1848,-1888,-2090,-2414,-2696,-2999,-3022,-2701,-1704,-30,1546,553,-1745,-1998,-1715,-1134,-84,260,392,725,1098,1373,1526,1719,1733,1799,2002,2120,1993,1921,2011,2119,2176,2023,1699,1316,926,639,440,373,510,365
2018-05-22,11:07:47.570,-445,-1624,-2068,-1718,-953,-262,-362,-1200,-2532,-3813,-4505,-4733,-4164,-2927,-1545,63,1770,2489,989,-525,-432,-197,196,632,964,1116,1226,1104,630,95,-410,-844,-791,-641,-524,-449,-339,-58,675,1549,2198,2357,1649,197,-701,-789,-726,-725,-483,-250,-373,-582,-679,-999,-861,-823,-559,48,1264,2475,2646,2437,1797,973,503,1277,2544,2598,861,-118,-449,-86,329,-86,-477,-369,3,295,-285,-1570,-2247,-1953,-888,735,1246,681,-577,-2131,-3061,-2418,-345,1358,1631,2397,3795,4856,5660,6045,6044,5711,4873,3651,2430,1229,-96,-1619,-3161,-4108,-4622,-4696,-4400,-4185,-4285,-3982,-3044,-2514,-3492,-3915,-2385,-821,33,759,819,211,-155,-337,-731,-1683
2018-05-22,11:07:48.608,-2769,-3022,-3277,-3259,-2635,-1925,-1072,-238,243,449,542,780,1187,1299,780,288,-19,-262,-430,-501,-535,-557,-561,-505,-442,-427,-418,-368,-202,-83,88,-1017,-2621,-2564,-1920,-387,1896,1935,-386,-2287,-4166,-5396,-4991,-3347,-1541,80,1440,2246,2379,2440,2583,2992,3171,3017,2966,2702,2234,1561,613,-509,-1346,-1667,-1667,-1466,-1163,-927,-767,-631,-579,-631,-661,-833,-1147,-1594,-1946,-1954,-2460,-3022,-3217,-3138,-2531,-1961,-1635,-1044,-246,874,363,-619,-373,25,699,1152,1333,1534,1921,2315,3000,4188,6178,6860,6795,6578,5979,4987,3831,2858,2141,1637,1479,1026,227,-942,-2821,-4942,-7370,-10344,-10133,-6699,-3282,-925,842,1887,1976,1398,1283,1777,2191,2064
2018-05-22,11:07:49.645,1754,1504,1261,1057,1472,2189,2036,411,-118,425,940,1436,1470,931,281,-381,-1025,-1525,-1714,-1620,-1375,-1106,-841,-638,-522,-443,-434,-466,-427,-509,-794,-1313,-1935,-2255,-1411,7,1289,1900,1523,703,2,-295,-285,15,133,337,561,823,1117,1429,1893,1912,2192,3316,4666,4371,2719,2276,2302,2502,2882,3212,3411,3413,3147,2746,2196,1306,115,-1360,-2651,-3602,-4155,-4454,-5169,-6074,-5516,-2666,-397,101,-280,-1232,-2848,-4619,-5529,-4941,-3011,-451,1343,1977,1689,1119,1072,1426,1578,1708,2009,2131,1508,220,-299,1084,3045,3755,2464,510,25,-320,-631,-982,-1539,-2176,-2641,-2727,-2386,-1814,-2816,-4737,-5162,-4219,-3219,-2731,-2515,-2382,-2185,-1881,-1373,-681
2018-05-22,11:07:50.682,-239,339,1005,1711,2152,2494,2961,3433,3779,3967,4205,4796,5170,5164,4649,3844,2921,2072,1435,994,533,602,1567,2804,2711,713,-193,-751,-2170,-3464,-3097,-1784,-396,317,-575,-2638,-4798,-6272,-6981,-6336,-4185,-1847,372,2094,2723,2525,2364,2740,3505,3862,3779,3078,1502,-630,-2478,-2984,-1868,-665,-373,229,820,545,-494,-1598,-2519,-3743,-4260,-2908,-1917,-3661,-3912,-1978,-1049,-2624,-3293,-3457,-3082,-2460,-1746,-561,668,1478,1984,2392,2602,2756,3022,3386,3620,4007,4528,4022,2814,2421,2716,2562,1787,1785,1642,1065,473,-46,-405,-282,567,874,-112,-1340,-1652,-853,-4,817,997,-485,-2979,-4712,-5040,-4696,-3096,-288,2416,3177,3421,3568,3360,3411,3355,2820
2018-05-22,11:07:51.720,2047,1531,1112,716,447,343,345,52,-883,-1912,-2548,-2656,-2532,-2448,-2377,-2182,-1981,-1888,-1852,-1891,-1908,-1959,-2116,-1561,-65,-330,-1134,-873,-1012,-1460,-2018,-2473,-2354,-1887,-1437,-460,304,772,1390,2887,4472,4897,3907,3654,3513,2940,2554,2450,2472,2372,2330,2194,1503,694,200,8,38,221,456,637,778,854,816,668,549,563,457,157,-766,-1190,-834,286,1189,550,-1317,-4071,-6566,-7696,-6566,-3963,-1301,482,1333,1552,1444,1132,1146,2041,3040,2717,1167,415,-168,-699,-912,-1257,-1311,-1090,-891,-676,-548,-545,-654,-896,-1211,-1012,-681,-1537,-888,247,672,670,522,328,81,-338,-509,-764,-648,-444,-159,292,968,1464,1776,1854,1778,1738
2018-05-22,11:07:52.757,1753,1299,721,414,105,-246,-582,-125,1069,2030,945,-271,-431,-373,90,598,636,317,-162,-577,-307,-429,-625,-445,-452,-728,-1715,-2764,-3359,-3165,-2444,-1672,-692,69,506,456,103,-156,-204,-22,326,550,630,606,600,534,391,71,-381,-634,-725,-911,-1058,-1131,-1253,-823,126,459,-921,-1960,-1902,-1827,-1213,-292,584,1415,2098,2144,1551,724,-172,-976,-1385,-1106,-588,-175,382,833,1355,1860,2269,2460,2330,2235,2104,1907,1813,1653,1427,1060,682,393,173,-9,-131,-195,-203,-157,1,255,549,466,-109,-102,311,-78,-1735,-2452,-1284,-278,-389,-1220,-2474,-4217,-5530,-5687,-5102,-3476,-1157,678,1981,2376,2058,1840,1974,2239,2631,2876
