2018-09-18,14:23:53.084,-299,-830,-730,-392,-263,-236,-212,-175,-154,-137,-107,-80,-69,-74,-53,-30,2,38,65,97,131,172,203,218,212,185,152,107,64,2,-51,-79,-111,-130,-125,-119,-118,-108,-108,-118,-97,-71,-55,-28,-25,-9,-2,10,32,30,24,21,19,17,-11,-20,-21,-19,-18,0,12,6,23,75,118,102,74,75,61,9,-38,-54,-76,-79,-106,-202,-201,157,826,1317,926,103,-616,-755,-440,-249,-215,-198,-173,-150,-126,-100,-73,-66,-53,-47,-27,-5,24,43,73,102,131,173,183,201,202,175,157,104,46,-9,-60,-99,-111,-103,-102,-108,-111,-98,-76,-71,-55,-40,-21,-5,-9,-12
2018-09-18,14:23:54.112,-25,-18,-12,-12,-11,-16,-9,-22,-30,-22,-25,-28,-25,-43,-48,-42,-39,-27,-4,8,21,18,7,0,1,5,-11,-32,-38,-34,-37,-43,-44,-41,-21,-1,10,26,29,55,99,108,86,68,56,22,-11,-46,-67,-68,-102,-181,-186,135,829,1395,1072,247,-526,-703,-415,-254,-210,-185,-171,-146,-112,-98,-100,-100,-83,-61,-39,-15,8,31,42,71,105,143,175,185,177,157,130,107,69,16,-38,-77,-98,-106,-120,-111,-98,-74,-86,-77,-55,-46,-33,-40,-28,-27,-33,-22,-14,-12,-12,-13,-13,-9,-15,-9,-34,-40,-11,-23,-23,-5,9,34,56,52,50,22,3,-41
2018-09-18,14:23:55.140,-72,-66,7,-24,-42,-57,-89,-103,-119,-103,-45,4,72,126,152,137,119,140,142,124,128,134,121,107,107,73,75,77,88,125,89,75,50,-1,-41,-41,-46,-106,-182,-237,-61,404,1086,1192,474,-261,-777,-665,-354,-261,-260,-233,-229,-186,-168,-141,-120,-113,-127,-99,-65,-59,-54,-51,-93,58,207,183,173,163,142,104,58,19,-27,-91,-144,-176,-178,-235,-230,-213,-158,-157,-127,-107,-78,-57,-38,-2,11,8,24,2,68,79,55,63,72,56,34,24,43,31,37,54,16,72,60,27,38,46,53,40,51,29,35,66,97,28,-10,63,27,-57,-34,-19,24,27
2018-09-18,14:23:56.168,19,17,9,38,28,44,91,71,18,28,51,36,22,-33,-33,-75,-81,-164,-213,28,594,1191,1037,217,-470,-766,-496,-249,-205,-187,-141,-99,-77,-66,-69,3,-56,-61,-25,-11,14,39,80,82,103,186,192,157,171,166,130,98,45,-15,-68,-100,-154,-182,-185,-166,-144,-127,-104,-126,-87,-58,-42,-29,1,-1,4,27,21,32,11,-11,-18,-5,-3,-11,-9,4,-3,-17,-23,-19,-59,-64,-41,-43,-36,-53,-59,-56,-25,-55,-59,-60,-37,-35,-36,-48,5,33,25,0,11,10,-13,-14,5,16,9,37,59,58,39,51,59,59,53,35,99,105,81,95,62,32
2018-09-18,14:23:57.196,30,34,28,-14,-81,-194,-168,223,1015,1604,1180,254,-632,-795,-443,-286,-280,-275,-245,-212,-193,-145,-135,-110,-77,-39,-34,-12,13,48,56,84,143,177,234,261,250,237,232,198,121,30,-21,-94,-148,-172,-189,-181,-185,-183,-160,-165,-131,-140,-129,-115,-97,-84,-81,-76,-77,-49,-27,-20,-19,-17,-16,-14,-13,-7,4,16,12,-6,-19,6,-2,-15,-26,-21,-22,-12,-6,3,9,-5,-36,-68,-60,-48,-24,-1,11,49,66,56,49,58,54,49,34,41,65,61,39,75,98,83,71,55,32,-1,-25,-38,-60,-94,-209,-238,136,981,1686,1453,426,-627,-818,-464,-343,-321
2018-09-18,14:23:58.224,-283,-256,-233,-211,-220,-183,-153,-140,-122,-108,-76,-42,-9,25,61,80,95,136,172,168,131,94,75,43,-20,-51,-85,-120,-107,-89,-87,-101,-101,-97,-85,-78,-80,-51,-48,-39,-43,-45,-25,-23,7,0,-55,-59,-54,-29,-16,-34,-18,44,40,6,-1,-3,6,29,36,16,8,7,20,9,1,-13,-24,0,18,36,45,22,49,60,46,21,11,-4,-11,-42,-36,-32,-65,-174,-225,31,707,1431,1363,541,-352,-674,-452,-280,-248,-229,-209,-193,-153,-141,-130,-124,-112,-76,-61,-41,-12,18,48,63,91,125,142,155,158,147,136,119,87,21,-39,-84,-98,-102,-109,-92
2018-09-18,14:23:59.251,-104,-90,-71,-64,-59,-48,-37,-33,-31,-44,-34,-22,-17,-6,-2,-16,-16,-29,-17,-4,-7,-20,-34,-21,-6,11,16,22,46,78,78,73,74,64,24,-13,-50,-69,-66,-65,-143,-178,29,585,1265,1290,526,-343,-637,-422,-304,-285,-265,-226,-196,-190,-182,-163,-119,-90,-73,-45,-32,-11,22,32,58,103,142,141,155,186,155,126,101,41,-25,-72,-88,-104,-121,-130,-152,-148,-113,-109,-89,-53,-55,-67,-31,-14,-8,6,20,7,6,-5,-14,-34,-21,-45,-80,-44,-19,-20,-29,-25,-18,-1,0,34,94,102,136,147,149,168,179,170,137,111,44,-75,-7,416,1221,1691
2018-09-18,14:24:00.279,1259,169,-604,-526,-414,-429,-421,-352,-332,-321,-287,-284,-266,-226,-175,-146,-96,-78,-52,-33,-5,2,37,74,97,126,126,125,98,47,9,-37,-71,-83,-90,-85,-72,-71,-62,-64,-61,-37,-16,-21,-6,-2,-5,-3,-34,-24,-30,-24,-22,0,5,2,6,1,-9,-16,-6,19,6,7,18,31,55,77,99,84,71,38,5,4,-17,-31,-38,-30,-29,-154,-195,109,912,1687,1711,806,-407,-703,-492,-402,-384,-379,-348,-302,-266,-238,-217,-191,-170,-140,-122,-89,-59,-21,1,34,72,110,109,108,123,121,90,75,36,-8,-37,-66,-101,-120,-110,-99,-81,-68,-60,-52,-52,-43
2018-09-18,14:24:01.307,-35,-27,-13,-4,-3,10,-4,-23,-25,-18,-22,-21,-13,-8,-22,-22,-8,-20,-8,0,11,14,11,4,0,31,64,65,57,78,89,76,63,45,43,30,-8,-33,-42,-47,-80,-197,-185,158,928,1597,1413,458,-516,-612,-367,-301,-316,-289,-260,-237,-214,-199,-176,-140,-117,-131,-112,-68,-28,-6,17,51,74,97,107,110,99,93,84,71,19,-18,-65,-86,-94,-109,-104,-105,-99,-78,-50,-40,-31,-27,-26,-22,0,4,-9,0,-7,0,-5,-25,-12,-6,-47,-40,-11,0,9,25,35,53,81,92,72,68,60,48,-3,-44,-43,-32,-57,-130,-204,-70,407,1141,1370,712
2018-09-18,14:24:02.335,-187,-602,-448,-287,-264,-258,-234,-213,-188,-159,-138,-109,-89,-82,-60,-24,-3,-3,31,84,114,122,138,145,135,128,110,82,48,1,-28,-56,-92,-119,-120,-117,-104,-91,-75,-71,-60,-32,-13,-24,-31,-19,-7,0,-6,-19,-16,-14,-22,-16,-26,-7,10,9,30,63,73,62,31,24,18,-26,-50,-41,-60,-60,-82,-178,-96,350,1088,1433,880,-16,-550,-434,-307,-294,-272,-259,-229,-184,-155,-141,-126,-110,-95,-76,-49,-30,-9,18,33,47,93,93,87,102,92,56,36,37,9,-39,-60,-65,-88,-95,-87,-67,-67,-57,-35,-31,-30,2,-2,-10,3,2,-10,-20,-12,-22
2018-09-18,14:24:03.363,-24,-9,-2,-9,6,26,27,35,38,54,88,75,56,54,38,7,-28,-58,-60,-56,-43,-108,-187,-63,470,1247,1479,813,-182,-592,-359,-268,-272,-287,-261,-237,-217,-199,-188,-177,-145,-120,-101,-69,-34,3,9,22,66,92,108,102,102,83,88,78,56,24,-12,-43,-68,-71,-75,-71,-61,-46,-38,-34,-24,-19,-11,-1,-2,-14,-27,-31,-33,-32,-35,-37,-31,-32,-31,-47,-44,-19,-15,-31,-31,-30,-11,19,27,18,41,79,77,61,50,49,9,-39,-59,-75,-74,-64,-128,-181,44,682,1362,1413,648,-325,-573,-373,-296,-289,-294,-268,-253,-227,-211,-193,-174,-147,-103,-101
2018-09-18,14:24:04.391,-76,-37,-18,16,48,79,87,87,96,96,91,82,86,58,13,-26,-44,-61,-71,-68,-55,-48,-31,-30,-25,-1,5,9,-3,-2,-3,-2,-8,-16,-12,0,-24,-25,-12,-8,-11,-15,-11,-15,4,-8,-16,0,-2,-10,10,18,26,27,58,74,61,46,45,30,-1,-46,-66,-35,-25,-85,-192,-111,299,1036,1436,869,-82,-621,-498,-311,-255,-244,-230,-220,-177,-155,-132,-106,-106,-83,-74,-58,-28,-5,31,45,57,87,115,109,88,85,80,73,31,9,-19,-46,-63,-73,-74,-89,-85,-75,-60,-48,-50,-28,-21,-17,-4,-4,-26,-22,-5,-6,-5,-17,-31,-36,-24,-11
2018-09-18,14:24:05.419,-15,-17,-7,3,0,-9,-10,-1,-5,-7,16,38,34,41,88,92,85,84,69,31,-13,-39,-46,-46,-48,-80,-181,-134,235,964,1434,984,66,-583,-515,-329,-277,-262,-248,-232,-213,-176,-136,-108,-92,-70,-56,-49,-18,0,18,54,68,72,73,93,74,65,67,50,33,6,-4,-10,-12,-32,-44,-48,-44,-45,-35,-45,-45,-21,-12,-1,11,9,-14,-36,-30,-5,-30,-43,-44,-21,-9,-12,-6,-2,-10,-29,-39,-27,-20,-2,-9,-21,-12,-21,-19,-20,-11,-26,3,-9,7,9,5,-3,-1,31,53,53,14,-14,-33,-9,-50,-167,-190,42,729,1483,1552,820,-214,-493
2018-09-18,14:24:06.447,-365,-346,-365,-339,-308,-278,-275,-274,-235,-217,-196,-158,-88,-84,-73,-55,-46,-21,25,17,40,19,-13,19,26,5,41,0,-13,-53,-79,-53,-51,-176,-230,19,133,105,8,18,58,49,32,26,-28,-35,-106,-88,-29,-118,-44,-16,-96,-8,-77,-1,105,82,-1,111,158,117,113,111,67,52,20,41,41,-7,75,116,89,26,3,-38,-141,-105,411,1356,1845,1497,262,-573,-493,-384,-422,-432,-426,-439,-358,-304,-295,-274,-240,-194,-187,-181,-179,-141,-134,-93,-40,-51,-17,28,35,15,36,89,64,-22,-9,0,-63,-44,-51,-70,-123,-97,-26,-19,38,24,19,37,-39,99
2018-09-18,14:24:07.475,55,1,33,35,16,-10,-29,-24,-17,-4,10,45,41,9,9,59,67,40,18,-21,1,-46,-80,-77,-73,-69,-155,-204,66,925,1753,1907,995,-369,-664,-475,-420,-430,-429,-400,-369,-339,-320,-280,-220,-178,-121,-103,-62,-33,-21,11,46,76,80,91,116,83,75,96,69,37,6,-22,-45,-72,-46,-35,-54,-36,-18,-5,-22,-2,1,9,-32,6,12,16,42,21,10,-1,17,25,40,29,3,16,58,56,30,6,8,-21,-31,-77,-82,-66,-33,-68,-202,-86,429,1246,1696,1257,82,-643,-548,-417,-334,-317,-302,-261,-261,-255,-237,-186,-155,-161,-146,-98,-46,-52,-35,-39
2018-09-18,14:24:08.502,-37,-3,35,17,23,70,63,50,28,-16,-37,-49,-35,-43,-21,-8,1,-13,-14,-7,-5,-23,-32,-43,-69,-38,-25,-28,-11,13,29,32,31,55,53,18,-20,-80,-157,-225,-239,-230,-206,-164,-149,-223,-260,1,692,1497,1374,407,-502,-665,-394,-234,-208,-169,-129,-124,-105,-90,-32,12,30,50,56,35,58,124,153,173,187,205,215,185,171,176,171,124,81,50,33,24,37,6,-38,-52,-65,-54,-20,12,50,64,32,25,1,-24,-39,-57,-81,-87,-64,-89,-86,-37,-7,-28,-13,-22,-75,-116,-140,-146,-121,-104,-128,-179,-49,388,976,1155,548,-271,-702,-541,-282,-212
2018-09-18,14:24:09.530,-195,-165,-144,-139,-133,-133,-123,-102,-77,-69,-38,-7,17,55,82,102,111,137,135,115,130,119,77,31,-14,-58,-79,-89,-107,-118,-94,-74,-65,-50,-34,-17,-12,2,-5,-9,0,-4,10,32,26,12,26,43,70,60,45,41,17,-21,-61,-81,-79,-58,-79,-145,-74,244,797,1089,599,-105,-581,-549,-313,-206,-181,-166,-139,-106,-101,-92,-73,-49,-37,-27,-2,14,35,69,99,123,128,145,140,124,113,109,87,47,14,-19,-49,-74,-76,-76,-82,-95,-91,-64,-41,-33,-33,-11,-1,-3,-12,-5,-6,-18,-29,-33,-37,-33,-38,-29,-5,5,5,25,73,92,71,57
2018-09-18,14:24:10.558,53,31,0,-26,-58,-63,-44,-46,-105,-100,144,668,1120,882,148,-489,-532,-315,-242,-230,-206,-174,-162,-137,-116,-103,-91,-74,-58,-36,-25,-2,33,63,76,103,119,132,125,117,113,108,81,48,5,-29,-52,-79,-83,-79,-81,-74,-65,-44,-27,-24,-13,0,-6,-8,2,0,0,-15,-16,-19,-21,-19,-20,-26,-38,-34,-35,-25,-28,-37,-27,-23,-26,-32,-15,-2,-8,-22,-16,-8,-1,-4,1,9,4,0,-2,2,9,12,19,19,23,46,58,44,48,82,59,57,52,37,13,-11,-38,-53,-63,-91,-192,-223,68,734,1378,1248,432,-417,-625,-373,-277,-273,-253,-238
2018-09-18,14:24:11.586,-207,-191,-175,-150,-129,-109,-75,-56,-35,-4,11,26,58,100,104,107,114,102,83,67,61,51,4,-38,-53,-63,-79,-84,-85,-86,-74,-46,-31,-29,-26,-21,-17,-9,-3,-6,-6,-6,-12,-9,-5,-6,-11,-15,-6,1,-1,-5,-15,-11,-22,-20,-12,-8,-10,3,8,1,-1,-9,-6,-3,-8,-11,-18,-11,-7,-10,-3,7,8,-5,-1,0,9,2,9,8,4,10,11,5,10,26,30,36,54,67,79,66,61,55,37,9,-14,-24,-19,-48,-147,-210,-14,585,1291,1267,519,-309,-668,-478,-298,-260,-236,-216,-200,-179,-166,-154,-139,-105,-79,-70,-48,-25,13,26
2018-09-18,14:24:12.614,53,85,112,122,106,97,83,72,50,38,7,-25,-51,-73,-83,-89,-89,-70,-67,-56,-39,-37,-31,-13,-18,-2,-2,-1,-8,-13,-11,-6,0,7,-3,3,-2,-10,-11,-18,-29,-19,-20,-15,-3,-4,-18,-24,-19,-12,-17,-16,-4,11,17,12,4,4,6,3,5,2,9,23,34,44,54,81,66,43,35,29,6,-30,-53,-56,-62,-101,-195,-142,237,938,1333,870,54,-581,-610,-356,-238,-224,-208,-175,-155,-140,-125,-115,-101,-70,-31,-11,-2,8,36,60,88,123,147,143,145,133,117,97,73,29,-21,-60,-81,-107,-123,-117,-102,-82,-73,-72,-64,-46,-35,-27
2018-09-18,14:24:13.642,-25,-16,-2,0,-3,1,6,-7,-20,-22,-26,-35,-41,-29,-19,-20,-13,-19,-23,-12,-18,-18,-6,0,2,10,10,5,11,5,-9,-4,8,6,-14,-1,11,7,18,28,43,45,53,89,87,61,53,48,21,-10,-35,-48,-49,-87,-196,-173,197,930,1442,1067,180,-574,-593,-344,-257,-260,-244,-219,-194,-164,-142,-124,-109,-87,-77,-64,-49,-15,10,36,63,76,98,127,131,121,107,93,65,27,-6,-38,-73,-97,-97,-96,-90,-87,-65,-57,-45,-26,-23,-8,1,7,-1,-8,-2,-11,-17,-18,-23,-28,-25,-13,-20,-27,-40,-22,-16,-27,-31,-35,-16,-8,-10,-14
2018-09-18,14:24:14.670,-23,-12,0,-4,0,0,1,9,5,4,0,-12,-5,6,-5,0,36,53,50,68,91,94,87,74,52,8,-18,-35,-46,-53,-122,-278,-198,331,1243,1678,1124,36,-730,-597,-355,-313,-305,-275,-253,-232,-206,-179,-164,-141,-131,-123,-85,-75,-58,-21,8,44,81,105,132,132,115,99,87,77,43,-4,-39,-51,-77,-95,-93,-82,-65,-52,-47,-47,-34,-33,-33,-33,-38,-29,-10,-11,-22,-13,-12,-14,-12,-11,-21,-25,-4,-1,-3,0,0,1,-5,-7,-6,-3,-5,6,4,-6,-7,-13,-18,-6,18,37,38,39,61,74,81,68,60,47,17,-26,-50,-62,-71,-126
2018-09-18,14:24:15.698,-229,-152,288,1066,1446,969,65,-679,-665,-385,-275,-246,-220,-213,-199,-185,-166,-148,-103,-84,-71,-45,0,20,50,67,94,127,149,139,143,141,103,92,77,23,-18,-53,-79,-83,-71,-57,-51,-31,-25,-10,-3,-2,9,37,35,29,26,33,8,11,9,3,-1,0,0,-59,-63,-24,-58,-87,-60,-24,-24,-19,26,59,34,11,7,-6,-86,-80,-80,-85,-94,-125,-172,-20,457,1107,1195,508,-316,-705,-507,-284,-224,-203,-173,-155,-153,-118,-82,-52,-59,-43,-13,18,23,41,61,81,140,168,154,156,185,152,105,61,16,-30,-94,-113,-158,-186,-153,-131,-112,-104,-67,-76
2018-09-18,14:24:16.726,-57,-43,-17,-17,-18,11,-9,5,-11,-34,-48,-42,-27,-38,-50,-19,-19,-26,-16,2,33,33,30,55,107,129,123,101,88,62,8,-4,-28,-28,-22,-72,-119,110,718,1296,1197,393,-497,-652,-356,-263,-262,-234,-203,-225,-213,-175,-135,-150,-109,-87,-78,-38,-8,5,50,100,125,139,137,140,163,155,129,94,40,-13,-38,-85,-99,-93,-86,-105,-110,-102,-67,-63,-29,0,-28,-37,-26,-28,-8,-5,-6,-4,0,-6,-23,-48,-15,-18,-33,-19,-35,-31,-21,-8,23,0,10,30,53,41,56,106,88,84,67,58,35,0,-9,-45,-66,-83,-76,-152,-33,477,1205,1461
2018-09-18,14:24:17.754,788,-249,-695,-444,-306,-280,-296,-275,-227,-194,-198,-163,-142,-133,-93,-78,-55,0,-1,17,53,89,139,126,124,145,127,120,105,72,24,-26,-54,-54,-100,-103,-83,-82,-53,-43,-42,-47,-16,6,-10,-13,-1,7,8,7,-3,2,-22,-16,-17,-23,-31,-22,-6,-21,-41,-35,-20,-8,-33,-19,-4,-21,-25,-4,-6,-14,-10,3,8,12,-25,4,18,12,34,38,44,92,96,82,77,57,33,19,-5,-25,-35,-57,-99,-126,35,581,1282,1414,703,-343,-742,-480,-307,-286,-281,-230,-186,-201,-178,-173,-145,-126,-71,-84,-88,-45,-12,33,41,53,111,174,143,117,106,117
2018-09-18,14:24:18.781,95,83,30,-22,-30,-71,-102,-108,-108,-102,-77,-74,-67,-51,-40,-43,-27,-7,-15,-26,-32,-20,-10,0,-27,-45,-24,14,25,14,-12,-22,0,-9,-25,-11,3,-10,18,20,-3,3,9,18,15,21,11,-12,2,0,0,10,15,26,38,24,40,106,97,72,62,53,14,-21,-26,-12,-2,-146,-209,51,672,1360,1244,407,-445,-726,-489,-299,-223,-196,-205,-179,-146,-127,-105,-88,-134,-112,-46,-43,-19,13,41,56,85,116,137,163,120,127,137,83,39,16,-31,-70,-103,-105,-89,-97,-92,-71,-44,-29,-29,-31,-21,-10,-23,-13,-4,-6,-27,-21,-16,-9,-41,-37
2018-09-18,14:24:19.809,-5,-33,-57,-61,-69,-50,-10,-5,-40,-47,-32,-50,-32,-24,-36,-31,-13,-31,-45,-10,-23,-39,-30,-9,-3,9,23,62,58,68,70,68,25,-2,-16,-42,-47,-53,-133,-141,120,797,1475,1338,472,-499,-681,-402,-288,-280,-260,-235,-217,-188,-183,-151,-108,-123,-93,-48,-8,11,49,82,81,111,167,187,165,139,130,119,102,53,-3,-56,-108,-105,-123,-138,-116,-96,-114,-104,-85,-80,-61,-44,-31,-22,-35,-32,-6,-5,-3,-19,-10,1,-17,-30,-17,-13,-16,-22,-15,-26,-23,-21,0,19,23,14,-13,-11,-16,-14,12,18,24,17,15,-11,-4,14,6,-9,8,24
2018-09-18,14:24:20.837,6,2,14,16,25,37,39,41,59,54,85,79,67,59,54,32,-2,-30,-32,0,-76,-229,-230,187,1094,1753,1397,321,-678,-693,-389,-305,-324,-309,-259,-244,-235,-205,-174,-154,-122,-94,-79,-82,-57,-5,16,36,61,105,136,134,136,121,98,74,57,14,-35,-59,-70,-97,-117,-116,-101,-80,-77,-75,-72,-52,-36,-40,-41,-11,-5,3,-11,-13,-6,-13,-46,-46,-22,-17,-18,-46,-38,-32,-26,-10,-12,-13,-2,-20,-46,-17,-5,-24,-26,4,11,4,-4,0,11,-11,-21,12,26,32,21,7,27,26,5,25,41,39,46,54,70,72,65,57,40,10,-11,-21
2018-09-18,14:24:21.865,-37,-56,-147,-207,36,653,1417,1400,561,-382,-737,-523,-312,-265,-253,-230,-194,-165,-136,-128,-129,-106,-56,-35,-23,4,6,25,62,97,114,138,157,171,174,120,92,52,13,-32,-72,-87,-92,-119,-122,-102,-103,-106,-81,-73,-77,-59,-45,-35,-32,-34,-37,-29,-37,-24,-34,-32,-24,-32,-67,-32,-17,-28,-44,-49,-42,-29,-29,-22,-19,-28,-25,-32,-28,-31,-19,-3,0,7,2,7,20,18,6,28,51,53,58,73,129,160,117,95,117,102,44,24,4,-12,-19,-132,-114,171,844,1499,1326,441,-526,-703,-431,-309,-274,-266,-235,-209,-223,-251,-168,-134,-138,-113,-81,-52
2018-09-18,14:24:22.893,-29,2,16,29,58,99,135,132,123,118,81,37,9,-56,-110,-161,-206,-174,-83,-59,-91,-88,-75,-67,-62,-133,-116,-64,-97,-118,-111,-106,-174,-81,-121,-63,-31,11,-69,-291,-281,-322,-357,-366,-337,-213,-166,-77,35,94,111,-28,181,474,496,329,230,269,289,362,480,577,573,505,433,362,328,216,51,130,849,2056,2867,2125,547,-764,-1088,-721,-515,-572,-569,-534,-405,-411,-374,-306,-307,-356,-455,-539,-622,-586,-481,-356,-252,-205,-197,-250,-268,-303,-232,-126,-95,-68,-12,-44,-140,-219,-326,-374,-333,-270,-154,-51,0,66,139,237,265,187,128,97,54,23,-25,-14,-3,-57
2018-09-18,14:24:23.921,-91,-167,-179,227,1010,1470,872,-15,-648,-688,-338,-119,-101,-138,-35,39,35,-38,-58,81,155,159,114,91,41,31,15,-19,39,191,274,285,267,202,137,75,-75,-134,-101,-17,-45,-82,-87,-67,-43,-50,-40,-52,-39,-53,-27,-6,5,-6,-20,-25,-26,-49,-80,-67,-40,-39,-39,-45,-53,-17,-5,-11,8,47,44,25,17,-8,-49,-61,-93,-99,-56,-72,-191,-267,30,786,1646,1616,623,-446,-797,-543,-290,-268,-267,-225,-205,-196,-183,-194,-169,-156,-147,-136,-101,-38,19,50,76,119,157,191,196,184,174,144,100,47,-14,-69,-123,-138,-126,-138,-148,-149,-128,-128,-85,-37
2018-09-18,14:24:24.949,-33,-71,-27,25,12,30,44,20,23,36,29,25,64,86,60,52,76,58,-17,-93,-40,-53,-69,-134,-256,-400,-11,967,1999,1818,611,-782,-1058,-647,-423,-343,-279,-216,-196,-187,-177,-195,-192,-162,-121,-92,-57,-29,10,37,55,90,131,143,147,150,144,113,81,54,15,-41,-97,-147,-199,-161,-69,-62,-72,-68,-116,-128,-31,39,6,-18,0,26,34,40,69,122,154,115,101,103,80,49,-12,-57,-63,-70,-100,-208,-220,120,914,1723,1577,498,-711,-1008,-613,-381,-330,-300,-247,-215,-185,-161,-168,-122,-95,-100,-97,-94,-35,0,36,113,184,247,249,229,209,192,118,38
2018-09-18,14:24:25.977,-21,-81,-109,-108,-116,-120,-123,-170,-228,-168,-37,-51,-58,-121,-160,-35,69,102,63,90,99,142,98,54,42,39,9,-40,-72,-78,-91,-112,-225,-276,10,709,1507,1453,526,-491,-839,-594,-421,-371,-254,-207,-212,-194,-186,-174,-139,-168,-138,-47,20,50,15,33,72,92,100,124,153,169,138,131,142,118,73,36,-22,-55,-54,-60,-94,-165,-77,61,37,33,46,26,0,13,14,-25,-35,38,67,52,77,64,37,-2,-57,-129,-123,-87,-104,-217,-244,35,765,1587,1448,449,-641,-915,-553,-321,-279,-288,-249,-209,-196,-189,-121,-94,-102,-1,103,19,-29,34,-21,63,186,257
2018-09-18,14:24:27.005,289,248,240,234,197,117,47,-25,-69,-96,-113,-110,-86,-35,-9,-33,-89,-158,-173,-163,-173,-176,-121,-74,-78,-61,-9,29,-2,0,-25,25,56,-50,-64,-54,-16,-21,-114,-239,-64,684,1684,2003,1217,-195,-930,-669,-415,-359,-339,-309,-266,-258,-228,-212,-211,-191,-167,-132,-74,-31,-26,29,47,52,67,67,74,46,23,-74,-111,3,60,-13,-77,-99,-91,-85,-113,-126,-81,-18,9,-14,-6,-9,-15,9,43,54,29,75,67,52,79,78,23,-33,-71,-75,30,36,-16,-156,-259,45,825,1575,1437,373,-661,-788,-382,-196,-233,-250,-219,-172,-155,-130,-114,-118,-109,-92,-67,-15
2018-09-18,14:24:28.032,-20,4,21,35,61,98,136,88,72,90,77,20,5,5,-36,-85,-106,-45,-51,-39,-38,-61,-66,-54,26,-5,-8,8,0,-5,-6,58,108,92,49,43,44,0,-51,-80,-70,-61,-172,-221,-2,648,1369,1350,473,-423,-742,-485,-291,-280,-268,-238,-221,-217,-207,-177,-162,-122,-72,-59,-45,-52,-53,6,74,95,110,140,180,187,164,157,131,67,30,-27,-61,-66,-59,-95,-87,-63,-8,-16,7,-39,-18,50,56,7,19,24,62,52,34,52,122,148,47,-57,-87,-67,-69,-166,-297,-181,403,1386,1787,1101,-166,-971,-711,-420,-382,-379,-331,-297,-292,-288,-253,-197,-155,-155
2018-09-18,14:24:29.060,-132,-76,-34,-4,18,120,131,123,146,158,148,138,131,118,141,129,76,16,-3,-32,-51,-60,-80,-75,-78,-81,-65,-62,-40,17,1,-25,5,-17,-8,18,44,37,8,-26,-125,-133,-59,-68,-102,-113,-159,-378,-331,233,1199,1686,1061,-117,-1059,-941,-462,-264,-225,-192,-152,-145,-121,-108,-76,-75,-61,-59,-26,-9,22,65,127,124,192,180,181,130,91,75,43,73,-45,-87,89,89,-1,-7,-5,-70,-39,5,-7,2,11,42,-1,62,82,30,53,113,139,104,51,45,-7,-45,-112,-106,-126,-154,-269,-382,-147,339,1080,1571,1077,-190,-951,-662,-486,-462,-370,-260,-760,-748
2018-09-18,14:24:30.088,-60,170,131,-53,-59,-27,-22,-68,-7,91,151,171,124,16,-91,-116,13,191,186,118,64,35,27,16,65,24,13,35,39,48,40,-18,-68,34,132,-22,58,122,161,115,62,-33,-113,-1,0,2,-18,7,-10,-166,-198,205,1047,1711,1224,39,-972,-1230,-805,-259,-114,-48,-118,-143,-197,-186,-44,-75,-81,-83,-84,-30,23,-50,22,36,81,151,138,105,89,73,102,53,29,-8,-65,-83,-81,-97,-100,-86,-53,-40,-53,-31,-34,-19,-76,-90,119,145,92,12,-5,16,69,61,-20,-77,-81,-53,-37,-184,-212,122,959,1787,1408,233,-883,-942,-499,-261,-282,-311,-230,-156
2018-09-18,14:24:31.116,-171,-156,-154,-145,-140,-108,-57,-56,-35,-16,9,56,83,70,72,108,137,149,116,86,91,61,9,-32,-89,-117,-136,-103,-123,-104,-34,-31,-79,-80,12,-17,-18,-32,1,-62,-4,34,-33,7,72,-11,13,41,-2,-38,-161,-159,268,1133,1658,1106,37,-775,-702,-359,-248,-265,-303,-290,-291,-256,-196,-190,-181,-182,-163,-97,-102,-97,-21,6,61,60,131,152,132,100,85,63,-35,-99,19,124,62,-3,-20,3,10,17,7,-10,-1,-35,-105,-20,117,51,65,130,153,119,64,36,4,-56,31,-33,-57,-9,-50,-184,-148,159,803,1324,857,-97,-750,-772,-431,-303,-298,-250
2018-09-18,14:24:32.144,-236,-183,-161,-126,-87,-73,-78,-25,22,-18,10,43,87,117,120,-54,-47,147,184,150,247,223,80,31,-58,-78,-40,61,47,29,0,-13,-18,2,46,34,57,106,57,11,47,87,-2,-57,-31,-26,-95,-108,-111,-138,-141,-157,-253,-174,181,1048,1567,967,-60,-640,-543,-349,-348,-355,-230,-109,-115,-157,-119,-74,-45,-41,-31,-83,-147,-92,-74,-31,60,101,127,113,108,92,80,59,48,-6,-42,-61,-55,-2,-32,10,44,-35,-57,-49,-86,-80,-23,45,35,19,49,77,99,62,42,49,47,2,-69,-123,-123,-105,-143,-246,-202,204,1000,1645,1161,4,-737,-621,-323,-313
2018-09-18,14:24:33.172,-274,-199,-234,-326,-332,-78,-60,-92,-83,-72,-81,-79,-75,-50,-5,35,67,86,85,63,80,74,17,-50,-67,-91,-95,-117,-103,-88,-73,-77,-72,-44,-45,-91,-104,-20,78,58,34,36,18,103,154,98,35,96,90,55,-11,-42,-89,-38,-60,-217,-79,559,1444,1602,749,-436,-944,-593,-345,-234,-211,-221,-221,-210,-177,-155,-118,-139,-146,-44,-19,-63,-27,-15,19,49,50,71,67,55,27,56,68,22,12,-2,-18,-68,-99,-87,-69,-29,-3,-3,0,28,30,14,-2,48,71,29,46,46,101,120,74,80,58,-91,-123,-61,-35,-21,-81,-126,3,448,1193,1460,748,-229
2018-09-18,14:24:34.200,-779,-572,-329,-278,-291,-266,-232,-211,-180,-140,-128,-118,-99,-83,-67,-47,-14,-2,14,45,53,30,41,51,61,76,81,55,42,32,18,9,8,-23,-60,9,52,54,30,49,65,38,0,-4,5,-32,-47,0,34,28,2,-1,17,23,-7,-20,-64,-91,-123,-271,-271,127,970,1599,1251,239,-729,-759,-468,-359,-338,-338,-301,-259,-265,-309,-238,-60,-85,-110,-101,-72,-48,6,44,84,118,124,124,118,131,106,73,38,50,-2,-1,-30,-64,-76,16,0,-36,-49,-85,-120,-142,-53,-58,21,81,144,118,95,93,97,78,83,76,60,18,-33,-49,-59,-61,-141,-286,-197
2018-09-18,14:24:35.228,378,1303,1658,928,-308,-990,-710,-387,-336,-306,-269,-228,-195,-189,-129,-100,-89,-86,-73,-25,-1,-21,-34,-6,60,94,72,63,82,69,82,85,65,22,-14,-41,-42,-28,-35,-23,0,15,26,23,11,-1,-2,25,42,28,5,23,28,33,16,7,-7,-55,-111,-116,-109,-111,-176,-194,0,496,1103,1094,327,-387,-636,-461,-197,-131,-107,-139,-141,-100,-110,-126,-42,-3,-14,-18,24,5,89,78,61,26,-20,89,225,146,148,138,59,108,80,18,-57,-3,-9,-28,-14,-4,6,1,-19,-36,-52,-32,-39,-50,-47,-43,-22,-19,-1,-3,10,-24,-74,-56,-82,-109,-109,-158
2018-09-18,14:24:36.256,-67,302,884,1087,501,-245,-503,-352,-201,-200,-198,-177,-159,-133,-131,-140,-139,-118,-88,-83,-63,-47,-7,20,47,54,76,49,40,49,84,97,94,99,56,22,-4,-29,-42,-33,-26,-13,-10,-41,-55,-72,-65,-50,-31,-29,11,89,77,74,69,65,45,-13,-90,-127,-104,-122,-203,-123,21,487,1112,1001,279,-427,-601,-335,-232,-314,-328,-183,-96,-78,-127,-62,-36,-53,-59,-40,-31,-11,3,14,23,21,38,66,73,74,64,61,64,28,-52,-113,-87,7,24,-45,-42,-42,-48,-24,-21,-45,-68,52,117,94,87,95,63,65,121,123,32,0,-78,17,1,-158,-312,-134
2018-09-18,14:24:37.283,567,1412,1388,527,-463,-703,-406,-261,-260,-251,-229,-220,-224,-180,-161,-158,-111,-36,-36,-24,-41,-77,-61,-21,3,-19,1,3,-45,31,74,56,28,15,9,-28,-41,-16,-12,0,-12,0,86,60,14,18,42,62,39,86,154,126,99,36,-28,16,21,-65,-75,-33,-56,-221,-241,163,1079,1805,1530,404,-682,-727,-425,-329,-306,-254,-235,-241,-254,-263,-256,-217,-152,-106,-115,-90,-76,-57,-34,-44,-55,-22,14,6,13,38,74,69,114,57,35,36,31,3,-91,-74,97,128,90,46,42,40,61,27,-1,12,47,18,4,19,36,35,-5,-38,-64,-76,-64,-169,-239,-95
2018-09-18,14:24:38.311,615,1437,1370,443,-561,-779,-475,-316,-297,-284,-306,-350,-262,-144,-141,-143,-121,-91,-94,-83,-55,-27,0,28,55,79,84,91,87,40,80,96,104,43,21,28,2,-12,-98,-51,-15,84,64,70,35,-27,-38,48,91,65,96,94,41,16,25,25,-20,-90,-93,-100,-110,-192,-299,-147,416,1246,1500,773,-323,-828,-573,-334,-287,-246,-255,-265,-227,-210,-161,-122,-184,-275,-78,115,93,76,90,81,97,83,83,86,87,114,129,129,114,74,-18,-76,-62,-27,-24,-15,-8,-1,3,8,-18,-28,-37,-63,-60,-10,-47,-44,54,137,116,73,37,-36,-123,-103,-34,-61,-138,-227
2018-09-18,14:24:39.339,-353,-172,481,1481,1739,865,-426,-952,-598,-329,-266,-241,-239,-245,-231,-146,-105,-128,-132,-93,-79,-56,-48,-15,31,100,100,65,18,-36,-27,38,3,61,147,113,58,48,2,-36,-32,-16,-2,2,15,42,17,-9,-19,-53,-37,-66,-49,9,28,24,38,-26,-42,-54,-111,-100,4,-17,-102,-260,-212,309,1283,2000,1576,218,-913,-866,-481,-334,-327,-228,-207,-210,-173,-192,-208,-197,-140,-80,-87,-91,-82,-47,-36,-21,4,21,-6,-32,2,28,44,68,64,29,-4,-27,-37,-32,-39,-32,-31,-50,-52,-50,-71,-46,-14,-23,-2,53,125,120,105,94,86,33,-58,-101,-87,-80
2018-09-18,14:24:40.367,-106,-190,-197,196,1089,1606,978,-139,-757,-649,-352,-261,-277,-296,-142,-124,-163,-118,-51,-91,-51,-17,-48,-17,33,62,82,80,94,81,55,52,69,93,83,49,27,20,-9,-50,-88,-102,-69,-23,-42,-85,-85,2,22,22,-8,-27,4,66,131,37,6,66,43,-18,-44,-42,-37,-88,-153,-35,386,990,1088,425,-304,-671,-464,-215,-117,-147,-173,-161,-137,-125,-78,-64,-44,-29,-23,-29,-11,5,25,43,69,83,81,71,62,50,68,80,42,16,-4,-14,5,0,1,0,2,-21,-35,-46,-53,-21,3,88,9,95,72,51,28,26,-45,-117,-129,-77,-119,-118,-198,-99
2018-09-18,14:24:41.395,315,1040,1393,769,-116,-678,-556,-326,-247,-220,-227,-212,-209,-199,-184,-161,-121,-141,-155,-124,-96,-76,-77,-96,22,49,35,10,21,87,112,183,135,80,31,-27,-61,-28,-19,15,53,57,71,66,34,60,72,19,10,51,42,-16,28,22,15,-49,-86,-123,-61,-134,-242,-79,519,1401,1702,937,-289,-888,-660,-405,-350,-345,-328,-321,-297,-266,-242,-223,-195,-150,-68,-24,31,47,74,109,169,209,194,167,127,120,111,95,63,124,49,-89,-16,-2,15,-39,-70,-8,-50,-147,-106,-66,89,79,81,99,32,-28,-22,-59,12,-1,-63,-53,-44,-94,-246,-199,318,1270,1746,1104
2018-09-18,14:24:42.423,-200,-1069,-835,-507,-395,-345,-328,-369,-301,-237,-231,-164,-149,-118,-45,-10,5,0,5,31,28,40,83,101,130,132,135,143,164,134,143,96,68,51,19,33,45,36,48,23,10,83,79,66,50,74,79,69,64,72,55,24,-48,-67,-72,-73,-157,-250,-62,497,1190,1182,330,-589,-843,-533,-296,-243,-220,-199,-190,-155,-102,-88,-81,-57,-38,-90,-12,20,-22,31,97,156,148,76,11,53,58,122,104,50,16,12,-58,-63,-19,-27,-10,7,3,16,11,24,49,29,19,45,64,38,0,-23,-46,-80,-120,-121,-122,-128,-227,-307,-115,474,1301,1338,474,-418,-672,-478
2018-09-18,14:24:43.451,-316,-310,-305,-285,-267,-214,-185,-145,-120,-82,-69,-50,-33,-8,5,31,43,48,48,44,46,33,54,67,67,67,74,67,33,34,43,45,53,48,19,10,11,6,8,-1,-3,4,26,27,18,60,37,14,-47,-36,-47,-44,-146,-214,-42,563,1297,1185,299,-522,-725,-467,-251,-219,-277,-138,-111,-152,-120,-118,-99,-100,-92,-74,-88,-22,17,-10,39,58,147,137,96,90,80,67,64,72,35,2,7,14,-7,-7,-37,-73,-96,-56,-98,-104,-93,-143,-134,-83,17,-29,-87,-42,14,-10,-94,-118,-126,-178,-129,-210,-181,342,1270,1840,1266,53,-729,-618,-385,-315,-340,-340
2018-09-18,14:24:44.479,-290,-286,-292,-248,-171,-168,-150,-80,-51,-55,-22,4,22,54,51,44,54,62,65,83,99,82,42,36,15,-11,-29,-18,0,-1,9,5,-4,16,42,60,92,142,141,92,99,73,17,-35,-74,-112,-127,-205,-153,-213,44,784,1427,1165,192,-620,-632,-336,-249,-270,-194,-157,-167,-180,-153,-87,-62,-79,-17,16,26,47,24,57,44,40,-10,-26,0,-33,-33,-7,30,17,-42,-48,-13,-29,-28,-58,-26,8,14,-84,24,72,40,39,47,82,67,7,49,35,-26,-57,-7,-27,-142,-269,-230,152,880,1234,715,-37,-464,-487,-258,-173,-172,-148,-135,-116,-117,-110,-89,-69
2018-09-18,14:24:45.507,-55,-26,-54,-55,-34,-21,-40,-49,-18,9,31,31,38,52,70,80,64,28,23,5,-22,-32,-16,14,16,-47,59,56,75,64,90,119,64,39,65,8,-27,-46,-65,-117,-86,-104,-165,86,699,1254,1063,300,-447,-610,-380,-236,-236,-214,-188,-201,-208,-206,-210,-204,-200,-154,-125,-124,-74,-78,-149,-38,41,13,-19,-35,-6,23,80,74,-22,-124,91,121,60,16,-24,14,0,7,24,40,64,76,55,56,101,97,77,71,56,0,-3,-35,-56,-58,-84,-214,-154,293,1149,1785,1377,164,-754,-756,-497,-380,-353,-352,-326,-292,-266,-242,-225,-156,-128,-90,-42,-9,9,27
2018-09-18,14:24:46.535,41,96,117,124,110,68,88,75,127,153,88,-5,-57,-148,-103,66,108,44,83,187,115,-5,-22,-4,-18,119,95,80,84,63,42,24,-14,-73,-140,-150,-156,-202,-317,-421,-143,679,1512,1421,402,-667,-784,-473,-333,-311,-244,-295,-297,-141,-164,-180,-79,-26,-62,-82,-75,4,5,-29,40,107,131,116,81,64,39,43,28,67,30,25,-34,-19,-17,-4,-2,8,-8,-12,-24,-44,-44,-32,-27,-26,-23,-2,22,-15,-33,-17,-66,-120,-120,-138,-124,-126,-174,-179,111,767,1351,973,114,-552,-621,-331,-201,-192,-143,-139,-113,-135,-89,-34,-58,-52,-65,-82,-37,-12,142,172
2018-09-18,14:24:47.562,147,171,303,204,169,138,110,77,84,91,85,48,-17,2,-12,-51,-73,-78,-144,-113,-65,-75,-104,-117,-94,-53,-57,-61,-50,-49,30,-50,111,74,-66,-17,-54,-36,-21,-60,-150,-329,-329,125,956,1581,1218,225,-600,-654,-385,-257,-233,-241,-221,-137,-116,-110,-102,-97,-77,-60,-61,-49,-14,-2,16,46,35,24,23,9,18,32,29,18,12,21,1,-23,-31,-42,-43,-33,2,23,-2,-21,-63,-85,-5,72,67,34,32,-5,-14,-3,62,52,123,76,101,23,-45,-95,-168,-201,-217,-135,26,657,1474,1508,649,-326,-761,-545,-316,-272,-232,-245,-237,-226,-163,-156,-124,-108
2018-09-18,14:24:48.590,-112,-107,-118,-51,-36,-37,6,11,-8,-56,-25,-34,22,25,-28,-35,25,117,52,39,32,-30,13,40,5,-32,-35,20,27,10,0,-10,16,57,11,-31,3,61,82,116,94,39,47,-4,-26,-28,-39,-29,-57,-159,-156,157,888,1465,1062,128,-580,-687,-496,-363,-365,-346,-318,-276,-213,-136,-105,-89,-52,-52,-58,-21,0,17,0,49,87,115,112,141,66,43,97,108,24,-12,-4,18,52,20,19,36,6,27,119,56,38,23,-10,-13,-24,-22,-21,-72,26,92,89,71,59,30,28,-47,-84,-174,-155,-112,-215,-368,-215,307,1130,1539,931,-95,-681,-563,-413,-359
2018-09-18,14:24:49.618,-302,-248,-187,-230,-146,-75,-106,-129,-83,-13,-18,-19,-27,-17,35,51,38,32,23,12,5,23,48,38,29,2,-10,4,11,-9,-8,-1,7,5,6,-21,-53,-67,-62,-72,-92,-89,-81,-52,-33,-6,56,106,111,104,82,53,2,-46,-130,-156,-85,-77,-225,-168,320,1192,1552,815,-118,-687,-621,-350,-348,-360,-280,-275,-415,-78,8,14,-25,-71,-72,-38,-16,12,46,92,140,192,208,146,52,-11,-33,-46,-35,-51,-73,-78,-72,-67,-103,-93,-70,-37,-50,-3,52,26,-53,38,28,-3,-9,-39,-153,-29,146,146,109,93,101,147,116,54,-68,-79,-20,-160,-308,-220
2018-09-18,14:24:50.646,413,1474,1972,1274,-41,-919,-740,-401,-290,-268,-256,-219,-193,-159,-134,-126,-136,-157,-153,-173,-198,-152,-89,-42,-2,12,5,56,65,85,81,124,107,-17,-75,-105,-86,-46,-75,-38,-50,21,25,-39,-1,13,5,-54,-82,31,93,63,40,75,77,24,-7,14,-35,-71,-85,-99,-102,-109,-213,-372,-193,579,1656,1921,946,-482,-1141,-824,-532,-470,-453,-423,-406,-248,-123,-172,-198,-123,-113,-129,-56,15,41,19,88,55,103,143,158,100,81,228,241,199,128,83,56,7,76,58,33,68,52,53,-1,-16,50,73,55,54,77,72,74,125,163,169,113,41,3,23,-38,-134
2018-09-18,14:24:51.674,-130,-72,-148,-324,-230,346,1335,1714,925,-176,-770,-591,-308,-217,-212,-202,-199,-265,-153,-19,-37,-83,-61,-130,44,115,74,0,-35,-34,62,173,100,52,-5,116,146,73,48,-5,-45,-51,-38,-37,-26,-38,-41,-31,-61,-97,-80,-86,-122,-125,-97,-77,-41,-46,-74,-91,-56,-99,-187,-196,-224,-159,-275,-408,-252,200,995,1569,1071,105,-651,-566,-276,-253,-280,-272,-223,-195,-168,-131,-105,-79,-55,-9,17,60,111,144,131,138,124,111,82,85,78,94,100,92,68,56,38,24,37,44,22,-11,-25,-43,-55,-70,-70,-128,-106,-40,-16,-41,10,102,128,97,98,76,-14,-104
2018-09-18,14:24:52.702,-129,-147,-165,-218,-395,-372,302,1326,1854,1276,-64,-899,-714,-406,-327,-338,-342,-258,-136,-133,-169,-148,-176,-175,-123,-83,-49,-40,11,28,34,4,2,-33,-80,-33,7,33,39,12,-28,-128,-175,-99,56,20,-29,-59,-90,-77,-106,-197,-134,65,33,-29,-35,10,53,60,42,-1,66,14,-6,-23,-34,-125,-399,-372,120,1240,2138,1791,448,-734,-828,-434,-280,-248,-238,-212,-166,-120,-80,-39,-39,-41,-1,-15,-29,-41,-63,-16,38,16,-4,-2,-15,-31,2,64,51,13,0,1,14,-3,3,-14,-65,-77,65,44,-36,9,89,5,23,95,73,12,-75,-28,24,52,-66,-165
2018-09-18,14:24:53.730,-65,13,-108,-271,-19,676,1506,1388,495,-413,-724,-489,-264,-209,-194,-200,-201,-198,-182,-170,-160,-161,-189,-152,-119,-74,-78,-76,-103,-48,-34,-96,-125,-107,-25,-59,-64,-32,-65,-95,-61,-55,-12,-24,-47,-61,-76,-64,-66,-57,-69,-86,-116,-82,-44,-40,-42,-62,-76,-140,-176,-190,-208,-188,-190,-296,-299,54,793,1383,1019,60,-738,-824,-548,-382,-404,-412,-387,-359,-331,-333,-315,-283,-230,-203,-215,-201,-158,-128,-100,-109,-104,-126,-134,-155,-217,-229,-75,-107,-122,-206,-298,-216,-151,-190,-202,-197,-167,-149,-194,-203,-168,-144,-104,-61,-45,-50,-65,-74,-48,-72,-135,-167,-153,-168,-195,-349
2018-09-18,14:24:54.758,-393,-32,783,1522,1322,302,-696,-732,73,1276,2064,2456,2654,2614,2638,2534,2356,2166,2008,1769,1585,1528,1361,1170,995,870,722,560,428,282,244,158,60,-8,-117,-227,-324,-392,-466,-494,-511,-542,-580,-604,-653,-703,-753,-743,-762,-773,-752,-736,-768,-796,-812,-809,-830,-884,-918,-952,-960,-1058,-1265,-1173,-424,718,1105,295,-1043,-1740,-1400,-984,-881,-891,-819,-754,-758,-735,-715,-725,-677,-619,-583,-536,-474,-437,-438,-470,-435,-358,-372,-464,-576,-426,-233,-155,-193,-187,-174,-193,-217,-204,-177,-154,-145,-116,-81,-62,-13,91,143,138,156,220,288,383,463,594,696,756,836,922,1030,1155,1102,1136,1639,2631
2018-09-18,14:24:55.786,3583,3434,2330,1210,1102,1309,1300,1334,1243,1076,1009,945,828,690,571,482,388,318,219,132,43,-56,-123,-186,-292,-358,-383,-391,-347,-395,-455,-506,-553,-559,-571,-597,-602,-626,-648,-675,-690,-706,-742,-736,-764,-779,-743,-724,-740,-750,-755,-766,-779,-793,-769,-727,-722,-783,-773,-388,352,942,515,-362,-972,-993,-753,-617,-572,-542,-512,-501,-433,-377,-377,-355,-401,-236,-356,-59,-1,-88,-111,-30,16,16,-27,-30,-1,29,48,53,43,41,58,33,13,36,65,48,37,20,30,49,2,33,163,167,101,95,116,112,76,16,-1,21,36,-76,-112,149,797,1522,1391,535,-291,-359,-165,-120
2018-09-18,14:24:56.813,-131,-75,-59,-32,-8,-12,-4,43,51,65,107,113,152,178,147,99,50,52,188,331,258,250,230,216,208,162,120,99,130,166,148,114,138,182,171,142,107,114,167,194,202,225,228,168,121,42,0,8,-25,-174,-222,64,736,1686,1426,365,-506,-660,-352,-197,-198,-214,-221,-229,-243,-175,-85,-65,-55,35,58,34,69,40,74,93,91,20,151,166,156,131,120,98,57,20,-17,-41,-45,-34,-81,-82,-89,-32,-14,-18,4,16,45,62,51,40,9,-13,-86,-129,-133,-126,-150,-278,-264,118,976,1639,1186,58,-790,-730,-439,-368,-406,-392,-336,-275,-249,-243,-240,-216
2018-09-18,14:24:57.841,-208,-187,-171,-153,-122,-112,-121,-158,-94,-20,3,7,37,22,-14,-29,-69,-97,-107,-139,-172,-178,-196,-182,-181,-127,-48,-26,-55,-55,-45,-49,-65,-41,-42,-8,-63,-135,-178,-157,-163,-247,-398,-248,495,1570,1865,1029,-447,-1091,-743,-501,-425,-388,-457,-489,-303,-199,-184,-145,-118,-102,-52,-20,-18,-17,0,25,43,-31,-7,58,65,83,56,60,23,0,17,32,30,45,75,55,61,114,131,110,101,174,228,281,249,210,238,253,214,130,85,49,39,-38,-180,-120,409,1352,1874,1193,39,-658,-554,-277,-166,-149,-160,-154,-143,-129,-112,-86,-79,-68,-41,-11,17,30,44,70
2018-09-18,14:24:58.869,69,68,89,94,69,71,70,63,42,36,26,21,-6,-28,-28,-57,-63,-77,-41,4,-59,-22,0,44,31,-36,-118,-69,-69,-82,-167,-241,-243,-162,-247,-14,603,1222,1052,200,-514,-657,-415,-270,-227,-186,-193,-189,-200,-198,-160,-143,-161,-216,-188,-108,-124,-141,-195,-112,-61,-174,-167,-231,-156,-92,-114,-68,-95,-213,-222,-189,-169,-132,-51,-87,-94,-118,-95,-77,-69,-101,-87,-33,-42,-41,-9,17,-33,-85,-79,-94,-121,-187,-291,-190,346,1234,1638,941,-203,-863,-703,-402,-299,-283,-235,-169,-137,-95,-6,86,169,269,309,355,404,547,602,749,673,570,541,584,513,472,453,381
2018-09-18,14:24:59.897,278,275,260,242,282,198,69,67,201,218,176,150,153,107,97,37,47,111,95,35,21,0,-80,-109,-106,-153,-375,-357,-24,803,1535,1201,115,-942,-1090,-816,-552,-426,-474,-595,-675,-470,-367,-357,-193,-198,-267,-257,-137,-136,-144,-165,-103,-34,-52,-42,-46,1,50,49,-9,-21,-44,-44,-42,-49,-51,-45,-66,-83,-62,-16,1,15,48,69,82,61,55,52,35,12,-25,-34,-37,-78,-185,-168,245,1022,1468,832,-76,-615,-528,-255,-158,-132,-138,-156,-183,-166,-158,-141,-161,-175,-78,-35,-16,13,47,53,52,24,-8,-47,-55,-53,-82,53,19,-47,-99,-93,-84,-129,-138,-76
2018-09-18,14:25:00.925,-63,-47,-39,-29,-65,-17,36,52,16,-32,-74,-137,-78,-37,-79,-149,-210,-235,-292,-127,368,1024,1112,516,-219,-508,-417,-305,-282,-261,-223,-196,-175,-103,-79,-71,-62,7,25,40,37,86,76,150,156,99,122,54,45,66,136,175,133,80,102,122,158,138,110,109,96,86,81,50,40,60,116,147,127,148,159,121,86,35,23,31,-4,-119,-55,347,1010,1119,480,-238,-584,-427,-237,-170,-149,-134,-119,-109,-119,-141,-93,-33,-51,1,17,32,34,44,7,-45,-52,-37,-46,-35,-2,36,45,22,-23,-29,-53,-28,-45,-58,-121,-121,-97,-123,-134,-193,-110,10,-5,-56
2018-09-18,14:25:01.953,-55,-150,-135,-124,-87,5,-64,-170,-319,-343,8,828,1608,1329,329,-482,-538,-357,-272,-281,-264,-242,-246,-214,-150,-116,-91,-97,-52,-22,-16,-41,-34,19,61,26,-16,-24,-18,-5,20,18,15,-33,-82,-78,-83,-70,-58,-41,-13,0,25,60,52,41,84,169,167,117,105,89,13,-69,-125,-162,-159,-190,-330,-306,162,1066,1831,1479,248,-841,-863,-588,-467,-413,-367,-358,-307,-265,-279,-264,-218,-175,-125,-81,-72,-77,-94,-88,-83,-96,-137,-157,-144,-126,-85,-17,-72,-127,-98,-133,-131,-109,-132,-113,-158,-346,-330,-50,-50,-131,-141,-109,-100,-121,-114,-95,-128,-196,-186,-178,-185,-250
2018-09-18,14:25:02.981,-499,-459,144,1191,1735,1062,-217,-942,-726,-453,-359,-341,-328,-277,-225,-192,-131,-88,-74,-62,-41,-154,-158,-148,126,198,87,198,460,449,442,470,459,394,370,377,376,387,413,399,391,387,333,405,447,437,422,438,390,358,419,477,395,348,262,113,182,130,139,-47,-179,507,1374,1762,1143,185,-311,-219,-19,55,38,35,70,26,50,110,86,76,49,20,-11,-26,-9,26,6,-38,-60,-44,-31,-7,-19,-87,-110,-112,-11,47,-33,-34,-38,-78,-127,-158,-149,-138,-128,-103,-84,-75,-126,-162,-170,-208,-249,-309,-352,-362,-384,-438,-524,-499,-96,563,941,455,-404,-941,-1002,-714
2018-09-18,14:25:04.041,-453,-409,-419,-439,-411,-382,-346,-273,-214,-189,-178,-148,-103,-73,-8,17,58,36,37,41,68,104,92,59,41,4,-27,-5,-15,-55,22,41,7,7,15,25,32,34,49,100,156,132,73,6,-57,-63,-62,-101,-205,-247,11,652,1327,1145,280,-540,-696,-456,-314,-296,-285,-292,-274,-259,-310,-266,-149,-190,31,63,34,44,48,43,38,30,29,50,58,95,81,113,123,78,52,38,19,-14,-30,14,11,-22,-32,-26,-47,-58,-36,-17,-34,-60,-39,-48,-90,-152,-181,-224,-228,-321,-453,-272,392,1299,1422,511,-600,-1012,-750,-494,-434,-422,-375,-310,-281,-250,-183,-152,-120,-99
2018-09-18,14:25:05.037,-394,-324,-312,-381,-4,10,25,7,8,43,58,31,16,-23,-93,-64,-1,29,13,-6,-28,47,151,152,135,122,131,259,348,332,350,404,401,334,279,270,249,165,-46,-151,229,1307,2731,2967,1842,579,312,557,636,592,435,306,265,295,291,166,105,95,17,-21,-80,-120,-157,-153,-172,-167,-141,-126,-114,-89,-69,-112,-150,-147,-181,-178,-177,-208,-214,-198,-220,-224,-182,-170,-169,-150,-85,-58,-79,-76,-47,-70,-116,-125,-166,-152,-183,-288,-200,344,1219,1554,766,-272,-763,-576,-304,-247,-231,-193,-158,-119,-79,-7,32,44,63,93,95,82,61,48,52,23,-1,-46,-27,-79
2018-09-18,14:25:06.064,-89,-13,3,-59,-144,-189,-130,-142,-176,-194,-162,-177,-166,-163,-175,-208,-180,-187,-209,-213,-229,-316,-348,-361,-443,-503,-424,-481,-439,-60,623,896,449,-289,-746,-707,-581,-551,-594,-687,-580,-485,-546,-506,-513,-576,-546,-451,-362,-285,-241,-177,-125,-70,0,72,172,247,315,349,335,409,422,408,383,375,365,357,382,422,444,443,435,435,447,408,353,296,294,259,168,115,102,90,37,-20,53,430,1027,1209,640,-42,-440,-381,-232,-182,-185,-158,-146,-123,-95,-157,-225,-144,-42,-49,-72,-74,-66,-77,-46,-35,-37,-54,-68,-50,-28,-77,-98,-47,-43,-66,-98,-98,-94,-59,-111,-167
2018-09-18,14:25:07.092,-173,-169,-242,-330,-354,-408,-439,-505,-477,-549,-714,-749,-623,-619,-714,-806,-740,-217,615,982,499,-364,-776,-629,-493,-476,-363,-342,-262,-195,-178,-127,-86,-75,-18,12,73,153,231,310,363,438,502,551,639,749,844,905,930,941,925,859,783,688,586,471,409,197,325,122,256,509,527,522,467,358,317,260,210,86,-12,-70,-171,-338,-290,228,1127,1543,849,-191,-799,-607,-351,-302,-332,-356,-315,-192,-176,-186,-188,-96,-107,-125,-125,-118,-26,32,63,163,193,188,175,208,187,95,-50,-278,-499,-483,-429,-384,-383,-370,-472,-574,-422,-309,-146,-174,-270,-267,-322,-272,-37,-35,-83,-148
2018-09-18,14:25:08.120,-212,-265,-162,-212,-510,-396,240,1309,1752,997,-176,-768,-580,-267,-181,-158,-152,-146,-107,-78,-93,-50,-7,54,127,176,221,280,291,299,276,215,169,135,65,-25,41,114,123,91,78,64,50,78,70,63,94,89,79,49,16,146,133,84,85,124,-10,-31,-16,-92,-149,-257,-304,-233,260,1118,1626,1008,-116,-745,-696,-447,-380,-358,-293,-196,-100,-46,58,72,81,100,102,102,108,52,-81,-222,-394,-495,-489,-375,-238,-179,-232,-298,-264,-377,-294,-312,-369,-200,-362,-230,-180,-44,45,69,66,197,199,188,196,193,186,127,2,-22,-5,-102,-344,-358,189,1269,1942,1235,-175,-1057
2018-09-18,14:25:09.148,-773,-309,-195,-209,-203,-162,-107,-102,-54,-21,13,33,51,94,84,99,131,143,121,127,119,148,183,196,190,104,-17,-149,-135,26,92,44,7,-25,-28,-44,-59,-56,-47,-18,-15,87,187,207,135,52,-28,-59,-108,-339,-324,-15,455,1337,1645,837,-268,-849,-593,-297,-206,-160,-141,-141,-117,-88,-127,-158,-39,-13,-90,-130,-227,-281,-271,-125,-72,-175,-369,-521,-509,-576,-639,-575,-480,-425,-305,-233,-236,-253,-227,-160,-115,-74,-84,-84,-37,6,13,18,44,36,36,-28,-52,-61,-63,-147,-159,114,804,1533,1414,586,-157,-311,-62,134,201,188,126,67,45,62,71,136,210,258
2018-09-18,14:25:10.176,211,229,203,169,110,66,51,33,31,15,82,150,166,172,136,96,77,78,89,97,100,102,82,49,20,-64,-149,-227,-351,-473,-577,-592,-542,-639,-703,-711,-730,-845,-893,-599,60,812,735,-81,-875,-1040,-786,-640,-595,-526,-496,-417,-261,-282,-166,-15,45,39,44,54,31,156,226,230,225,213,213,232,268,268,267,284,281,257,287,311,321,348,369,359,364,407,405,416,441,356,252,334,469,566,524,376,332,457,427,325,276,582,1304,2104,2119,1252,344,228,569,772,783,750,763,753,730,717,711,705,657,602,533,483,417,355,318,247,160,65,64,65,25,-20
2018-09-18,14:25:11.204,-45,-94,-132,-159,-200,-231,-242,-266,-206,-28,93,176,175,146,136,107,-2,-157,-271,-366,-551,-715,-855,-995,-1148,-1394,-1625,-1597,-1078,-67,331,-465,-1643,-2064,-1857,-1671,-1532,-1468,-1397,-1252,-1162,-1102,-986,-878,-808,-776,-743,-722,-703,-687,-662,-634,-613,-583,-516,-448,-360,-294,-277,-264,-268,-230,-48,318,723,992,1146,1295,1426,1513,1494,1357,1240,1149,993,851,736,677,594,497,354,197,105,0,-162,-140,376,1315,1771,1074,-123,-752,-474,-262,-265,-294,-312,-269,-245,-205,-166,-134,-118,-149,-162,-188,-57,56,28,-74,-39,125,139,71,56,66,72,84,96,99,88,69,70,88,98,71,49,0
2018-09-18,14:25:12.232,-40,-160,-110,23,-16,-103,-104,-81,-153,-244,-384,-470,-481,-587,-788,-884,-517,381,1180,907,-204,-1186,-1190,-907,-755,-702,-602,-513,-449,-401,-337,-297,-257,-208,-154,-90,-30,16,48,81,102,109,113,175,277,371,418,466,505,516,521,532,511,500,545,554,479,457,482,500,501,531,543,525,501,497,472,403,326,323,293,246,109,50,346,1039,1604,1134,261,-373,-326,-89,9,-44,-82,-82,-109,-70,1,17,64,33,79,169,162,109,47,-4,-17,-53,-89,-68,-32,-46,-48,-109,-148,-198,-249,-319,-390,-456,-560,-479,-512,-563,-604,-590,-569,-533,-562,-571,-620,-602,-509,-441,-423,-400
2018-09-18,14:25:13.260,-405,-486,-417,3,755,1046,489,-122,-453,-349,-221,-189,-176,-154,-124,-110,-79,-67,-67,-56,-57,-38,-26,-4,31,53,81,93,114,134,151,226,275,282,311,357,432,489,489,503,487,441,403,394,366,365,386,415,367,282,263,207,138,21,-77,-120,-181,-271,-351,-169,374,1065,975,188,-589,-847,-602,-501,-267,-38,132,383,609,801,1021,1178,1136,1082,1060,973,849,756,657,539,414,338,294,208,113,-7,-162,-309,-426,-566,-708,-769,-784,-795,-826,-848,-892,-932,-926,-939,-871,-656,-617,-594,-664,-703,-716,-752,-666,-666,-751,-737,-387,391,1093,738,-238,-1021,-1035,-758,-663,-635,-608,-580
2018-09-18,14:25:14.288,-533,-489,-442,-404,-363,-317,-272,-201,-121,-73,-26,27,79,146,213,333,456,535,584,578,566,547,498,465,420,397,372,410,494,543,544,513,520,503,437,349,312,288,211,124,122,102,36,-151,-273,82,1018,1891,1716,552,-689,-853,-496,-290,-243,-251,-260,-258,-261,-225,-179,-154,-130,-121,-146,-163,-152,-168,-188,-197,-241,-250,-249,-310,-311,-342,-373,-389,-465,-570,-661,-654,-611,-693,-867,-619,-399,-446,-482,-383,-334,-288,-227,-194,-123,-111,-130,-116,-123,-139,-300,-353,73,1034,1755,1359,282,-494,-416,-85,33,53,62,97,116,177,236,264,322,388,433,490,503,551,568,579,537,462
2018-09-18,14:25:15.316,351,335,344,318,306,278,283,272,242,220,201,178,134,93,59,36,4,18,19,-35,-98,-138,-121,-258,-309,-187,-112,-172,-375,-476,-216,473,1159,942,104,-679,-811,-622,-557,-509,-502,-538,-565,-583,-592,-574,-593,-590,-563,-516,-484,-444,-382,-310,-326,-298,-207,-219,-271,-126,204,259,221,253,318,405,434,433,439,476,539,523,559,570,670,674,633,638,610,507,447,385,355,349,304,275,529,1144,1738,1528,726,-19,-182,60,260,366,405,428,459,490,464,455,427,397,388,393,362,314,266,247,252,296,341,302,267,254,181,95,26,10,-10,-20,-67,-84,-98,-98,-113,-147
2018-09-18,14:25:16.343,-127,-134,-171,-206,-224,-204,-221,-276,-303,-280,-275,-289,-412,-491,-254,490,1196,915,-24,-678,-709,-553,-505,-582,-597,-630,-863,-1093,-858,-853,-1091,-1127,-1165,-755,-885,-701,-793,-672,-491,-548,-667,-509,-326,-238,-286,-391,-468,-437,-404,-382,-338,-295,-274,-239,-185,-173,-126,-40,35,74,118,209,291,323,324,317,307,257,110,41,368,1147,1902,1710,674,-405,-579,-237,-71,-58,-55,-11,63,138,178,296,419,468,472,454,446,424,398,369,361,322,276,243,229,203,172,102,32,-33,-65,-130,-57,-11,-1,45,82,99,105,93,57,50,49,12,-24,-30,-61,-122,-177,-219,-288,-356,-464,-602
2018-09-18,14:25:17.371,-430,301,1222,1280,204,-1109,-1420,-1222,-1163,-1126,-979,-985,-1146,-1213,-838,-592,-568,-638,-641,-616,-526,-409,-361,-337,-323,-300,-239,-144,-51,19,26,3,11,15,28,43,91,145,169,183,182,204,249,276,302,413,493,538,591,646,668,596,525,554,536,462,275,90,438,1169,1966,1829,751,-237,-435,-125,98,141,112,94,84,47,36,35,40,15,4,28,87,221,284,286,255,111,115,233,261,246,204,261,263,151,79,35,55,54,4,-39,-83,-99,-134,-160,-137,-122,-141,-181,-232,-315,-411,-466,-498,-579,-575,-580,-645,-551,-66,714,1016,362,-524,-998,-830,-544,-429,-461,-455,-430
2018-09-18,14:25:18.399,-441,-325,-240,-262,-218,-148,-123,-106,-80,-61,-72,-94,-128,-151,-132,-114,-113,-122,-115,-89,-13,15,0,12,22,37,48,69,101,124,144,140,187,245,295,323,350,328,291,287,290,290,253,100,177,648,1305,1502,931,165,-243,-142,50,126,146,160,127,118,131,67,-2,65,161,106,63,55,-1,-28,-41,57,28,44,53,49,12,-20,-68,-206,-150,-104,-118,-144,-171,-221,-244,-252,-226,-187,-208,-218,-225,-315,-360,-289,-278,-331,-442,-524,-493,-567,-711,-848,-439,238,1022,1048,154,-895,-1152,-951,-847,-804,-779,-740,-712,-680,-596,-495,-415,-357,-308,-254,-207,-153,-101,-29,-48,23
2018-09-18,14:25:19.427,50,70,161,260,329,365,408,429,468,487,518,572,576,560,557,565,561,582,585,593,655,704,701,677,692,629,581,550,566,603,570,417,445,921,1832,2238,1452,345,-303,-73,172,191,193,215,179,143,144,140,114,89,129,185,235,296,305,284,251,199,110,40,37,68,62,38,15,-36,-56,-95,-123,-108,-87,-155,-278,-241,-209,-187,-201,-333,-344,-176,-131,-226,-394,-460,-262,-256,-405,-525,-596,-682,-823,-884,-637,74,947,1041,120,-895,-1174,-919,-771,-743,-744,-737,-718,-634,-554,-468,-397,-339,-291,-258,-194,-142,-131,-122,-111,-151,-196,-186,-152,-132,-149,-167,-207,-212,-259,-305
2018-09-18,14:25:20.455,-306,-276,-254,-272,-273,-287,-286,-267,-210,-164,-104,-32,3,-3,-35,-60,-125,-204,-252,-250,-240,-300,-377,-306,60,749,1272,830,-37,-660,-603,-342,-254,-240,-216,-135,-59,105,550,815,838,752,679,618,564,523,475,439,409,367,321,295,266,221,176,111,37,-12,-33,-53,-60,-102,-132,-151,-169,-188,-192,-192,-195,-197,-146,-83,-106,-120,-116,-114,-168,-208,-176,-134,-87,-175,-257,-32,629,1436,1382,466,-460,-698,-491,-384,-335,-186,4,144,254,327,353,356,357,348,341,325,301,254,206,166,137,100,61,91,153,170,109,70,51,6,-58,-57,-85,-108,-92,-72,-64,-83,-136,-163
2018-09-18,14:25:21.483,-157,-170,-175,-127,-104,-103,-91,-126,-180,-253,-327,-366,-362,-402,-571,-512,99,1189,1809,1269,16,-754,-599,-307,-227,-216,-171,-124,-78,-50,-39,-31,-1,-4,-12,-28,75,257,392,384,388,342,364,371,366,393,329,203,217,294,224,234,275,210,185,174,85,40,23,51,66,70,73,76,132,190,196,139,99,68,-20,-123,-166,-172,-189,-277,-471,-415,205,1298,1715,875,-443,-1146,-834,-528,-457,-507,-513,-509,-514,-499,-481,-454,-455,-450,-435,-432,-452,-411,-385,-368,-366,-306,-208,-102,-21,-17,-77,-130,-147,-197,-210,-179,-163,-132,-139,-175,-176,-154,-108,-126,-55,-38,-105,-127,-36,142
2018-09-18,14:25:22.511,178,203,272,284,265,221,239,226,170,103,240,740,1638,1898,1148,109,-396,-208,26,30,-57,-101,-62,-32,-22,-77,-109,-106,-135,-174,-180,-106,-75,-152,-163,-158,-89,-112,-111,-47,-38,-100,-108,-110,-108,-79,-101,-164,-124,-62,-66,0,60,153,200,331,462,499,496,541,538,490,497,571,664,753,765,715,643,566,435,139,-21,396,1309,1713,938,-396,-1092,-946,-671,-598,-576,-550,-549,-553,-558,-468,-201,11,151,245,287,313,289,269,230,172,124,167,218,267,302,315,287,190,61,-84,-180,-233,-258,-258,-299,-286,-244,-320,-457,-597,-704,-817,-870,-853,-791,-760,-752,-729,-722,-783
2018-09-18,14:25:23.539,-841,-862,-869,-852,-850,-947,-785,-27,1099,1592,836,-463,-970,-759,-591,-363,-215,-225,-173,-236,-175,-82,-83,-50,-33,-43,-3,22,62,123,133,85,72,84,148,219,217,185,153,156,202,230,255,299,323,333,363,383,402,412,408,389,350,317,272,250,209,126,41,56,174,196,155,120,40,-65,-237,-264,146,1041,1616,1043,-87,-927,-870,-461,-248,-85,99,235,369,451,524,582,615,627,555,371,313,387,439,459,479,506,547,575,639,713,773,755,812,817,683,565,470,397,419,435,387,242,115,2,-87,-152,-227,-334,-385,-395,-427,-435,-434,-455,-476,-478,-554,-558,-617,-779
2018-09-18,14:25:24.567,-847,-740,216,877,510,-365,-1016,-1151,-982,-844,-816,-769,-748,-719,-667,-615,-570,-545,-527,-516,-506,-475,-455,-583,-847,-980,-1029,-979,-893,-803,-704,-628,-542,-471,-416,-331,-282,-189,-116,-68,-15,38,70,106,139,175,265,429,549,627,721,705,634,579,548,496,418,382,414,766,940,1069,1456,2098,2259,1509,620,137,122,242,249,146,-27,-241,-343,-464,-557,-715,-808,-792,-680,-587,-574,-473,-396,-403,-436,-421,-401,-309,-219,-175,-128,-122,-126,-200,-167,-21,-21,-105,-146,-100,-76,-77,-76,-103,-57,-49,-118,-65,29,60,9,-25,-53,-70,-118,-124,-116,-198,-340,-331,153,1165,1882,1399,310,-465
2018-09-18,14:25:25.594,-482,-319,-341,-429,-495,-515,-503,-478,-442,-380,-320,-239,-178,-142,-96,-40,19,54,64,95,131,151,222,260,240,202,169,172,177,211,168,145,108,267,340,307,288,316,361,406,483,539,541,529,484,431,400,342,247,182,135,123,86,-67,-167,150,967,1826,1713,626,-693,-1036,-564,-133,-132,-166,-126,-132,-146,-160,-126,-101,-67,-40,-20,-2,42,63,52,47,-8,-59,-86,-128,-103,-59,-91,-122,-214,-220,-190,-257,-295,-189,-183,-212,-252,-313,-289,-181,-150,-188,-157,-28,31,73,151,177,121,125,152,147,156,137,14,-14,362,1175,1796,1354,315,-441,-481,-272,-204,-218,-240,-260
2018-09-18,14:25:26.622,-238,-212,-170,-114,-98,-107,-76,-69,-84,-89,-84,-87,-103,-103,-72,-72,-26,-10,-27,-36,-62,-63,-9,28,-4,7,44,32,-23,-72,-94,-89,-108,-133,-102,-124,-77,-185,-157,-145,-312,-453,-449,-486,-505,-603,-626,-88,519,1054,1033,228,-502,-713,-445,-189,60,285,313,304,278,248,197,142,49,28,65,55,110,159,149,129,-58,-299,-106,134,78,21,57,199,166,94,6,69,45,-28,-19,21,-7,-38,40,30,86,126,115,80,108,171,209,169,105,47,-35,-80,-88,-218,-279,-142,402,1267,1477,701,-359,-755,-576,-428,-429,-430,-418,-394,-367,-361,-344,-301,-269,-277,-201,-164
2018-09-18,14:25:27.650,-139,-142,-134,-114,-105,-83,-20,39,105,91,70,15,-50,-67,-62,-73,-123,-235,-215,-215,-155,-200,-190,-188,-241,-242,-210,-245,-97,39,124,120,1,-121,-192,-344,-376,-310,-398,-142,636,1527,1533,529,-642,-917,-661,-490,-470,-428,-377,-358,-354,-356,-328,-178,-102,-85,-108,-72,27,31,-10,42,39,71,111,149,213,180,169,112,81,148,111,80,110,132,107,117,111,85,31,22,28,37,65,93,145,215,206,173,165,112,60,33,30,8,4,-75,-293,-214,538,1750,2267,1464,-70,-914,-735,-472,-330,-279,-277,-231,-181,-122,-56,-49,43,164,226,239,198,191,147,83,15,-5
2018-09-18,14:25:28.678,-10,27,69,131,113,22,9,4,-6,-4,-63,-74,-83,-80,-58,-6,14,3,12,59,70,54,40,92,125,100,-8,-16,-18,-28,-50,-42,-62,-126,-306,-289,270,1314,1923,1327,25,-852,-732,-412,-266,-240,-223,-217,-175,2,154,186,194,199,245,279,273,325,329,304,255,177,125,129,142,136,104,39,-21,-52,-69,-45,-27,-44,-50,-54,-47,-59,-64,-56,-91,-111,-88,-114,-112,-80,-92,-111,-117,-107,-127,-163,-192,-220,-220,-242,-346,-404,-129,584,1329,1105,157,-560,-677,-427,-270,-203,-186,-167,-159,-146,-119,-73,-73,-80,-59,-49,-4,41,49,78,48,-15,-89,-120,-109,-103
2018-09-18,14:25:29.706,5,25,80,156,153,133,148,185,223,214,229,254,266,286,319,384,417,394,355,346,328,313,366,468,511,499,434,373,322,228,81,1,297,1048,1742,1465,364,-585,-696,-495,-439,-455,-493,-490,-482,-468,-449,-411,-365,-341,-306,-293,-331,-333,-341,-352,-372,-406,-432,-434,-392,-381,-410,-449,-447,-430,-422,-420,-412,-391,-412,-442,-471,-523,-566,-537,-549,-585,-583,-555,-514,-501,-450,-372,-314,-319,-294,-284,-273,-235,-183,-158,-215,-386,-483,-143,753,1601,1262,122,-905,-917,-479,-344,-243,-178,-182,-197,-199,-201,-190,-149,-102,-68,-16,89,153,153,126,125,100,25,-50,-35,-14,-47,-62,-84
2018-09-18,14:25:30.734,-117,-109,-99,-56,-39,-36,-34,4,55,99,160,219,258,332,373,407,427,454,557,580,564,545,483,383,310,292,284,273,99,-27,308,1211,2125,1953,765,-398,-646,-367,-254,-256,-233,-192,-162,-159,-113,-40,1,-12,-13,3,25,60,72,30,1,3,7,25,24,39,61,37,0,10,62,108,130,140,159,208,246,262,253,260,264,240,234,240,238,249,277,288,250,201,187,161,68,-56,-58,-64,-33,-170,-360,-231,369,1358,1790,991,-360,-1071,-816,-480,-408,-454,-472,-468,-453,-434,-399,-389,-382,-351,-333,-275,-195,-131,-37,-9,-23,-45,-66,-91,-67,48,46,-6,2,28
2018-09-18,14:25:31.762,87,111,126,135,142,163,191,230,270,297,330,338,365,373,343,329,389,389,328,289,235,110,-18,-74,-151,-217,-295,-460,-482,-15,1066,1919,1493,117,-1106,-1164,-758,-602,-573,-589,-622,-645,-699,-759,-761,-723,-666,-603,-639,-776,-798,-757,-757,-685,-592,-488,-355,-118,228,335,316,242,181,142,173,177,158,133,121,126,125,159,140,54,3,-63,-23,85,0,-231,-208,116,286,270,208,178,123,25,-54,12,66,-31,-277,-194,499,1600,1927,1008,-425,-1170,-952,-515,-348,-296,-319,-303,-255,-180,-180,-164,-108,-74,-113,-63,0,30,24,4,-51,-35,-13,5,36,50,10,-48,-53,-52
2018-09-18,14:25:32.790,-79,-28,-6,-1,-35,-99,-119,-156,-161,-114,-67,-51,-14,32,68,15,-1,46,64,43,36,20,-35,-79,-110,-139,-122,-157,-290,-342,-18,799,1501,1104,69,-677,-740,-431,-226,-143,-71,-12,44,87,132,141,159,165,172,187,204,188,229,338,345,279,339,394,362,309,334,357,406,455,490,516,503,463,420,335,290,321,369,446,493,582,743,826,808,818,806,754,626,522,478,362,167,132,129,32,-108,-325,-331,191,1169,1878,1507,303,-558,-571,-307,-213,-210,-171,-99,-83,-93,-74,-84,-140,-153,-186,-217,-237,-236,-257,-266,-289,-362,-414,-456,-473,-446,-429,-465,-459,-489,-522
2018-09-18,14:25:33.818,-477,-424,-392,-387,-385,-391,-405,-423,-459,-465,-471,-437,-376,-382,-356,-275,-262,-306,-329,-302,-334,-364,-430,-424,-388,-411,-546,-535,2,1114,1850,1173,-126,-996,-892,-548,-458,-439,-415,-390,-348,-329,-221,-152,-143,-128,-148,-130,-62,-16,-3,28,70,107,96,127,110,77,28,-64,-226,-408,-458,-398,-335,-277,-255,-265,-228,-200,-222,-245,-316,-388,-339,-281,-256,-213,-127,-70,-52,-52,21,50,23,-33,-50,-37,-13,-128,-188,192,1086,1954,1871,881,-171,-352,-123,32,53,84,146,139,121,127,186,188,194,195,204,231,208,201,181,206,180,147,146,170,147,120,87,48,26,-6,7,-21
2018-09-18,14:25:34.846,-40,-53,-46,-39,-31,-10,-6,-22,1,34,84,149,191,217,187,223,252,201,134,123,117,92,37,-74,-23,292,909,1132,647,-30,-507,-499,-368,-271,-192,-206,-186,-108,-54,-98,-88,-55,19,15,-23,-28,-30,-31,-39,-38,-22,-24,-55,-55,-83,-78,-62,-97,-88,-77,-56,-2,23,93,83,122,152,155,170,144,121,129,158,204,151,155,70,104,48,-95,-32,27,-17,-122,-72,264,797,1041,578,-87,-446,-435,-305,-242,-262,-241,-257,-218,-183,-162,-154,-148,-97,-79,-89,-57,-52,-57,-91,-83,-63,-85,-61,-52,-82,-104,-120,-135,-158,-165,-152,-146,-168,-198,-153,-4,19,55
2018-09-18,14:25:35.873,112,111,121,171,157,68,44,35,10,-16,-70,-79,-82,-109,-110,-158,-74,343,876,943,386,-267,-681,-383,-100,-28,22,-14,-48,-72,-85,-73,-65,-62,-102,-133,-123,-94,-53,-26,-15,-29,-40,-18,-26,-32,-14,21,66,41,42,68,64,56,46,49,20,112,118,150,155,132,89,80,42,125,135,108,120,76,17,-20,-34,-36,-88,-215,-235,70,728,1152,715,-42,-567,-570,-394,-364,-366,-340,-306,-273,-230,-166,-154,-184,-209,-193,-242,-181,-41,15,-119,-180,120,230,186,180,115,120,84,48,60,59,44,56,65,48,62,44,36,56,51,78,102,99,39,115,235,107
2018-09-18,14:25:36.901,196,197,46,-67,-201,-190,-108,-73,-202,-351,49,998,1601,1124,175,-518,-492,-279,-282,-336,-294,-238,-220,-220,-190,-178,-171,-165,-143,-110,-105,-81,-49,-136,-137,-22,-25,-11,27,12,-10,-40,-13,-45,-37,14,38,91,123,79,40,107,144,124,70,55,87,134,122,114,77,43,11,11,-24,-111,-127,-100,-103,-114,-240,-335,-51,805,1687,1545,473,-687,-832,-507,-381,-399,-393,-383,-337,-273,-263,-265,-245,-231,-228,-179,-104,-36,-27,8,86,147,195,239,297,312,338,299,222,161,86,75,70,119,124,80,59,80,125,88,-4,-56,-115,-103,-6,67,98,125,162,167,98,0
2018-09-18,14:25:37.929,-88,-87,-109,-174,-189,-182,-229,-396,-569,-290,702,1820,1905,791,-631,-980,-686,-536,-498,-518,-461,-323,-278,-291,-281,-237,-226,-175,-169,-139,-49,-24,-35,-23,-42,-2,6,69,166,163,134,121,86,44,22,23,9,-16,-43,-28,-10,7,48,72,72,54,36,-7,-66,-54,-13,0,-31,-82,-86,-83,-118,-159,-161,-118,-137,-252,-400,-289,390,1511,1906,917,-462,-1079,-689,-237,-67,-19,52,124,148,181,185,161,120,103,168,226,234,240,224,241,243,113,32,139,75,-22,-98,-131,-111,-48,-13,61,76,21,-20,-59,-68,-101,-112,-86,-64,-65,-63,-15,-40,-80,-84,-25,49,31
2018-09-18,14:25:38.957,15,-19,-35,-100,-136,-139,-150,-222,-234,-24,596,1352,1369,517,-271,-514,-377,-263,-251,-254,-221,-170,-149,-106,-59,-44,21,102,77,83,78,54,57,51,-3,-33,-6,29,39,40,25,41,55,43,29,12,15,18,11,27,33,16,25,26,10,35,64,53,80,104,151,148,114,155,176,144,141,171,173,154,50,-4,269,915,1492,1229,398,-265,-394,-188,-33,70,30,44,53,58,90,87,59,27,2,20,68,119,148,206,224,190,146,86,38,-6,-55,-81,-109,-143,-155,-163,-160,-172,-158,-164,-202,-243,-243,-242,-265,-273,-248,-240,-261,-211,-166,-186,-275,-254,-198,-201
2018-09-18,14:25:39.985,-275,-303,-309,-325,-447,-597,-418,326,1319,1550,790,-340,-800,-598,-459,-467,-496,-542,-590,-574,-569,-524,-479,-433,-399,-398,-358,-383,-371,-368,-358,-356,-418,-463,-477,-477,-490,-534,-552,-581,-581,-543,-506,-488,-494,-486,-463,-422,-364,-325,-288,-229,-141,-79,-42,-6,26,7,-19,-49,-35,-18,-81,-125,-106,-69,-118,-222,-239,283,1298,1948,1482,348,-547,-518,-195,-35,51,54,149,231,233,232,212,172,209,262,249,271,278,295,327,324,293,285,258,262,270,232,191,183,173,160,173,170,195,213,241,254,267,229,305,340,333,326,303,306,317,314,318,313,284,227,291,288,222,144
2018-09-18,14:25:41.013,1,106,618,1433,1595,774,-97,-489,-353,-174,-112,-105,-106,-112,-105,-69,-45,-26,-2,1,1,4,12,52,65,64,55,31,30,28,13,15,5,-3,-5,-9,-9,-2,36,86,90,63,49,39,43,37,15,-28,-36,-4,25,74,56,-51,-141,-188,-201,-222,-253,-313,-435,-399,22,874,1525,1179,109,-695,-707,-515,-477,-494,-495,-478,-430,-347,-303,-300,-339,-306,-257,-234,-244,-220,-164,-165,-140,-111,-121,-187,-162,-15,5,-72,-82,-52,-35,-54,-48,-67,-27,-6,-24,-36,19,56,64,58,38,89,143,139,137,162,133,85,37,11,23,-32,-229,-281,172,1190,2035,1676,349,-871
2018-09-18,14:25:42.041,-880,-503,-400,-404,-401,-406,-393,-386,-376,-338,-298,-249,-210,-175,-130,-112,-90,-34,-7,-16,17,99,193,288,298,277,226,199,156,113,60,31,40,23,47,67,72,56,6,46,92,100,59,-21,-49,-59,-82,-88,-69,-21,0,-20,-199,-314,26,927,1761,1476,325,-837,-999,-599,-393,-330,-301,-286,-270,-239,-195,-155,-164,-157,-74,-46,-37,-64,-93,4,-7,-20,44,20,-81,-36,-39,-65,-74,-54,-1,32,65,18,-3,-15,-5,27,9,-16,-46,-84,-101,-48,-12,0,-16,-34,-56,-101,-126,-112,-92,-104,-158,-254,-179,275,1083,1466,798,-209,-754,-659,-407,-319,-308,-305,-290,-254
2018-09-18,14:25:43.069,-233,-168,-110,-43,-13,43,122,180,223,230,195,154,112,66,54,89,87,76,38,14,26,21,-1,42,63,101,131,91,41,42,101,131,129,173,230,263,241,258,244,192,113,70,46,-14,-105,-175,26,688,1474,1439,553,-350,-590,-324,-138,-144,-148,-108,-30,-19,7,53,91,92,134,141,168,215,220,236,241,233,221,229,228,217,219,194,177,191,187,199,212,237,201,167,155,110,73,54,72,95,86,85,103,139,117,95,110,76,3,-51,-56,-54,-110,-296,-397,-27,958,1799,1501,285,-933,-1080,-736,-579,-573,-550,-533,-520,-469,-377,-336,-340,-297,-261,-282,-309
2018-09-18,14:25:44.097,-248,-240,-259,-305,-297,-295,-305,-317,-299,-279,-286,-294,-316,-317,-181,-106,-167,-281,-270,-209,-135,-142,-149,-148,-169,-154,-54,37,-18,-173,-308,-388,-474,-544,-565,-538,-521,-558,-731,-747,-232,940,1755,1374,36,-1158,-1148,-835,-684,-616,-594,-564,-565,-577,-517,-479,-389,-248,-191,-137,-25,117,199,192,172,171,181,268,358,399,369,269,149,44,-55,-109,-96,-2,42,106,151,199,238,279,320,327,289,288,306,312,300,260,286,233,102,-2,-69,-161,-342,-569,-537,44,1144,1683,978,-200,-778,-425,-35,55,46,81,101,104,117,118,104,127,159,184,229,293,289,248,233,199,219,258
2018-09-18,14:25:45.124,220,122,-34,-37,101,177,193,158,134,82,111,164,143,93,130,221,280,299,347,405,466,445,384,417,367,264,205,121,48,31,-22,-104,49,702,1400,1251,327,-553,-714,-471,-324,-346,-398,-410,-378,-363,-232,-252,-209,-231,-163,-79,-35,36,-8,-35,-39,-37,-39,-67,-98,-114,-123,-144,-161,-159,-175,-184,-179,-162,-145,-143,-146,-148,-135,-128,-100,-104,-76,-37,-63,-84,-81,-115,-137,-175,-159,-138,-174,-300,-240,218,1028,1457,818,-197,-814,-758,-393,-228,-183,-103,-23,-50,-64,-38,27,67,89,90,89,98,35,172,209,139,100,96,37,20,93,21,-54,-130,-115,6,94,66
2018-09-18,14:25:46.152,38,21,0,6,-28,-45,-55,-82,-93,-49,5,26,4,-33,-37,-90,-112,-145,-151,-147,-264,-411,-240,551,1609,1912,1059,-365,-919,-717,-544,-412,-354,-338,-341,-368,-318,-281,-247,-205,-167,-134,-84,-34,14,47,40,9,-35,-33,30,64,68,38,-7,-20,2,16,36,66,80,77,67,60,48,41,23,26,35,48,33,26,42,59,57,33,22,39,-9,-78,-209,-64,651,1673,1845,807,-370,-839,-541,-283,-272,-283,-223,-189,-126,-77,-78,-82,-41,-21,-8,-56,-70,-14,70,71,76,66,71,136,135,128,92,44,30,37,22,1,8,14,27,24,5,-3,28,34,17,54
2018-09-18,14:25:47.180,61,56,-1,-19,-34,-78,-102,-135,-152,-192,-358,-393,-60,708,1505,1456,505,-436,-674,-532,-401,-347,-315,-278,-265,-239,-176,-180,-158,-101,-84,-82,-97,-84,-60,-61,-88,-109,-106,-67,-24,21,34,6,-12,2,7,-18,-22,-29,-22,-23,-22,-66,-76,-70,-11,37,31,26,34,27,48,38,1,-7,15,-4,-128,-139,151,814,1309,861,67,-538,-548,-271,-171,-169,-167,-179,-152,-108,-85,-73,-124,-23,1,12,90,101,124,158,132,133,118,84,83,54,10,-8,-31,-58,-52,-45,-21,-14,-24,2,1,14,16,5,-4,9,66,71,-90,-113,113,65,-25,-88,-228,-342,-359,-196
2018-09-18,14:25:48.208,240,1187,1664,991,16,-543,-481,-360,-330,-326,-297,-270,-260,-248,-206,-185,-181,-120,-89,-58,-39,-8,3,18,30,10,4,66,66,62,60,25,1,9,0,-28,-46,-53,-64,-83,-64,-39,-73,-72,3,48,61,73,92,117,148,144,92,63,9,-169,-326,-140,513,1341,1256,385,-411,-685,-454,-272,-241,-279,-339,-326,-343,-340,-323,-267,-198,-153,-38,19,57,61,-31,-99,-107,-109,-103,-41,-7,-23,-29,-22,-1,0,-11,-2,-6,-17,-2,6,19,21,4,9,71,75,67,80,86,55,42,-26,-121,-148,-176,-304,-479,-267,580,1653,1975,1216,-176,-813,-619,-452,-415,-409,-391,-384
2018-09-18,14:25:49.236,-314,-260,-213,-157,-134,-104,-77,-56,-22,30,64,92,88,82,102,155,167,151,143,134,126,137,180,184,160,151,131,144,197,240,246,264,331,419,470,427,413,400,362,315,261,229,196,105,-64,2,555,1444,1852,1177,42,-548,-395,-265,-158,-112,-122,-76,-26,26,93,150,159,191,252,237,219,215,225,228,204,173,171,212,205,201,174,161,187,187,164,167,128,164,164,137,69,47,68,-16,24,108,69,60,35,91,75,10,-15,-75,-156,-120,-179,-106,348,1164,1403,681,-178,-638,-589,-477,-483,-525,-576,-624,-633,-611,-590,-595,-598,-605,-607,-582,-591,-575,-583,-599
2018-09-18,14:25:50.264,-595,-615,-615,-604,-596,-601,-623,-647,-664,-677,-677,-658,-630,-586,-585,-570,-534,-470,-427,-425,-396,-368,-362,-378,-344,-331,-377,-466,-493,-485,-537,-614,-788,-659,-72,804,1272,720,-302,-935,-848,-646,-559,-508,-436,-346,-281,-308,-250,-196,-175,-152,-129,-99,-46,10,41,21,5,-37,86,254,289,229,227,235,257,299,325,267,263,346,415,402,369,386,350,384,419,410,427,452,440,446,397,333,342,301,263,230,103,-38,190,1014,2032,2086,1059,-193,-544,-218,-97,-112,-97,-36,5,15,27,51,111,117,130,153,187,222,223,227,239,243,256,237,276,333,322,305,244,202,209,232
2018-09-18,14:25:51.292,141,124,106,120,114,72,2,-49,-46,-85,-139,-137,-77,-79,-64,-52,-53,-106,-179,-165,-130,-178,-241,-386,-326,192,1274,1966,1465,50,-948,-850,-452,-246,-201,-194,-221,-207,-184,-165,-126,-76,-37,-41,-16,11,85,100,115,142,130,91,55,70,96,56,22,29,84,62,6,-46,-86,-246,-390,135,376,195,127,76,177,168,-77,29,254,338,264,133,41,16,-4,-26,-132,-273,-112,542,1356,1354,438,-492,-844,-621,-444,-394,-325,-323,-302,-303,-302,-301,-280,-257,-272,-252,-213,-183,-161,-138,-122,-98,-100,-49,-15,-37,-68,-48,30,117,103,46,-6,1,41,-22,-73,-43,-108,-101
2018-09-18,14:25:52.320,-74,-121,-134,-74,-24,-21,13,8,-62,-63,-62,-13,-18,-61,-167,-155,212,973,1550,1147,129,-677,-744,-461,-316,-260,-228,-239,-241,-204,-145,-77,-44,-79,-142,-171,18,-12,-171,-45,97,99,-24,-33,121,44,-59,51,40,-27,29,92,71,25,27,24,4,-16,8,21,27,39,18,57,48,23,43,38,-27,-114,-196,-225,-213,-290,-460,-370,-30,905,1838,1479,185,-760,-867,-469,-252,-310,-401,-244,-227,-205,-254,-302,-231,-184,-171,-127,-77,-35,91,187,197,128,5,-122,-135,-94,-53,27,45,58,-6,39,175,201,166,110,84,61,-22,-82,-7,43,100,249,238,162,82,143
2018-09-18,14:25:53.348,138,27,-167,-46,-121,68,1,-26,375,1371,1870,1244,99,-628,-600,-377,-324,-250,-299,-317,-324,-357,-342,-325,-237,-136,-137,-86,-55,-91,-77,1,-18,-46,-53,-40,-24,-19,-42,-14,-1,-4,8,25,21,10,0,-4,3,27,26,14,-2,29,76,90,88,82,104,55,9,14,8,-20,-65,-124,0,480,1197,1344,622,-210,-619,-529,-302,-187,-236,-188,-138,-124,-111,-145,-78,-24,-50,-195,34,178,138,85,54,25,27,74,58,97,139,98,64,4,-1,-3,5,9,-9,-22,15,31,-27,-19,5,-63,-94,-36,-7,26,29,-18,-32,-61,-149,-200,-111,-116,-231,-441,-140,510
2018-09-18,14:25:54.375,1450,1872,1090,-130,-766,-605,-315,-270,-275,-251,-264,-265,-227,-194,-129,-79,-52,-84,-61,-56,-38,-8,66,92,39,-12,-15,13,17,0,-19,-57,-73,-70,-55,-41,-45,-24,9,0,0,-14,-15,20,8,6,17,49,68,62,58,55,53,18,-72,-82,-137,-194,-329,-451,-58,960,1822,1535,337,-625,-767,-527,-428,-427,-478,-435,-371,-280,-251,-202,-130,-70,-54,-33,-12,6,63,75,90,73,60,90,100,89,59,90,113,111,90,69,36,21,15,-43,31,84,47,25,-12,-9,2,-22,-67,95,124,61,38,66,61,0,-49,-96,-79,-64,-215,-287,82,911,1611,1300,261,-618
2018-09-18,14:25:55.403,-707,-469,-332,-317,-297,-271,-217,-193,-166,-140,-120,-84,-47,-43,-38,-7,7,-5,-15,-24,-11,-5,0,-24,-43,-53,-66,-89,-94,-85,-69,-97,-33,24,67,101,94,66,65,92,72,76,98,90,77,33,-15,-51,-73,-110,-146,-76,-139,-253,-111,316,1179,1304,549,-308,-696,-621,-304,-110,-115,-186,-205,-182,-143,-147,-16,-15,26,50,66,62,63,78,76,78,56,15,15,18,51,49,-32,-38,69,48,62,7,-30,-121,-203,39,125,132,136,87,121,137,139,89,16,18,79,111,24,-28,-47,-61,-183,-336,-164,551,1423,1464,591,-464,-801,-554,-366,-328,-312,-291,-278,-266
2018-09-18,14:25:56.431,-232,-196,-173,-174,-151,-137,-129,-100,-43,12,34,24,-6,16,86,129,121,93,73,91,105,87,36,33,28,-1,-14,-52,-90,-99,-103,-61,-48,-34,24,18,-17,-23,-21,-50,-101,-141,-145,-132,-147,-267,-469,-323,404,1562,2189,1596,92,-858,-759,-544,-456,-413,-385,-354,-328,-308,-288,-265,-235,-210,-170,-122,-86,-54,-25,-8,-9,-24,-42,-7,35,-15,115,185,145,83,48,44,23,7,16,2,79,80,7,-19,39,70,71,54,88,106,78,67,67,15,-47,-85,-94,-121,-209,-345,-235,396,1373,1798,1066,-236,-945,-809,-546,-451,-416,-409,-445,-440,-398,-342,-256,-174,-146,-74
2018-09-18,14:25:57.459,0,100,180,223,170,148,173,175,187,205,189,160,138,108,150,168,151,109,113,123,158,131,220,203,172,169,189,220,189,208,254,176,183,191,151,139,121,45,-30,141,681,1351,1316,533,-183,-411,-246,-57,-9,0,7,-4,-163,91,310,214,133,99,99,163,122,183,322,237,199,227,231,171,168,195,193,190,162,140,115,85,69,83,86,56,23,0,0,-2,-6,-29,-40,17,11,-17,-22,-75,-144,-228,-269,-274,-286,-399,-540,-419,191,1070,1256,400,-766,-1280,-1087,-831,-741,-679,-630,-594,-520,-456,-417,-338,-238,-182,-152,-149,-176,-170,-185,-225,-237,-229,-213,-176
2018-09-18,14:25:58.487,-192,-146,-126,-163,-246,-324,-378,-327,-351,-441,-389,-245,-358,-402,-164,-123,-184,-197,-227,-192,-134,-168,-331,-393,-225,-200,-311,-346,-396,-583,-557,11,1112,1740,1185,-57,-921,-751,-482,-415,-398,-358,-329,-420,-444,-228,-170,-218,-132,-89,-57,-57,-62,-4,0,80,93,40,80,145,151,132,130,110,101,62,69,115,155,172,156,131,122,170,158,145,184,198,204,179,184,164,135,84,89,136,119,-54,-95,335,1267,2043,1717,537,-492,-578,-173,26,75,95,104,169,226,235,252,230,260,286,271,242,267,296,305,291,227,123,89,179,259,278,158,7,155,143,62,104,88,90
2018-09-18,14:25:59.515,33,109,122,39,38,58,94,57,5,8,33,-35,-111,-120,-125,-166,-287,-331,-146,445,1146,1092,249,-537,-680,-484,-387,-342,-241,-238,-242,-235,-138,-44,-33,-43,74,73,146,127,56,114,98,78,110,128,152,123,90,55,38,42,45,26,0,3,0,2,-2,5,-7,-21,-2,6,16,-3,-25,-47,-105,-175,-226,-251,-307,-399,-456,-197,478,1128,843,-48,-783,-875,-600,-411,-359,-315,-252,-169,-109,-47,-10,-5,21,11,-5,-21,-21,12,48,21,-17,0,26,-9,-14,29,8,-66,-105,-89,-99,-73,48,155,137,146,133,97,85,127,143,102,60,48,12,-24,-75,-105
2018-09-18,14:26:00.543,-124,-111,-253,-364,-54,771,1575,1456,489,-563,-736,-452,-348,-342,-318,-300,-245,-210,-226,-177,-153,-161,-126,-112,-109,-140,-105,-79,-141,-127,-92,-56,-14,-14,-26,-16,-32,-45,-55,-53,-40,13,27,30,44,53,46,36,52,63,38,22,19,5,-37,-88,-131,-156,-201,-368,-498,-197,781,1887,1974,860,-599,-1012,-625,-343,-247,-176,-104,-82,-62,-51,-48,-54,-54,-22,-9,-15,31,88,80,26,138,137,112,60,39,-6,-76,-106,-46,37,39,49,103,147,127,111,105,37,23,76,76,51,36,21,7,-22,-63,-50,-89,-140,-297,-292,162,1075,1663,1143,30,-712,-632,-396,-320,-268
2018-09-18,14:26:01.571,-274,-266,-292,-204,-152,-122,-117,-143,-119,-41,-7,19,16,5,0,33,60,55,55,61,32,4,-10,1,32,31,19,34,34,18,-3,-23,-8,20,36,31,22,14,-15,-94,-155,-181,-202,-271,-426,-371,107,946,1236,541,-347,-763,-553,-286,-186,-152,-148,-118,-90,-47,-17,-5,-9,4,7,12,39,82,143,147,118,107,92,114,122,79,58,41,35,16,22,115,171,169,144,122,78,9,-24,6,29,51,59,63,33,-33,-112,-141,-121,-139,-273,-439,-274,416,1497,1854,1047,-217,-793,-621,-452,-358,-331,-322,-304,-323,-301,-218,-150,-136,-135,-137,-112,-104,-73,-48,-53,-43
2018-09-18,14:26:02.599,-20,9,63,79,68,16,-11,-36,-10,-7,-3,30,31,7,15,31,14,5,37,87,59,7,-4,-7,-55,-126,-195,-213,-232,-410,-602,-331,624,1805,1969,907,-594,-1093,-669,-375,-291,-239,-157,-88,-66,-97,-66,-19,-14,6,12,22,26,41,66,110,72,62,172,161,174,159,82,0,-56,-80,-113,-72,-51,-39,-8,47,114,122,105,126,144,94,92,95,53,13,-28,-44,-59,-127,-308,-269,285,1186,1623,933,-197,-782,-655,-441,-245,-205,-274,-308,-231,-117,-67,-66,-41,-35,-54,9,38,16,26,20,113,166,110,85,92,102,98,79,61,65,49,3,-7,-9,7,8
2018-09-18,14:26:03.626,8,-4,15,56,72,43,38,38,-11,-77,-135,-164,-170,-260,-395,-327,143,893,1122,416,-479,-924,-773,-486,-366,-303,-231,-119,-58,-41,-23,-35,-19,-16,-20,-39,-35,5,35,56,53,-6,35,80,101,81,48,-2,-66,-103,-99,-80,-3,38,75,103,151,109,84,64,108,120,114,78,18,-24,-65,-96,-99,-108,-237,-299,18,897,1754,1518,389,-723,-805,-444,-303,-257,-231,-227,-188,-151,-118,-73,-46,-29,-24,-11,4,-24,13,46,18,5,-19,63,147,171,143,107,71,61,40,27,7,-13,-26,-33,-1,9,-26,-17,9,23,-1,-28,-28,-73,-150,-228,-239,-281,-353,-563
2018-09-18,14:26:04.654,-562,-28,1100,1821,1246,-166,-1200,-1064,-641,-498,-448,-384,-290,-179,-42,17,-2,1,11,23,44,51,81,124,128,117,120,160,157,162,176,118,51,30,-1,-12,5,22,74,120,124,199,229,192,207,233,214,154,167,148,112,25,-41,-45,-82,-208,-289,-1,747,1431,1154,206,-546,-670,-419,-270,-236,-225,-204,-209,-181,-158,-115,-97,-116,-125,-73,-58,-39,19,30,9,-17,0,45,77,63,47,43,45,47,41,33,4,-21,-45,-45,-28,-26,-42,-28,-9,-35,-59,-61,-57,-92,-141,-184,-194,-238,-339,-406,-165,470,1110,944,83,-712,-913,-667,-468,-405,-375,-315,-269,-203,-125
2018-09-18,14:26:05.682,-49,12,62,83,106,106,84,53,55,60,58,71,85,121,115,108,108,106,100,111,80,67,41,26,0,21,191,269,312,302,277,311,287,290,265,214,167,119,79,6,-172,-151,321,1108,1583,1194,-69,-753,-725,-346,-73,-52,41,-4,-11,13,14,21,12,-104,-62,65,68,79,70,72,-4,-105,-98,18,66,57,-26,-54,-69,-110,-137,-157,-169,-187,-216,-257,-269,-224,-200,-213,-192,-133,-96,-115,-106,-107,-161,-234,-241,-240,-251,-359,-572,-428,367,1584,2048,1170,-468,-1242,-994,-727,-613,-564,-528,-459,-387,-312,-255,-200,-134,-63,-8,27,64,95,105,95,67,37,55,94
2018-09-18,14:26:06.710,148,152,120,115,75,84,48,24,-14,-58,-80,-87,-95,56,222,293,272,213,205,220,222,183,125,69,44,10,-76,-192,-173,320,1148,1580,949,-161,-814,-682,-381,-337,-344,-225,-205,-238,-270,-215,-202,-270,-204,-233,-194,-117,-103,-83,-102,-123,-109,-95,-117,17,46,28,33,39,36,61,35,20,40,33,16,28,33,3,28,42,45,-2,-12,46,47,-16,-76,-125,-135,-180,-326,-324,38,808,1188,605,-326,-842,-763,-498,-379,-324,-266,-179,-123,-70,9,81,163,241,268,236,244,238,202,167,143,133,145,204,241,229,201,116,229,229,185,111,117,131,247,281,260,224
2018-09-18,14:26:07.738,117,133,450,439,343,246,159,119,97,106,73,-84,-253,-49,674,1678,1835,840,-408,-815,-543,-271,-264,-198,-182,-178,-170,-134,-63,-17,-32,-130,-10,47,16,17,27,-7,-51,-10,18,88,126,117,86,64,44,25,4,-38,-44,-63,-80,-95,-62,-62,-106,-103,-37,-49,-72,-89,-115,-164,-249,-297,-288,-321,-392,-603,-633,-69,1038,1782,1291,-135,-1277,-1192,-830,-655,-599,-560,-522,-461,-401,-360,-310,-257,-195,-170,-156,-84,-63,-70,-92,-132,-126,-66,-23,16,44,28,80,80,123,154,179,166,115,100,118,190,285,275,278,321,317,296,266,222,159,54,-22,-9,-2,-197,-229,102
2018-09-18,14:26:08.766,851,1578,1312,221,-684,-765,-461,-396,-397,-378,-357,-320,-414,-455,-448,-464,-478,-430,-375,-333,-254,-174,-124,-148,-127,-102,-45,-21,-71,-68,-9,11,-6,-43,-52,-18,13,-1,2,25,45,58,84,92,117,75,71,64,21,-8,-46,-59,-67,-127,-262,-209,226,1025,1522,1025,-41,-747,-699,-459,-339,-284,-249,-202,-152,-96,-26,45,122,163,183,246,306,355,392,400,356,357,323,304,317,308,255,225,237,232,194,188,185,157,120,119,66,57,83,61,60,106,108,97,66,41,-1,-84,-137,-201,-346,-482,-205,679,1586,1473,441,-734,-931,-643,-568,-560,-454,-298,-254,-290,-322,-301
2018-09-18,14:26:09.794,-334,-260,-191,-468,-347,54,173,19,-46,-50,25,22,34,129,125,127,88,57,53,56,83,89,86,64,52,75,76,61,50,75,64,82,79,93,49,19,13,-18,-68,-134,-244,-91,464,1300,1562,787,-313,-838,-638,-396,-388,-393,-369,-323,-285,-272,-233,-185,-149,-95,-18,28,83,130,146,171,192,201,193,195,207,153,99,68,90,100,94,120,86,30,74,117,181,145,115,69,92,60,64,121,84,68,-3,-9,-14,-76,-174,-200,162,851,1152,609,-205,-748,-703,-436,-328,-310,-248,-256,-231,-202,-188,-141,-101,-73,-80,-77,-53,-55,-44,-55,-104,-117,-81,-41,22,-37
2018-09-18,14:26:10.822,-77,-16,-27,-30,-45,-44,-25,-8,8,4,48,44,16,42,83,98,70,34,19,-32,-86,-134,-167,-140,-161,-309,-392,-45,802,1591,1394,399,-572,-714,-509,-449,-446,-417,-379,-349,-322,-300,-275,-239,-211,-164,-110,-64,-38,-5,38,43,66,95,134,162,168,161,133,153,156,134,137,112,92,60,45,45,-14,-41,20,47,68,81,25,-36,-70,-99,-79,-94,-132,-75,-106,-293,-279,234,1183,1719,1135,-43,-796,-679,-432,-362,-333,-322,-302,-257,-228,-196,-170,-173,-146,-116,-108,-81,-49,-79,-74,-84,-117,-110,-86,-39,-44,-43,-52,-60,-96,-64,36,30,29,2,-17,24,51,34
2018-09-18,14:26:11.850,17,71,109,138,158,154,112,18,-46,-74,-58,-82,-169,-287,-183,470,1272,1254,578,-288,-632,-469,-292,-233,-204,-176,-181,-123,-80,-96,-68,-25,-13,59,103,105,131,155,130,108,189,250,271,276,241,222,208,209,181,154,187,205,184,171,175,171,179,200,172,249,270,170,147,198,137,63,52,59,21,-133,-195,108,813,1569,1450,508,-368,-536,-324,-223,-260,-212,-125,-141,-141,-116,-111,-141,-169,-124,-26,-26,-52,-88,-136,-118,-177,-153,-141,-70,42,19,-60,-80,-89,-89,-55,-46,-65,-55,-33,3,79,33,-15,-25,-55,-60,-95,-100,-36,-107,-178,-211,-235,-241,-370,-489
2018-09-18,14:26:12.877,-159,732,1693,1666,594,-691,-956,-681,-513,-471,-447,-407,-369,-340,-309,-291,-259,-202,-173,-138,-134,-122,-88,-84,-107,-107,-86,-52,-30,-30,-57,-54,-71,-73,-79,-73,-89,-58,-53,-67,-54,-103,-67,-41,-66,-114,-73,-74,-129,-127,-99,-97,-100,-114,-62,-80,-131,-293,-265,222,1036,1587,1114,54,-704,-670,-396,-291,-274,-278,-235,-191,-221,-98,-34,-17,-9,23,1,23,39,39,10,11,-32,-39,97,181,172,137,82,83,89,73,40,65,160,192,190,205,186,173,212,223,246,239,194,173,151,98,48,2,-10,-14,-78,-180,-120,310,1029,1285,639,-214,-672,-566,-351,-288,-285,-270
2018-09-18,14:26:13.905,-263,-244,-200,-177,-164,-126,-113,-120,-99,-72,-40,-10,0,-18,-11,45,111,105,98,87,55,53,51,47,81,77,62,68,66,45,38,-47,-54,18,78,106,41,13,26,10,23,-40,-48,-89,-251,-371,-178,426,1251,1295,430,-562,-848,-564,-398,-384,-350,-290,-255,-209,-199,-196,-155,-115,-79,-18,-5,44,71,42,15,-53,-58,15,181,176,93,15,-92,-231,-37,31,-51,-97,-99,-116,-104,-59,-28,-39,-59,-47,4,52,45,25,11,-13,-73,-132,-167,-170,-165,-225,-486,-373,353,1551,1927,1019,-358,-1067,-708,-407,-374,-349,-320,-296,-256,-235,-231,-196,-136,-72,-17,22,72,118
2018-09-18,14:26:14.933,151,204,223,233,261,334,360,357,331,297,290,295,283,286,292,318,332,306,315,267,197,199,231,229,236,241,270,335,310,318,260,203,153,58,-81,58,638,1464,1606,741,-290,-723,-491,-180,-109,-106,-78,-41,-15,-14,12,69,75,10,-9,-4,-8,-96,-151,137,136,40,64,65,57,17,-9,-75,-88,15,41,96,76,44,39,87,55,52,70,13,-12,-21,31,38,7,2,-17,-45,-91,-146,-174,-155,-220,-351,-349,-7,720,1218,747,-224,-881,-915,-713,-614,-585,-557,-506,-515,-507,-498,-488,-466,-401,-369,-365,-315,-259,-228,-202,-212,-227,-236,-213,-194,-199,-212,-229,-225
2018-09-18,14:26:15.961,-228,-221,-190,-157,-129,-209,-166,-74,-127,-175,-181,-154,-111,1,33,36,-11,-98,-181,-215,-221,-245,-337,-369,-122,490,1127,882,94,-634,-766,-575,-463,-429,-407,-359,-292,-256,-245,-208,-143,-125,-94,-68,-120,-18,-32,32,100,76,47,58,85,56,65,31,-2,92,120,86,75,96,136,139,136,149,115,132,124,165,223,286,281,379,541,568,505,415,338,312,276,168,16,85,635,1527,1780,980,-221,-839,-642,-384,-351,-364,-341,-303,-293,-289,-229,-186,-144,-99,-74,-7,108,176,197,190,159,91,80,67,58,18,-14,-50,-65,7,62,78,79,104,104,63,-11,-178,-159,180
2018-09-18,14:26:16.989,220,233,232,219,158,67,24,101,90,22,-31,-47,-140,-335,-247,453,1637,2198,1557,46,-917,-744,-460,-351,-361,-386,-323,-207,-119,-164,-263,-140,123,167,124,82,62,119,137,146,87,112,193,300,280,253,273,275,260,267,264,214,174,118,75,50,76,77,70,57,66,70,35,8,-29,-100,-187,-245,-248,-255,-312,-470,-398,76,946,1464,766,-389,-1021,-891,-553,-412,-377,-356,-323,-268,-233,-188,-174,-165,-167,-155,-142,-162,-122,-99,-127,-153,-153,-123,-80,-72,-74,-64,-80,-61,55,40,35,5,-43,19,67,125,196,193,241,284,242,159,79,48,9,-40,-109,-172,-208,-259
2018-09-18,14:26:18.017,-408,-662,-577,-11,640,435,-361,-912,-1013,-809,-624,-568,-406,-293,-213,-58,179,447,517,518,508,532,548,551,458,515,573,565,481,447,431,387,344,300,264,219,205,185,120,80,96,80,71,89,89,57,38,52,36,-30,-60,-105,-161,-254,-319,-343,-358,-440,-589,-531,-32,882,1283,558,-630,-1266,-1035,-656,-553,-519,-483,-426,-370,-358,-320,-306,-298,-270,-198,-120,-67,-51,-47,-34,-34,-14,-5,-39,-49,-67,-62,-81,-91,-111,-148,-147,-143,-145,-171,-145,-72,-27,16,34,84,93,90,54,34,31,-4,-51,-60,-108,-204,-364,-407,44,1056,1902,1539,283,-831,-800,-422,-300,-277,-264
2018-09-18,14:26:19.045,-274,-232,-148,-96,-42,-10,27,81,141,136,150,160,232,249,221,232,263,294,316,308,359,302,251,226,204,215,212,225,183,203,198,150,129,150,172,174,156,154,174,99,24,-12,-36,-59,-81,-196,-253,65,856,1576,1253,115,-756,-817,-535,-428,-404,-386,-319,-280,-241,-188,-123,-84,-78,-78,-94,-71,-42,-10,-3,-21,-39,-15,22,17,19,5,-34,-24,-26,-25,-16,0,-5,-38,-75,-99,40,104,77,115,143,182,160,180,160,85,3,-37,-33,-38,-145,-263,-82,526,1236,1218,431,-404,-655,-435,-251,-228,-225,-198,-180,-158,-155,-119,-94,-87,-109,-126,17,29,-17,-109
2018-09-18,14:26:20.073,-196,-213,-182,-112,-135,-177,-30,27,-25,-36,-7,-11,-7,24,31,30,20,-5,24,18,22,38,47,27,36,36,4,-44,-94,-106,-118,-162,-301,-354,8,828,1557,1320,277,-713,-828,-557,-428,-394,-354,-278,-185,-136,-125,-86,-56,1,54,66,84,96,77,58,44,54,57,89,111,116,57,-16,-41,124,209,158,80,-30,46,159,172,91,55,54,52,169,200,162,141,138,108,63,1,-23,-31,-90,-248,-386,-137,815,1950,1956,734,-823,-1222,-850,-664,-633,-597,-587,-528,-492,-443,-364,-319,-280,-235,-238,-192,-174,-158,-166,-154,-137,-83,-35,13,63,47,26,95,109,86,107
2018-09-18,14:26:21.101,25,90,124,120,149,136,141,97,85,112,155,157,144,145,107,15,-48,-76,-91,-88,-181,-364,-187,471,1511,1922,1033,-354,-970,-699,-403,-324,-306,-274,-237,-218,-199,-130,-74,-120,-54,-2,-23,49,72,69,50,-13,-47,-22,26,84,123,99,72,68,26,27,29,73,84,37,14,92,89,67,101,104,168,206,173,154,97,38,-18,-77,-105,-162,-245,-268,42,710,1277,918,44,-639,-702,-501,-461,-434,-376,-294,-235,-245,-293,-338,-139,30,-14,-18,9,43,86,94,93,115,126,131,155,148,134,86,111,160,143,90,151,205,188,156,121,102,91,64,46,45,61,32
2018-09-18,14:26:22.128,55,48,-11,-115,-179,-191,-159,-237,-373,-245,320,1237,1555,781,-243,-721,-512,-250,-186,-184,-198,-194,-155,-158,-88,18,70,54,87,120,146,178,196,198,178,177,193,169,128,179,199,168,147,139,143,150,121,114,109,121,126,116,99,81,84,133,144,90,55,59,26,-53,-123,-122,-111,-162,-335,-296,299,1323,1864,1236,-70,-877,-647,-457,-445,-404,-394,-381,-374,-319,-250,-223,-171,-156,-126,-73,-42,-25,-34,-42,-49,-29,-60,-46,-58,-100,-150,-76,-15,-95,-113,-63,-96,-198,-224,-184,-146,-183,-166,-129,-105,-145,-98,-84,-146,-172,-184,-292,-392,-466,-518,-549,-596,-769,-825,-464
2018-09-18,14:26:23.156,403,1087,668,-427,-1202,-1078,-823,-804,-779,-727,-633,-531,-452,-343,-318,-296,-229,-206,-195,-167,-71,-18,-26,-6,10,17,55,154,194,186,171,223,268,280,270,312,304,299,332,351,348,513,694,722,698,684,691,638,592,583,565,533,490,474,452,441,356,267,416,977,1616,1477,722,127,3,155,299,314,285,302,302,269,278,357,371,373,420,409,468,446,460,475,466,462,480,542,446,369,415,354,240,235,306,267,134,55,98,-10,-181,-210,-271,-350,-431,-486,-528,-520,-509,-673,-846,-818,-757,-937,-1033,-983,-1014,-1167,-1144,-741,16,578,141,-503,-998,-985,-783,-615,-673,-540
2018-09-18,14:26:24.184,-400,-249,-230,-192,-154,-10,-28,52,225,290,239,197,195,162,157,110,26,-214,-351,-392,-427,-412,-422,-401,-355,-355,-434,-525,-518,-451,-399,-430,-471,-429,-298,-215,-164,-58,22,59,2,-87,-105,-70,-90,-242,-252,98,958,1817,1887,1009,-141,-216,-7,-20,-34,-56,-137,-165,-148,-151,-133,-138,-102,-71,-46,0,5,-2,-58,-69,-55,96,192,113,26,-3,11,25,71,85,142,160,82,98,89,-10,4,87,26,-35,2,46,0,-28,-31,-79,-234,-325,-366,-521,-540,-576,-662,-338,331,776,373,-402,-778,-637,-428,-381,-353,-202,-283,-197,-32,75,183,216,229,268,368,404,346,493
2018-09-18,14:26:25.212,527,539,566,593,645,587,613,597,593,601,551,534,469,411,355,310,282,220,164,104,67,37,-27,-80,-122,-134,-86,-70,-79,-75,-73,-128,-175,22,644,1259,1001,231,-317,-483,-269,-132,-166,-237,-140,47,90,160,176,135,122,78,66,66,4,-57,-88,-123,-151,-142,-141,-116,-97,-34,40,45,32,9,-54,-27,20,55,54,22,57,66,64,108,163,145,146,155,197,178,109,-26,-10,-83,-347,-437,-85,546,1111,760,-108,-724,-732,-559,-584,-640,-597,-759,-813,-763,-722,-661,-611,-549,-598,-579,-449,-392,-408,-344,-228,-140,-115,-59,30,45,27,112,156,131,242,290,243,278
2018-09-18,14:26:26.240,312,337,406,393,369,383,397,381,371,316,266,161,45,-14,-52,-57,-49,-158,-132,396,1355,1850,1205,195,-324,-102,-76,-140,-33,71,-97,-421,-621,-526,-363,-274,-178,-54,6,6,-25,-37,-22,-13,74,310,390,388,438,416,356,249,190,242,181,140,79,76,71,40,102,155,118,119,117,44,10,60,109,86,30,33,-37,-98,-191,-269,-84,511,1078,781,-87,-637,-615,-483,-462,-454,-417,-472,-516,-469,-507,-499,-507,-514,-663,-724,-757,-666,-562,-577,-593,-543,-414,-369,-366,-264,-219,-228,-235,-161,-157,-119,-14,16,22,141,210,215,227,290,383,420,418,419,376,326,340,394
2018-09-18,14:26:27.268,299,283,404,271,178,432,1022,1326,828,163,-193,-178,-53,30,40,83,101,19,-31,-24,-19,55,127,92,84,75,44,76,117,84,87,112,77,41,31,56,32,-21,-14,1,-5,-12,-16,-38,-33,-17,10,70,107,57,-99,-181,5,90,5,-68,-59,-68,-91,-194,-278,-78,467,1064,882,145,-422,-479,-369,-328,-357,-354,-334,-309,-341,-353,-305,-305,-388,-412,-357,-265,-317,-369,-378,-353,-300,-340,-368,-388,-374,-354,-375,-313,-304,-360,-303,-189,-336,-358,-158,-44,-1,-9,-52,48,118,122,210,207,154,192,195,173,179,186,63,60,446,1114,1435,933,233,-163,-78,99,155,133
2018-09-18,14:26:28.296,122,100,122,189,220,194,192,248,211,189,190,200,163,65,37,70,54,27,-8,-34,-61,-59,-48,-48,-43,-20,146,574,715,754,765,703,632,576,555,532,469,435,387,311,200,104,47,29,-21,-140,-181,47,576,916,574,-91,-479,-427,-281,-242,-199,-179,-142,-153,-169,-153,-117,-151,-161,-129,-153,-236,-244,-248,-279,-315,-470,-981,-1264,-1334,-1391,-1356,-1353,-1376,-1325,-1272,-1246,-1199,-1221,-1219,-1203,-1194,-1230,-1511,-1331,-781,-757,-1160,-675,-342,-558,-691,-691,-738,-702,-543,-453,-553,-291,309,1071,1290,777,242,136,411,609,694,737,783,861,971,1043,1044,1065,1091,1101,1085,1066,1035,1029,1038
2018-09-18,14:26:29.324,1036,987,1019,1012,967,914,861,887,878,867,846,773,720,700,662,589,480,385,313,318,344,289,252,353,464,439,452,508,587,579,570,548,552,490,395,344,476,978,1636,1633,967,364,270,382,338,273,215,123,105,97,65,46,73,16,-54,-635,-1261,-1397,-1371,-1335,-1252,-1211,-1149,-1039,-944,-895,-887,-936,-842,-755,-737,-681,-652,-674,-750,-749,-693,-774,-785,-673,-653,-710,-657,-641,-689,-691,-634,-611,-652,-755,-760,-702,-631,-646,-710,-757,-676,-113,618,618,-48,-690,-716,-446,-440,-835,-416,156,265,150,155,168,219,148,187,285,453,615,590,595,571,535,494,503,534,529,511,500
2018-09-18,14:26:30.352,565,583,528,462,309,158,36,-100,-202,-228,-193,-209,-267,-252,-158,-112,-70,38,143,210,231,286,347,431,411,371,317,277,294,493,848,1468,1953,1501,573,-114,-161,-36,-33,-85,-99,-118,-131,-133,-151,-193,-179,-127,-125,-104,-75,-124,-612,-1121,-1219,-1139,-1027,-941,-769,-669,-547,-448,-395,-400,-355,-283,-243,-285,-303,-217,-181,-224,-208,-248,-261,-201,-229,-206,-249,-125,-9,6,-24,-22,45,18,4,-113,-96,-7,-64,-98,77,590,1258,1648,949,-224,-445,-61,74,234,326,267,246,312,365,363,350,347,334,319,317,325,305,309,551,784,836,844,821,781,782,699,602,498,385,279
2018-09-18,14:26:31.379,164,85,24,-23,-101,-191,-250,-290,-282,-267,-293,-328,-378,-348,-326,-252,-219,-189,-135,-150,-237,-240,-210,-188,-195,-345,-371,-22,741,1320,1003,111,-538,-441,-155,-37,-53,-90,-77,-57,-55,-34,-66,-273,-485,-495,-453,-394,-339,-301,-266,-263,-281,-218,-190,-145,-174,-242,-224,-230,-271,-286,-291,-269,-258,-257,-256,-225,-255,-298,-293,-286,-316,-224,-253,-254,-177,-74,-111,-156,-65,-51,-111,-155,-116,-157,-155,-79,-42,26,385,993,1240,710,85,-192,-44,195,241,212,238,264,309,295,330,338,340,350,348,407,532,612,568,530,524,449,321,230,190,155,105,81,60,61,25,-17,68,117
2018-09-18,14:26:32.407,73,45,42,71,163,182,217,223,236,309,296,293,289,276,211,104,-13,-113,-172,-219,-277,-280,-268,20,531,664,209,-306,-498,-308,-160,-164,-215,-201,-172,-157,-184,-180,-144,-113,-205,-178,-98,-151,-188,-195,-189,-221,-230,-264,-209,-242,-333,-339,-377,-389,-360,-338,-369,-364,-412,-347,-265,-342,-346,-350,-309,-201,-183,-230,-133,-57,-7,30,64,83,13,-18,-2,73,66,17,-51,66,571,1302,1527,903,19,-299,-140,16,69,106,126,196,266,337,404,417,349,187,73,55,51,59,84,-14,-40,-28,-9,-4,-20,-53,-36,-96,-193,-226,-189,-202,-252,-223,-203,-217,-146,-103,-109,-80
2018-09-18,14:26:33.435,-23,3,-24,8,71,128,132,127,136,124,72,42,20,48,-7,-84,146,715,1321,1139,272,-407,-387,-150,-174,-227,-245,-228,-278,-493,-545,-532,-422,-451,-464,-489,-575,-587,-590,-676,-645,-634,-640,-600,-554,-584,-663,-685,-562,-644,-681,-552,-461,-409,-474,-306,-206,-236,-133,38,109,139,259,361,430,483,590,638,610,611,538,497,537,536,415,413,644,1159,1482,1086,519,169,194,405,535,599,592,534,477,423,340,225,221,182,157,172,160,149,77,-24,-62,-58,-21,40,107,60,8,2,39,28,49,62,57,49,22,31,29,52,68,71,45,9,18,59,80,63,1,-13
2018-09-18,14:26:34.463,-21,-98,-80,-68,-109,-165,-93,221,773,1063,531,-125,-438,-306,-123,-134,-207,-133,-229,-373,-289,-222,-253,-298,-352,-336,-309,-411,-479,-577,-548,-511,-561,-577,-634,-634,-678,-724,-633,-592,-719,-660,-560,-557,-593,-519,-429,-395,-316,-167,-95,-164,77,135,161,160,223,292,258,282,482,556,461,473,400,481,1032,1547,1320,643,-30,-175,-64,-61,-78,4,141,234,331,389,475,603,782,876,632,319,132,35,-49,-114,-118,-279,-469,-514,-224,-64,-91,-116,-116,-125,-60,-9,-62,-28,-23,-40,-64,-7,-37,-58,-41,-32,-11,7,2,-20,-63,-104,-91,-68,-63,-72,-127,-64,258,832,1106,614
2018-09-18,14:26:35.491,-29,-362,-235,-27,-18,5,43,13,9,39,81,79,93,58,40,-6,-25,-48,-118,-173,-176,-218,-277,-315,-415,-438,-476,-514,-546,-659,-657,-694,-704,-717,-707,-742,-676,-623,-680,-777,-650,-474,-491,-564,-471,-388,-405,-448,-387,-329,-220,-163,-176,-31,201,710,1031,744,304,86,159,323,426,406,448,471,445,466,491,516,547,529,474,480,525,466,424,521,605,649,641,698,708,725,692,564,444,350,256,230,266,302,313,345,506,713,749,675,649,658,573,495,495,402,368,323,292,246,207,110,74,245,617,789,370,-134,-475,-460,-324,-264,-215,-207,-202,-154,-120,-109,-119,-140
2018-09-18,14:26:36.519,-71,-90,-108,-71,-31,-98,-67,-116,-130,-115,-16,-98,-198,-228,-321,-421,-396,-453,-601,-567,-512,-570,-705,-721,-699,-686,-699,-737,-750,-768,-703,-777,-762,-732,-764,-789,-755,-693,-729,-779,-687,-250,299,501,209,-235,-361,-197,6,80,42,119,225,278,257,273,353,364,340,329,313,327,328,358,356,421,515,516,597,650,590,476,376,258,124,149,209,210,269,244,121,55,23,19,39,72,-9,-82,-92,-116,-171,-241,-277,-308,-279,-271,-372,-442,-359,35,536,444,-168,-692,-749,-522,-404,-379,-307,-258,-255,-262,-212,-138,-130,-125,-89,-64,-39,-15,3,38,58,69,128,71,48,52
2018-09-18,14:26:37.547,83,-16,-15,35,49,-42,-105,-138,-136,-101,-218,-319,-245,-237,-293,-316,-299,-307,-240,-47,-34,-185,-220,-189,-214,-274,-309,-352,-344,159,826,891,282,-250,-344,-175,-63,29,99,117,161,173,258,161,320,554,688,723,726,747,716,606,522,462,397,326,305,325,315,209,160,139,108,193,521,677,560,380,143,-203,-470,-495,-338,-247,-178,-214,-269,-276,-233,-212,-150,-137,-33,6,-22,-123,-238,-56,571,1261,1210,379,-416,-562,-418,-366,-369,-349,-337,-356,-282,-239,-219,-162,-92,-61,-20,-44,28,102,142,137,173,157,154,183,201,167,111,89,111,98,61,44,-78,22,-8,-91
2018-09-18,14:26:38.575,-224,-141,-152,-206,-233,-229,-166,-198,-301,-364,-371,-333,-436,-476,-571,-640,-534,-561,-704,-670,-238,441,873,362,-347,-681,-528,-332,-242,-228,-161,-51,-26,33,188,252,295,355,469,498,547,613,583,529,503,530,545,351,322,445,552,592,667,706,607,500,412,334,278,243,292,273,153,76,37,11,-3,6,64,40,46,76,11,-108,-109,-147,-187,-203,-236,-332,-177,326,834,688,36,-487,-571,-282,-161,-188,-163,-151,-152,-158,-96,-22,2,0,-20,22,103,113,128,119,117,73,43,68,116,64,3,-47,-209,-287,-253,-287,-282,-271,-450,-497,-427,-416,-499,-483,-503,-508,-438,-511
2018-09-18,14:26:39.603,-598,-523,-444,-576,-692,-604,-609,-685,-754,-671,-747,-621,-153,342,466,71,-355,-411,-188,-23,32,100,198,300,377,425,445,461,499,552,559,560,546,553,485,451,435,491,553,588,620,604,583,592,572,522,484,409,353,287,285,307,204,82,24,-76,-163,-152,-111,-60,-58,-91,-65,-64,-144,-241,-278,-225,-150,-183,-315,-310,52,723,1117,593,-226,-651,-497,-338,-273,-277,-233,-187,-164,-156,-121,-62,0,68,132,115,141,155,97,44,-5,-40,-1,98,85,80,15,-82,-114,-124,-59,-153,-220,-235,-202,-211,-276,-367,-445,-408,-437,-423,-362,-426,-420,-374,-263,-317,-327,-288,-381,-398
2018-09-18,14:26:40.631,-335,-402,-409,-325,-398,-610,-607,6,977,998,390,-208,-330,-134,-34,-64,46,177,177,159,237,365,388,416,462,504,510,515,573,603,710,791,721,591,429,260,142,70,-33,-87,-175,-167,-175,-214,-212,-172,-153,-174,-150,-173,-150,-233,-210,-97,4,43,52,76,166,254,265,323,298,179,72,57,39,50,62,-33,-47,252,801,974,443,-169,-437,-320,-135,-81,-78,-32,1,56,45,96,140,148,98,97,53,-36,-7,34,-43,-118,-172,-170,-167,-264,-420,-479,-489,-555,-574,-569,-638,-644,-661,-632,-638,-680,-719,-689,-681,-687,-607,-609,-600,-402,-336,-378,-309,-219,-171,-164,-158,-117
2018-09-18,14:26:41.658,-74,-44,24,68,153,331,810,1253,1055,541,185,175,281,339,356,342,360,354,367,396,408,395,414,435,465,499,524,535,513,489,414,318,281,225,181,134,67,85,107,65,49,99,87,72,65,29,20,-12,-12,48,60,65,119,124,130,133,51,10,-3,-45,-147,-187,-159,-125,-144,-203,-140,137,644,881,434,-192,-553,-386,-211,-190,-206,-258,-228,-187,-201,-222,-186,-108,-235,-234,-261,-276,-359,-471,-437,-431,-449,-357,-385,-486,-476,-507,-507,-516,-607,-472,-381,-416,-486,-447,-415,-409,-255,-205,-199,-114,-22,-13,-53,-54,-21,-35,41,195,219,193,187,244,239,296,275,185
2018-09-18,14:26:42.686,325,833,1439,1461,789,81,-14,178,235,243,278,278,302,332,384,350,247,162,116,167,335,382,297,201,160,133,65,50,68,20,-19,-33,-60,-82,-67,-69,-27,-30,-22,-10,0,-27,-13,-15,-39,-20,32,85,142,158,146,131,73,132,126,46,-38,-54,-57,-98,-232,-362,-149,391,903,608,-199,-765,-779,-633,-549,-549,-611,-615,-599,-562,-626,-622,-511,-506,-491,-575,-547,-490,-521,-447,-376,-334,-315,-331,-318,-244,-226,-257,-198,-16,37,29,113,182,220,268,310,379,455,440,482,500,469,518,583,599,562,537,538,493,404,342,318,332,332,207,96,194,612,1181,1147,472
2018-09-18,14:26:43.714,-60,-134,0,66,71,78,73,20,1,-25,0,-14,-43,-58,-53,-34,-20,-24,-8,15,75,120,136,142,94,42,-3,-93,-122,-127,-142,-110,-98,-106,-126,-93,-27,-1,56,143,228,253,246,293,230,124,66,60,-80,-242,-300,-238,-342,-417,-553,-487,-115,470,452,-246,-873,-988,-848,-861,-832,-753,-887,-904,-883,-871,-819,-778,-763,-702,-606,-575,-553,-451,-390,-361,-255,-147,-91,-70,0,56,78,166,228,247,312,395,463,494,512,515,472,473,546,530,523,502,555,535,495,491,505,513,469,318,151,154,221,140,72,309,759,1205,992,361,-79,33,158,101,25,-62,-55,-4
2018-09-18,14:26:44.742,28,63,21,42,22,-30,-29,-36,-66,-73,-65,-61,-24,22,7,2,-67,-83,-24,0,21,20,0,-14,-28,-40,-72,-109,-102,-35,20,43,89,168,220,170,154,213,206,158,27,-65,-58,-174,-370,-439,-265,326,882,716,-61,-723,-722,-565,-495,-483,-500,-548,-546,-445,-440,-462,-454,-382,-431,-425,-438,-414,-391,-370,-306,-261,-201,-145,-69,-79,-57,-23,6,17,44,53,79,126,158,244,282,304,425,507,498,487,506,478,398,348,336,276,217,136,77,42,-137,-316,-160,427,1175,1302,719,160,10,141,232,77,-119,-229,-323,-507,-694,-783,-651,-202,180,283,259,165,79,45
2018-09-18,14:26:45.770,-36,37,83,75,93,77,48,-9,-41,-26,-37,-103,-210,-341,-394,-359,-262,-49,53,27,24,38,57,66,69,64,-6,-101,-153,-160,-125,-127,-323,-444,-187,492,1130,989,103,-648,-648,-528,-599,-606,-554,-554,-549,-503,-515,-569,-568,-497,-463,-634,-597,-420,-406,-395,-381,-351,-243,-225,-112,-81,-102,-110,-42,5,-85,39,171,182,142,175,276,360,418,511,592,697,790,859,907,949,955,913,844,783,693,542,353,458,1141,1928,1956,1281,588,526,576,338,60,84,182,290,329,372,409,391,365,308,289,307,253,211,164,146,178,196,241,264,239,203,202,205,213,180,93,-34
2018-09-18,14:26:46.798,-24,-96,-166,-182,-213,-233,-165,-155,-142,-124,-93,-114,-156,-167,-213,-265,-280,-448,-738,-721,-277,398,474,-216,-916,-1114,-931,-866,-872,-782,-848,-802,-785,-845,-952,-901,-812,-763,-721,-788,-795,-708,-745,-860,-767,-634,-492,-486,-541,-498,-416,-463,-439,-286,-211,-264,-279,-230,-93,-20,-26,8,93,130,227,313,392,421,422,409,406,424,406,282,114,280,748,1150,914,359,-50,-158,-76,-13,-18,-63,-46,-27,-79,-107,-77,-38,-11,20,31,44,83,91,125,122,51,0,-18,-77,-135,-216,-274,-294,-287,-234,-189,-207,-229,-227,-233,-243,-279,-295,-205,-137,-138,-129,-80,-82,-97,-95,-98,-72
2018-09-18,14:26:47.826,-117,-216,-204,179,807,1069,609,55,-185,-70,33,49,0,-8,-35,-60,-58,-78,-62,-51,-40,-72,-72,-136,-251,-200,-127,-56,-59,-114,-57,-64,-156,-155,-154,-120,-51,40,63,-21,59,252,377,359,356,441,423,505,505,515,489,448,501,484,437,403,312,277,480,959,1469,1270,603,158,223,360,387,341,308,282,272,236,218,190,181,217,270,270,167,171,226,216,261,335,327,315,350,315,251,131,39,10,-64,-110,-125,-163,-224,-265,-301,-286,-231,-129,-124,-157,-144,-184,-289,-364,-416,-420,-398,-428,-532,-555,-153,505,880,401,-296,-646,-450,-283,-266,-325,-282,-298,-269,-202
2018-09-18,14:26:48.854,-302,-278,-278,-325,-401,-360,-337,-384,-376,-327,-391,-459,-465,-415,-370,-356,-428,-398,-430,-481,-456,-433,-393,-461,-385,-230,-247,-253,-233,-151,-50,-13,37,51,71,142,143,136,126,182,160,128,252,671,1131,1017,526,100,34,209,275,263,237,271,256,273,280,301,335,332,325,315,295,302,351,371,371,409,451,466,409,401,383,298,227,127,77,36,5,10,-10,-50,-97,-69,-60,-77,-94,-108,-75,-101,-170,-231,-248,-273,-314,-334,-310,-290,-296,-401,-339,-6,574,771,280,-222,-393,-186,-80,-85,-55,-7,-27,-62,-105,-141,-159,-201,-256,-236,-217,-232,-214,-247,-348,-334,-343,-385
2018-09-18,14:26:49.882,-312,-357,-424,-382,-420,-457,-459,-449,-465,-436,-365,-383,-408,-353,-364,-317,-237,-207,-95,15,33,71,160,251,330,302,180,208,223,192,226,329,284,234,382,823,1326,1241,571,-14,-79,91,117,52,-8,33,43,28,76,130,184,164,172,184,140,208,369,323,236,154,109,133,194,134,71,99,120,89,51,1,-46,-42,-19,-66,-117,-87,-84,-59,-94,-69,-61,-118,-116,-136,-134,-128,-102,-34,17,74,72,120,116,42,68,135,154,69,39,24,57,-4,-72,-107,16,471,849,401,-250,-630,-645,-456,-460,-562,-454,-410,-436,-432,-390,-376,-532,-477,-427,-384,-407,-362,-295,-348
2018-09-18,14:26:50.909,-310,-197,-179,-276,-160,-31,-50,-79,-23,-32,-25,21,56,122,191,204,210,281,316,324,307,298,329,337,312,292,292,289,288,255,202,161,171,213,191,140,153,178,171,125,169,251,251,195,204,193,215,239,183,136,115,42,-16,11,294,850,1187,784,61,-423,-374,-155,-71,-122,-138,-75,-23,-46,-31,40,31,2,26,45,72,65,97,164,121,79,23,-28,-12,13,20,-19,-118,-191,-213,-269,-308,-340,-352,-399,-510,-476,-464,-461,-486,-540,-549,-557,-547,-591,-626,-540,-424,-473,-461,-423,-455,-445,-353,-329,-249,-133,-430,-541,-243,-299,173,798,603,289,208,154,170,174
2018-09-18,14:26:51.937,180,154,106,337,993,1450,1135,450,-121,-57,238,284,173,136,147,136,76,95,156,222,276,284,303,344,348,336,284,244,254,292,214,197,151,122,61,-125,-117,-25,-9,-39,-61,-98,-116,-197,-195,-179,-139,-97,-107,-51,0,-10,54,16,-29,-40,27,1,13,78,149,37,-57,27,53,-49,-141,-105,-70,-166,-296,-415,-316,397,1276,1455,469,-715,-1015,-634,-655,-675,-744,-675,-511,-519,-490,-540,-528,-397,-437,-455,-465,-410,-240,-491,-575,-116,72,34,92,258,201,152,205,195,229,275,291,291,298,319,363,339,323,309,212,153,148,174,187,143,153,209,170,168,236,250
2018-09-18,14:26:52.965,241,287,258,125,31,-49,-34,-47,-93,-212,-233,13,549,786,378,-180,-474,-406,-174,-126,-237,-206,-118,3,102,10,-85,-38,101,219,263,306,350,358,378,394,376,358,361,387,356,289,217,127,128,96,-35,0,-28,-110,-103,-34,-79,-120,-139,-124,-205,-222,-217,-248,-343,-344,-287,-343,-399,-348,-316,-461,-584,-628,-686,-622,-702,-776,-718,-298,368,523,-135,-798,-924,-766,-639,-592,-573,-410,-314,-301,-319,-188,-27,33,-45,-11,260,343,342,375,418,459,491,542,602,715,712,633,629,615,596,544,462,425,378,277,216,256,243,168,219,340,394,389,345,259,247,235,177,68
2018-09-18,14:26:53.993,3,2,64,32,-9,-10,-66,-236,-389,-212,505,1438,1586,718,-453,-814,-505,-397,-523,-647,-612,-561,-495,-398,-339,-256,-287,-282,-176,-203,-231,-119,-17,90,144,150,195,255,292,295,252,268,235,45,-93,-9,121,47,-59,-37,-22,-62,-45,-73,-36,-11,-105,-130,-80,-97,-151,-161,-201,-254,-311,-368,-426,-488,-437,-384,-620,-704,-381,404,1221,937,-81,-859,-794,-507,-437,-392,-281,-230,-208,-102,-55,1,4,71,169,234,295,346,386,357,324,317,313,343,319,266,203,152,172,239,215,171,153,173,122,91,69,56,2,15,66,85,91,93,93,137,189,110,123,136,56,62
2018-09-18,14:26:55.021,11,-83,-165,-203,-257,-279,-75,506,1088,837,26,-539,-575,-368,-249,-192,-179,-238,-202,-146,-89,-28,15,19,45,91,56,93,85,47,14,33,124,152,94,163,163,-57,-57,20,-72,-96,-24,-79,-148,-202,-278,-355,-328,-376,-441,-481,-491,-493,-432,-501,-532,-528,-482,-520,-565,-579,-679,-619,-590,-608,-631,-397,216,702,539,-36,-487,-473,-236,-237,-205,-352,43,545,486,450,421,386,390,437,487,504,513,564,572,545,516,518,530,525,499,467,459,455,455,452,445,459,451,419,430,391,359,322,297,286,271,309,365,392,357,320,265,234,215,140,87,79,41,-134,-131,194
2018-09-18,14:26:56.049,747,965,390,-254,-528,-375,-253,-165,-134,-91,-65,-49,-47,-23,18,44,53,49,38,43,-67,-156,-111,-36,-113,-150,-114,-268,-332,-298,-379,-470,-499,-433,-400,-465,-499,-532,-552,-528,-538,-525,-523,-572,-472,-420,-399,-475,-457,-423,-323,-444,-608,-469,-373,-447,-542,-401,81,792,1123,693,80,-96,151,299,334,395,447,475,489,475,450,382,327,426,433,333,302,313,260,104,-92,-259,-307,-346,-411,-486,-387,-62,330,741,814,447,148,-26,-145,-152,-166,-153,-100,24,270,375,252,115,-20,-143,-208,-220,-207,-212,-223,-354,-471,-303,293,952,873,40,-729,-830,-572,-434,-336,-246,-273,-246
2018-09-18,14:26:57.077,-157,-83,-22,83,121,178,239,155,112,153,120,142,172,233,236,143,112,84,49,104,77,-23,-79,-137,-267,-280,-249,-185,-329,-408,-335,-312,-326,-378,-411,-436,-586,-613,-635,-611,-556,-593,-656,-730,-505,92,534,290,-223,-572,-554,-302,-264,-202,-162,-89,-8,26,50,204,296,386,348,448,599,674,706,655,563,483,494,486,393,381,370,293,243,243,245,230,175,109,71,-12,-172,-83,144,269,360,460,429,385,392,335,254,205,215,218,76,-31,171,684,1004,596,32,-326,-264,-149,-138,-129,-119,-142,-200,-219,-166,-150,-128,-102,-99,-71,-98,-69,-34,16,72,83,119,102
2018-09-18,14:26:58.105,11,52,32,-26,-14,-74,-84,-46,10,-11,-78,10,-46,-186,-160,-42,-45,-229,-329,-213,-197,-374,-455,-557,-598,-673,-778,-756,-211,655,724,-86,-720,-689,-616,-554,-493,-446,-435,-408,-235,-138,-176,-125,-106,79,158,305,388,372,478,660,823,848,858,879,898,888,851,822,816,783,772,754,690,649,649,649,585,535,608,681,607,534,537,464,229,-119,-396,-406,-181,-110,-106,268,958,1351,871,49,-372,-116,141,221,129,104,98,51,47,6,-21,60,-146,-195,-53,-127,-185,-284,-339,-373,-375,-354,-386,-372,-359,-375,-369,-343,-298,-284,-291,-292,-394,-374,-289,-390,-362,-329,-341,-371
2018-09-18,14:26:59.133,-400,-412,-370,-412,-464,-537,-632,-784,-929,-1124,-959,-482,29,8,-541,-1068,-1196,-1100,-1084,-999,-971,-1035,-995,-955,-923,-879,-902,-826,-694,-704,-566,-475,-525,-443,-284,-137,-99,-51,-215,-512,-521,169,751,1081,1097,977,926,954,1066,1128,1087,1082,1064,1053,937,708,534,428,302,202,117,154,164,-25,-154,-8,499,1035,978,516,57,-18,206,336,431,428,261,219,194,92,124,83,140,140,37,64,90,-80,-68,96,72,-59,-103,-86,-68,-32,-21,67,166,235,208,241,225,174,223,209,127,83,44,10,-111,-60,-2,-108,-189,-184,-163,-214,-251,-554,-347,381,895,708,93,-509,-772,-563
2018-09-18,14:27:00.160,-500,-489,-443,-562,-506,-599,-403,-502,-557,-320,-234,-185,-182,-276,-219,-172,-237,-149,16,0,-49,-30,20,11,-105,-51,-6,-3,3,-72,41,173,92,71,251,385,372,280,326,362,395,402,321,258,301,312,271,468,1057,1816,1528,215,-739,-841,-594,-512,-458,-192,46,188,319,332,309,239,218,378,573,598,685,772,695,549,433,327,283,244,152,68,47,12,-70,-88,-47,-57,4,-40,-220,-246,-230,-284,-380,-446,-494,-617,-601,-428,-294,-210,-165,-133,-122,-163,-270,-356,-165,469,1006,814,152,-421,-433,-288,-218,-290,-307,-354,-511,-471,-406,-457,-559,-643,-579,-489,-562,-636,-502,-470
2018-09-18,14:27:01.188,-577,-534,-423,-335,-266,-315,-328,-232,-196,-130,-57,-55,-3,-5,126,178,111,137,111,145,290,277,294,374,406,431,460,530,561,503,375,229,160,117,29,-44,441,1105,1546,1347,398,-381,-489,-265,-221,-204,-172,-161,-65,-36,-114,-130,-123,-161,-95,103,259,249,172,101,129,187,215,271,324,301,226,203,186,71,-41,-91,-37,-41,-120,-142,-84,-78,-76,11,35,-89,-167,-119,-35,-32,-37,43,99,84,8,62,68,-1,-1,-24,-30,-69,-227,-214,-216,-277,-223,-376,-351,49,926,1370,717,-394,-928,-799,-769,-660,-597,-630,-710,-685,-624,-652,-669,-501,-392,-465,-442,-395,-356,-280
2018-09-18,14:27:02.216,-364,-277,-176,-86,-100,-84,-48,25,112,188,201,227,265,277,298,304,352,410,476,528,539,494,296,180,173,41,4,38,40,75,185,309,357,389,627,887,626,398,320,172,9,-69,-115,-181,-315,-342,-117,494,1044,776,57,-474,-506,-281,-213,-216,-204,-220,-188,-208,-247,-154,-81,-142,-120,-50,5,39,37,26,43,-39,-44,-23,106,117,67,17,-101,-114,-155,-76,-250,-310,-203,-263,-331,-411,-458,-449,-487,-366,-462,-456,-362,-391,-401,-372,-242,-236,-246,-318,-226,-183,-130,-183,-244,-183,-112,-141,-208,-122,395,1157,1369,884,229,-36,188,445,575,577,621,637,599,607,585,540
2018-09-18,14:27:03.244,571,621,667,660,637,659,675,598,504,431,365,345,299,194,11,-207,-138,-50,-44,-103,-102,48,197,314,466,414,300,337,467,437,321,248,250,238,188,175,242,201,101,132,43,-88,-148,-242,-370,-418,-467,-545,-296,515,1610,1823,918,-478,-997,-658,-486,-537,-618,-642,-562,-570,-601,-582,-518,-466,-443,-484,-513,-390,-377,-419,-535,-556,-543,-522,-664,-571,-654,-642,-739,-683,-795,-837,-659,-590,-618,-622,-619,-671,-591,-593,-582,-417,-417,-378,-339,-230,-116,-42,109,168,181,238,260,359,385,337,271,305,322,204,62,160,604,1160,1127,450,41,83,354,541,557,478,324,224,250,232
2018-09-18,14:27:04.272,36,-126,-220,-487,-743,-948,-861,-840,-980,-676,-72,418,594,630,558,494,459,501,558,540,484,417,379,344,182,88,65,-3,17,2,-62,-69,20,49,37,173,176,149,109,8,-17,-61,-70,-131,-188,-121,-108,-307,-492,-192,468,1014,647,-250,-857,-860,-715,-668,-614,-633,-594,-488,-595,-549,-420,-376,-326,-274,-179,-187,-235,37,128,47,41,107,201,242,331,399,450,477,477,491,603,691,720,776,818,765,730,744,716,705,704,685,614,520,525,601,596,751,1121,1037,845,693,573,561,507,269,-22,-202,128,803,903,47,-1060,-1955,-1879,-1094,-345,50,121,82,27,-56,-144,-195
2018-09-18,14:27:05.300,-187,-135,-178,-274,-310,-309,-344,-350,-429,-434,-389,-360,-303,-331,-271,-153,-150,-114,-19,-96,-154,-244,-232,-311,-319,-302,-229,-229,-297,-331,-336,-312,-267,-105,-64,-321,-408,-265,-328,-449,-449,-400,-479,-600,-694,-819,-630,284,1189,1153,284,-725,-806,-638,-615,-600,-593,-550,-393,-256,-175,-92,-15,51,175,279,380,461,514,542,562,549,537,532,624,642,549,485,418,416,393,342,316,280,271,327,430,504,591,569,581,762,1028,860,467,42,-376,-949,-1328,-1014,-693,-383,-225,-182,-114,-97,-126,-116,260,1036,1558,1011,-47,-744,-623,-384,-338,-367,-377,-389,-343,-306,-240,-185,-117,-102,-127,-72
2018-09-18,14:27:06.328,-126,-107,-122,-220,-158,-119,-149,-161,-145,-168,-173,-245,-203,-185,-147,-321,-333,-324,-381,-335,-176,-147,-292,-410,-386,-312,-262,-282,-265,-115,-30,-151,-124,-39,-223,-198,-193,-154,-7,-27,-94,97,830,1660,1409,559,39,224,413,415,373,431,482,485,428,461,498,569,666,680,668,628,518,572,662,710,797,891,926,820,681,650,804,852,722,519,368,99,-202,-531,-866,-1141,-967,-400,-22,-8,38,200,300,322,327,220,152,122,76,-55,-196,-169,-237,-506,-594,-33,858,1272,859,-299,-862,-606,-529,-655,-671,-619,-619,-545,-368,-229,-402,-610,-582,-573,-612,-618,-531,-469,-529,-551,-490,-464
2018-09-18,14:27:07.356,-520,-540,-496,-639,-607,-440,-468,-632,-673,-624,-682,-671,-646,-573,-607,-714,-784,-729,-533,-472,-342,-113,69,-181,-14,159,72,0,168,165,-50,70,620,1312,1540,1005,270,-59,101,256,335,316,372,464,479,418,390,462,530,566,535,486,524,522,469,497,516,490,404,212,-35,-354,-668,-820,-834,-921,-1060,-917,-896,-253,428,734,765,655,408,173,51,58,38,-109,-280,-269,-77,67,76,108,192,200,124,364,993,1413,990,88,-506,-481,-316,-331,-303,-215,-101,-246,-282,-164,-110,-234,-207,-118,-132,-199,-260,-200,-303,-445,-307,-275,-345,-294,-237,-173,-127,-426,-502,-297,-154,-279,-271,-71
2018-09-18,14:27:08.384,-99,-210,-210,-92,-4,64,48,94,138,121,75,47,54,79,205,139,-16,130,701,1308,1266,665,149,18,203,233,254,285,276,348,381,306,200,44,65,275,360,352,345,281,168,172,174,182,250,165,115,141,82,111,66,107,87,81,265,304,233,164,149,194,210,256,142,138,134,18,-172,-385,-501,-392,-346,-255,-202,137,874,1493,1241,313,-517,-577,-471,-468,-426,-381,-317,-307,-362,-320,-204,-147,-216,-302,-325,-309,-164,-224,-386,-292,-192,-247,-281,-249,-323,-330,-333,-356,-295,-343,-331,-296,-414,-338,-167,-223,-258,-127,-30,-152,-18,88,69,38,40,10,-18,-29,3,-127
2018-09-18,14:27:09.411,-186,137,852,1351,961,114,-464,-252,-77,-101,-176,-202,-143,-42,54,78,42,17,41,74,109,161,181,163,143,16,-47,126,304,241,146,106,0,-42,-40,-50,-13,11,8,-62,-63,-36,-93,-164,-85,-35,-88,-122,-143,-142,-179,-230,-335,-506,-482,-410,-223,273,1019,1670,1594,870,-33,-314,-205,-153,-186,-222,-236,-195,-186,-241,-224,-137,-58,-63,-119,-1,-133,-143,-38,-74,-4,-45,-37,9,-33,-6,-10,-142,-182,-106,-169,-165,-93,-189,-189,-36,-47,-186,-29,59,4,-41,10,66,63,46,82,102,70,-2,-37,-34,6,3,-132,-120,328,1099,1467,844,-138,-687,-508,-364,-311,-262
2018-09-18,14:27:10.439,-274,-265,-206,-151,-93,-93,-118,-120,-91,-46,-29,22,91,131,112,124,183,195,211,218,193,144,153,216,225,213,145,51,-6,23,18,-64,-69,-54,-53,-115,-89,-10,-5,-19,5,65,115,183,145,102,168,223,144,161,218,216,28,36,71,-1,7,-74,-252,-198,-133,-322,-284,273,932,916,-29,-785,-890,-693,-535,-574,-630,-552,-511,-466,-402,-480,-428,-288,-280,-272,-221,-162,-79,-102,-107,-20,89,86,136,184,179,149,149,149,156,175,191,207,229,245,223,217,215,192,180,187,171,153,168,185,164,155,162,135,110,159,169,113,57,126,158,99,94,89,70,31
2018-09-18,14:27:11.467,-35,-43,-51,-73,-198,-185,73,644,1066,751,60,-485,-532,-337,-256,-256,-221,-202,-254,-301,-179,-98,-49,34,75,73,71,119,162,155,172,135,63,-23,-49,-3,33,52,76,92,-56,-104,31,44,-76,-127,-59,-61,-141,-140,-148,-314,-389,-291,-271,-343,-306,-316,-296,-298,-232,-199,-191,-130,-59,-122,-151,-110,-146,-134,-56,16,37,18,294,891,1493,1207,491,-61,23,175,220,263,298,295,268,336,369,416,486,475,483,546,550,581,581,497,380,312,285,261,201,137,72,-7,-68,-32,39,90,155,230,294,333,359,363,343,358,379,330,197,204,225,173,98,64,16,-41
2018-09-18,14:27:12.495,-19,-80,-178,-300,-323,-216,-162,-196,-249,-202,-282,-314,-323,-290,-297,-287,-215,-215,-235,-253,-284,-348,-257,-321,-444,-434,-457,-476,-397,-354,-400,-359,-347,-477,-510,-429,-502,-653,-687,-713,-685,-823,-1128,-1111,-428,768,1234,609,-485,-1333,-1197,-1067,-856,-681,-620,-588,-531,-443,-354,-264,-199,-113,10,90,156,236,305,371,421,420,402,443,501,509,454,405,367,343,376,331,264,225,169,161,175,128,81,112,101,48,1,8,61,101,81,41,50,67,-6,47,110,47,21,71,100,90,135,105,69,63,31,-6,13,13,-23,9,24,59,72,42,78,90,96,93,97,125,168,83
2018-09-18,14:27:13.523,58,55,36,24,13,-15,-75,-197,-296,-384,-560,-344,403,1018,788,-50,-764,-1019,-925,-797,-670,-811,-831,-613,-633,-695,-532,-430,-386,-411,-336,-231,-160,-6,178,217,342,391,416,485,561,619,649,676,734,772,792,820,865,896,930,905,907,875,812,785,769,772,720,691,739,768,684,541,441,362,301,251,175,132,168,147,155,153,206,214,213,212,213,233,216,182,187,180,141,83,77,147,78,3,2,-33,-125,-269,-376,-408,-471,-589,-692,-468,209,1079,1035,124,-766,-996,-765,-625,-678,-701,-659,-689,-748,-690,-589,-651,-693,-632,-503,-483,-422,-337,-291,-224,-305,-311,-343,-443
2018-09-18,14:27:14.551,-435,-405,-499,-592,-439,-492,-479,-474,-551,-500,-356,-383,-365,-308,-312,-368,-221,-150,-194,-239,-200,-60,62,28,2,19,76,157,175,208,223,237,314,347,353,402,453,426,389,350,282,200,184,160,116,63,-94,-207,121,1114,1938,1654,505,-636,-650,-346,-302,-324,-356,-381,-290,-234,-210,-129,-14,7,0,29,56,55,46,40,127,166,174,229,232,212,178,152,31,-149,-111,67,120,145,185,219,218,195,222,199,128,209,233,253,212,175,160,128,63,54,65,137,102,61,59,42,6,128,123,54,51,22,-77,-104,-8,-85,-262,-282,-218,-382,-541,-654,-651,18,1086,1535
2018-09-18,14:27:15.579,710,-553,-1265,-992,-790,-889,-731,-630,-635,-621,-604,-502,-353,-307,-249,-180,-130,-96,-52,39,146,189,214,243,289,347,345,355,388,375,347,324,293,283,290,271,249,237,260,263,204,180,155,136,121,48,55,45,86,81,76,1,44,70,85,140,197,235,186,145,133,134,134,71,49,36,17,-111,-20,509,1329,1640,857,-318,-899,-613,-369,-319,-320,-272,-210,-143,-192,-146,-86,-35,-40,-34,-3,63,91,12,61,126,116,39,37,6,-25,-77,-73,-134,-51,-15,-152,-170,-101,-31,-59,-136,-183,-142,-146,-183,-177,-25,-46,-88,-85,-186,-101,-45,-98,-206,-20,99,47,-10
2018-09-18,14:27:16.607,-41,-16,-28,-56,-85,-79,-70,-75,-99,-193,51,753,1386,1150,284,-400,-555,-375,-251,-193,-193,-184,-162,-106,-52,-88,-22,10,-54,-19,30,92,124,121,106,29,-11,4,-6,-52,-129,-90,-36,-62,-63,-61,-6,17,-12,-4,32,23,12,-37,-46,-17,-40,-86,-90,-74,-53,-9,-13,-46,-15,32,84,83,72,144,153,78,23,0,4,36,-95,-165,70,784,1593,1498,482,-597,-852,-518,-352,-346,-285,-233,-218,-146,-155,-117,-59,-120,-93,75,170,104,131,98,160,87,122,125,173,23,-44,-20,35,14,-30,-49,-89,-96,-46,6,0,21,72,105,128,108,73,34,-8,-29
2018-09-18,14:27:17.635,8,21,18,38,75,130,110,93,68,21,-32,-16,13,-53,-98,-177,-274,-170,395,1288,1487,606,-470,-959,-745,-555,-465,-391,-332,-292,-264,-219,-195,-110,-39,-19,20,129,203,246,263,166,102,189,142,107,140,38,-123,-228,-358,-474,-406,-463,-478,-431,-501,-454,-442,-527,-484,-524,-622,-611,-615,-550,-607,-646,-523,-355,-330,-334,-275,-144,-128,-158,-48,92,-48,-68,-20,103,80,87,27,2,257,953,1721,1652,801,-51,-192,92,184,183,210,266,276,289,369,352,378,388,353,328,360,407,433,497,478,381,312,267,216,160,80,87,148,156,105,83,82,-4,8,36,-30,14
2018-09-18,14:27:18.662,61,-19,-19,-18,-43,-78,-111,-161,-144,-106,-99,-25,51,32,87,173,223,256,186,80,32,42,-10,20,10,-86,-234,-212,223,1105,1512,863,-122,-681,-696,-519,-469,-395,-395,-410,-361,-365,-329,-309,-375,-447,-389,-362,-404,-455,-320,-272,-359,-404,-428,-311,-346,-358,-383,-318,-233,-177,-205,-197,-96,-25,-20,5,32,91,164,219,220,236,246,252,284,308,304,383,413,412,479,469,424,406,373,315,244,161,102,69,90,69,-13,-53,206,854,1320,847,-30,-652,-557,-361,-335,-312,-299,-304,-296,-276,-234,-185,-151,-150,-95,-58,-49,-22,5,-4,24,37,44,58,12,-1,6,-29
2018-09-18,14:27:19.690,-91,-131,-153,-145,-141,-121,-58,12,42,24,29,81,121,122,114,61,44,34,105,73,22,64,89,131,159,141,183,186,122,78,3,33,74,8,-202,-271,69,887,1403,958,-15,-995,-1120,-797,-719,-727,-640,-676,-678,-596,-605,-558,-422,-308,-345,-327,-243,-26,4,-64,-125,7,87,85,83,54,67,90,96,125,192,308,300,298,345,340,352,414,359,255,205,198,200,232,296,338,390,506,585,622,631,564,410,290,221,91,-95,-230,-253,-310,-333,-520,-611,-481,89,1112,1818,1444,208,-1009,-1036,-606,-405,-481,-518,-461,-430,-415,-373,-309,-252,-233,-192,-154,-146,-249,-298,-372
2018-09-18,14:27:20.718,-253,25,319,406,362,271,183,62,-4,-3,-22,-68,-113,-154,-172,-108,-91,-90,-144,-200,-92,-118,-236,-211,-131,-103,-350,-426,-257,-257,-310,-342,-349,-340,-496,-636,-557,-489,-391,-516,-675,-466,312,1420,1733,814,-424,-733,-466,-289,-96,32,37,168,293,282,301,440,539,608,628,578,520,614,637,603,556,537,564,694,790,858,901,840,788,738,678,626,489,404,301,101,-77,-242,-472,-593,-426,-188,5,101,112,108,167,168,207,278,208,123,83,-7,-36,33,-6,-230,-202,433,1364,1578,724,-599,-1192,-824,-549,-591,-535,-465,-464,-414,-360,-333,-273,-214,-205,-211,-26,55,41,29
2018-09-18,14:27:21.746,43,46,20,6,27,7,-84,-277,-327,-143,-186,-428,-240,-30,-24,-134,-183,-220,-297,-313,-286,-349,-544,-299,-34,116,-7,0,-56,-81,-158,-227,-211,-115,-160,-212,-278,-290,-39,677,1445,1199,219,-637,-716,-499,-419,-398,-435,-476,-498,-480,-451,-442,-427,-417,-382,-361,-316,-272,-233,-183,-195,-205,-141,-86,-45,-92,-156,-106,-64,1,-40,-51,-102,-69,-23,-25,-7,42,70,103,110,44,100,107,79,56,36,-41,-65,-85,-112,-114,-103,-18,-108,-112,315,888,1028,533,22,-200,-46,68,96,34,17,36,-6,-77,-85,-49,-55,-126,-159,-135,-191,-253,-303,-283,-277,-408,-389,-176,-256,-390
2018-09-18,14:27:22.774,-246,4,-14,-83,-211,-135,-64,-497,-8,222,318,257,-38,-366,-303,756,795,1022,718,567,354,68,-294,-125,751,1825,1278,742,1142,1960,2354,1700,496,-419,-386,-180,-159,-238,-322,-384,-396,-465,-455,-469,-506,-422,-337,-243,-166,-300,-161,-124,-155,-66,-92,9,27,-56,-67,-49,-101,-128,-156,-147,-93,-118,-48,-65,-115,-69,26,299,457,38,-368,-279,75,338,423,432,265,160,88,25,-210,-258,228,712,435,-339,-980,-775,-380,-274,-132,-49,-66,32,139,95,43,44,156,129,9,-23,-156,-59,198,147,66,111,176,173,159,89,129,109,-202,-182,284,449,396,151,458,471,195,39
2018-09-18,14:27:23.802,470,358,351,746,690,640,485,545,633,649,650,484,12,-430,-138,1093,1861,1469,-112,-1400,-1017,-682,-628,-627,-672,-619,-576,-529,-511,-457,-405,-350,-256,-303,-245,-89,-38,-54,-49,0,97,118,116,106,21,-79,-101,-185,-155,-93,-102,-145,-172,-192,-181,-216,-237,-114,110,444,527,401,179,-58,-231,-376,-524,-575,-397,-140,-140,-478,-619,-196,494,706,13,-1130,-1680,-1450,-1244,-1169,-1129,-1123,-1080,-1035,-931,-907,-935,-812,-717,-739,-733,-683,-630,-599,-505,-396,-314,-274,-190,-396,-228,137,219,100,100,200,266,308,404,503,448,334,440,654,797,826,822,883,1046,956,968,925,806,693,558,410
2018-09-18,14:27:24.830,304,217,18,0,436,1154,1403,675,-206,-594,-428,-267,-285,-220,-126,-71,-21,-33,-36,0,124,131,124,229,279,277,332,369,366,362,432,408,412,316,293,311,369,336,263,237,182,224,255,248,254,252,249,286,248,169,98,47,-9,86,274,285,149,13,-108,-180,-359,-499,-352,163,639,432,-255,-808,-897,-742,-663,-665,-716,-727,-650,-638,-627,-572,-519,-566,-525,-505,-517,-460,-454,-686,-489,-141,-97,-120,-51,53,71,-152,-345,163,159,275,278,217,412,389,257,454,335,617,661,598,687,757,683,563,623,588,419,334,263,152,25,-32,-162,-299,-26,763,1388,993,-55,-893
2018-09-18,14:27:25.858,-639,-467,-427,-401,-407,-382,-311,-244,-159,-95,-33,17,33,30,85,159,120,136,120,123,219,172,135,179,57,-25,33,46,54,51,62,106,147,376,585,694,324,26,-340,-432,-128,56,-44,-91,61,263,383,457,368,-16,-260,-279,-419,-603,-704,-640,-708,-760,-459,314,946,605,-348,-1180,-1204,-886,-841,-872,-738,-688,-720,-738,-670,-602,-610,-770,-603,-222,-192,-111,-20,29,-78,-101,-3,-38,-163,-153,316,687,573,310,57,416,801,570,625,699,724,701,743,807,857,887,869,688,454,254,94,-5,-37,-69,-166,-180,-126,-114,-101,-174,-159,-114,0,-19,-83,-126,-80,-74,-86,-110
2018-09-18,14:27:26.886,40,-14,-155,18,614,1310,1244,438,-366,-494,-278,-177,-159,-105,-31,4,15,49,89,81,100,122,88,140,145,153,192,152,92,136,192,242,226,248,195,175,153,119,69,-4,-139,-184,-134,-168,-223,-287,-413,-471,-512,-558,-609,-644,-732,-795,-809,-839,-848,-870,-843,-782,-781,-724,-661,-650,-548,-469,-511,-474,-406,-345,-332,-397,-448,-290,-382,-546,-227,-118,293,1272,1625,1225,566,-39,-452,-35,372,708,737,684,629,597,620,680,645,553,505,493,532,470,408,442,370,278,270,180,101,61,109,41,-28,-130,-99,-19,25,-7,36,75,32,16,28,55,77,96,121,86,89,52
2018-09-18,14:27:27.913,49,35,35,120,251,273,245,307,212,210,162,84,18,32,116,-42,-197,-74,341,838,781,142,-452,-545,-275,-118,-130,-135,-156,-196,-185,-166,-166,-190,-215,-232,-236,-284,-318,-358,-427,-457,-493,-519,-557,-550,-503,-588,-794,-767,-592,-583,-571,-660,-668,-551,-417,-421,-678,-449,-217,-260,-108,69,106,-119,-101,134,34,186,592,637,379,549,687,636,718,766,686,608,631,633,589,479,382,332,282,129,180,530,1074,1269,685,-49,-402,-209,-166,-175,-106,-125,-222,-114,-22,-4,114,112,47,146,152,173,185,246,236,274,281,269,250,231,195,162,210,237,251,243,383,324,263,224
2018-09-18,14:27:28.941,204,241,355,431,427,415,442,330,71,-36,-13,86,119,94,61,4,-82,-164,-223,-239,-233,-266,-359,-399,-397,-465,-519,-533,-614,-736,-832,-817,-810,-930,-1137,-934,-703,-601,-205,510,563,-259,-992,-1061,-1371,-1529,-701,66,-251,-1357,445,398,-2752,-367,2831,937,-323,1141,1409,977,857,795,915,819,693,831,891,856,707,474,255,162,38,-103,-291,-332,-508,-612,-597,-543,-476,-483,-502,-359,-319,-284,-269,-256,-231,-195,-249,-312,-239,-170,-160,-152,-164,-128,-107,-47,-61,-66,14,-120,-256,-252,-277,-283,-137,-164,-185,35,737,1442,1064,120,-638,-732,-497,-348,-332,-347,-364,-432,-460,-448,-407,-380
2018-09-18,14:27:29.969,-397,-346,-313,-323,-355,-260,-204,-225,-219,-216,-240,-237,-215,-180,-178,-199,-406,-744,-408,268,487,290,266,363,380,122,-288,406,892,859,798,841,676,265,397,515,448,1235,2031,1643,1199,1091,1170,1262,1244,1079,1003,1024,722,309,97,522,1667,2239,1530,-223,-1336,-827,-438,-387,-370,-245,-143,-141,-117,-169,-130,-14,-16,-22,27,29,60,80,143,44,86,103,86,21,-45,-143,-208,-294,-313,-313,-286,-262,-355,-420,-615,-555,-104,-41,-173,-334,-267,-214,-253,-233,-24,43,-112,-234,-433,-553,-574,-593,-737,-869,-937,-947,-908,-981,-1161,-1121,-583,202,443,-216,-1145,-1456,-1142,-917,-818,-832,-798,-753
2018-09-18,14:27:30.997,-699,-593,-537,-481,-604,-541,-187,-23,-46,-115,30,292,282,57,288,798,772,548,545,595,567,506,526,712,672,551,495,488,440,392,366,268,206,250,169,160,77,11,-28,-83,-25,28,-48,-114,-113,-145,-147,-128,-252,-332,-48,782,1515,1128,214,-532,-440,-187,-52,-33,-73,-91,-80,-32,-39,-24,-28,9,78,103,110,163,185,182,195,236,269,230,218,192,153,174,280,373,344,295,248,223,173,129,54,23,6,-76,-86,-93,-131,-158,-193,-198,-240,-281,-246,-275,-370,-463,-541,-578,-541,-466,-667,-738,-395,85,333,396,-181,-769,-640,-259,-474,-512,-157,-79,-159,-148,717,680
2018-09-18,14:27:32.025,550,465,31,281,562,886,730,611,551,758,788,837,740,571,509,500,475,329,123,1,-16,-13,27,9,-82,-53,-95,-132,-87,-39,-43,29,112,74,122,116,146,152,74,-33,-40,-18,-59,-233,-263,358,1113,1130,388,-591,-850,-427,-258,-194,-182,-374,-649,-408,25,46,-142,-320,-326,-52,291,922,1270,735,314,361,148,-168,-449,-532,-450,-436,-415,-379,-486,-529,-564,-608,-586,-524,-454,-508,-616,-666,-602,-593,-654,-568,-430,-475,-832,-465,-54,-256,-158,-71,-79,-358,-1300,-923,577,988,1557,1433,597,-383,-509,-42,289,165,10,511,702,440,356,359,494,617,668,725,748,605,436,404
2018-09-18,14:27:33.053,362,102,53,79,13,-73,-147,-141,-133,-269,-303,-242,-180,-215,-162,-108,-207,-146,4,-8,13,25,30,112,74,115,55,54,120,40,-16,-3,39,-208,-368,40,963,1475,950,83,-403,-42,35,46,140,164,74,33,-52,-68,75,399,518,313,81,-4,-113,-147,-153,-185,-129,-81,-76,-105,-204,-339,-402,-411,-458,-514,-487,-461,-459,-485,-481,-473,-488,-527,-597,-422,-275,-250,-197,-298,-321,-200,-157,-167,-418,-224,-93,-268,-201,376,1087,1421,962,126,-247,-79,338,521,493,536,566,511,531,591,581,559,593,556,392,265,196,104,128,167,127,43,45,-75,-144,-129,-200,-276,-165,-123
2018-09-18,14:27:34.081,-84,-65,-48,-145,-50,65,15,46,94,182,135,79,109,89,8,-66,-134,-177,-230,-154,-176,-485,-397,334,1185,1249,571,-265,-362,-153,-263,-367,-387,-153,-37,-330,-681,-770,-685,-628,-513,-315,-43,100,173,187,137,30,-141,-179,-226,-311,-354,-371,-466,-521,-451,-400,-457,-507,-543,-523,-514,-449,-362,-311,-300,-245,-187,-172,-294,-349,11,-78,-349,-133,55,90,-299,-431,28,1320,2221,2167,680,-1240,-829,-861,-890,550,1310,1408,1042,822,857,874,897,929,915,669,647,506,305,80,-71,-144,-113,-75,-192,-274,-406,-461,-585,-704,-670,-592,-665,-594,-504,-499,-430,-339,-353,-300,-133,-102,-102,-103
