2018-09-18,16:27:28.583,-30,-18,-74,-165,-178,-163,-98,-95,-108,-117,-133,-190,-270,-315,-313,-296,-392,-460,-220,306,719,453,-177,-723,-825,-481,-243,-204,-167,-103,-49,-43,-36,15,70,137,199,240,248,218,176,137,99,48,0,-39,-71,-94,-91,-90,-65,-60,-86,-97,-59,-19,-81,-84,-71,-28,-14,-118,-180,-138,-153,-305,-309,73,728,1179,832,78,-543,-438,-125,-65,-30,17,59,69,123,178,228,320,384,414,442,444,430,410,375,298,206,221,267,208,110,105,99,110,114,100,66,123,201,185,196,227,221,171,102,46,68,52,-145,-257,188,1158,1896,1666,604,-469,-396,-99,-47,-47,-31,96
2018-09-18,16:27:29.611,-382,-503,-503,-567,-604,-597,-578,-567,-531,-513,-499,-479,-453,-408,-367,-340,-329,-314,-291,-276,-253,-228,-224,-203,-188,-177,-161,-169,-185,-175,-147,-149,-156,-165,-192,-213,-232,-228,-208,-190,-176,-155,-131,-122,-111,-98,-92,-77,-77,-71,-71,-76,-86,-95,-89,-83,-92,-107,-115,-97,-87,-101,-112,-108,-114,-120,-124,-116,-98,-100,-109,-100,-83,-87,-87,-73,-45,-43,-47,-36,-16,0,28,37,46,56,66,85,119,177,225,238,245,224,176,141,141,141,130,134,138,66,-151,-174,734,1817,1019,234,75,-39,-121,-139,-123,-114,-97,-69,-53,-43,-26,0,4,20,27,30,21,32,49,40
2018-09-18,16:27:30.639,20,49,57,46,25,30,31,23,20,16,11,-8,-46,-76,-77,-80,-101,-121,-134,-126,-108,-98,-84,-60,-42,-21,-8,-17,-21,-33,-40,-42,-59,-58,-51,-59,-47,-43,-41,-50,-67,-66,-58,-39,-13,-20,-23,-10,-12,-7,-10,-5,-8,-8,-3,-6,-16,-12,-23,-22,5,47,84,74,77,49,-7,-13,-25,-16,-21,-46,-51,-98,-244,-169,554,1008,229,-140,-23,-52,-126,-140,-132,-109,-102,-98,-91,-70,-64,-52,-59,-47,-28,-11,-8,11,46,68,74,72,93,121,110,116,138,136,121,117,114,92,35,-22,-70,-95,-93,-98,-89,-48,-29,-27,-15,0,40,52,69,79
2018-09-18,16:27:31.667,105,122,107,113,114,110,124,152,171,176,182,193,209,213,197,188,194,210,187,182,185,239,266,260,252,209,156,151,160,166,156,145,115,36,-92,-1,714,1037,295,8,72,18,-38,-66,-64,-41,-22,-20,-25,-17,-33,-36,0,-2,-17,-6,0,-12,-20,-36,-43,-42,-42,-32,-34,-52,-47,-74,-86,-76,-109,-160,-231,-298,-318,-324,-326,-326,-322,-327,-296,-270,-264,-269,-257,-248,-242,-239,-274,-242,-215,-221,-212,-201,-182,-151,-121,-101,-97,-64,-16,-5,-4,18,29,40,53,121,188,225,265,263,237,194,196,247,231,223,218,166,-22,-85,421,1349,1000,188,145,85
2018-09-18,16:27:32.695,24,-25,-61,-76,-105,-144,-149,-136,-148,-184,-194,-202,-226,-226,-215,-212,-226,-235,-237,-223,-200,-189,-182,-158,-136,-153,-148,-147,-174,-216,-235,-264,-302,-311,-310,-297,-291,-281,-258,-269,-260,-243,-229,-218,-230,-223,-210,-205,-213,-217,-201,-212,-216,-195,-171,-158,-123,-107,-94,-69,-60,-42,-25,-2,21,77,106,108,129,105,58,61,73,80,83,87,98,-23,-221,-15,1158,1697,662,201,73,-44,-112,-107,-69,-52,-58,-34,-12,-1,34,67,73,68,65,90,114,98,96,112,119,153,161,152,145,143,129,116,110,127,109,75,67,36,37,30,17,14,23,37,35,20,54,70
2018-09-18,16:27:33.723,46,32,21,0,1,-12,-20,-24,-24,-14,-42,-41,-23,-23,-17,-10,-17,-25,-14,-21,-29,-23,-33,60,82,88,82,34,1,7,19,11,32,29,35,-26,-194,-109,662,1220,479,-19,5,-54,-108,-113,-95,-109,-82,-55,-63,-42,-8,-9,-4,25,21,36,56,68,73,76,89,96,94,103,132,135,118,102,105,100,69,-6,-60,-108,-156,-159,-175,-179,-185,-171,-143,-142,-139,-130,-125,-117,-120,-107,-120,-141,-141,-137,-127,-126,-146,-158,-144,-118,-120,-131,-112,-121,-137,-119,-76,-55,-59,-97,-125,-117,-105,-90,-61,-59,-38,-72,-219,-175,517,1103,386,-61,14,-21,-67,-78
2018-09-18,16:27:34.751,-71,-43,-28,-23,-23,-14,22,43,57,46,60,82,73,74,109,127,143,132,123,132,139,155,148,164,168,137,105,45,-13,-47,-52,-60,-65,-71,-52,-40,-27,0,12,6,1,-2,-3,11,15,-13,-44,-42,-29,-20,-37,-27,-36,-54,-48,-39,18,48,67,66,21,-18,-35,-34,-19,-29,-33,-25,-82,-253,-191,614,1284,464,-63,-90,-147,-221,-213,-198,-195,-192,-170,-158,-141,-115,-91,-72,-56,-56,-66,-54,-23,-2,-9,-33,-13,6,7,17,7,-21,-32,-20,-46,-71,-59,-74,-101,-126,-129,-113,-109,-90,-84,-81,-69,-54,-39,-25,-22,-24,-30,-24,-24,-35,-34,-26
2018-09-18,16:27:35.778,-75,-88,-82,-87,-80,-63,-76,-70,-53,-15,0,3,3,-45,-81,-82,-81,-96,-115,-106,-90,-187,-396,-186,830,1306,295,-73,-108,-166,-206,-220,-224,-211,-194,-176,-151,-125,-105,-91,-81,-66,-50,-34,-43,-28,-18,-7,8,36,50,80,95,108,113,137,153,144,121,79,41,32,34,38,43,58,74,96,122,138,162,183,197,210,218,234,248,261,268,273,274,272,274,273,268,277,268,268,259,252,244,273,310,310,315,303,247,214,201,208,232,237,230,220,111,60,494,1193,791,46,106,178,139,101,112,115,103,93,77,55,38,3,-15,-53,-95,-133,-145,-146
2018-09-18,16:27:36.806,-115,-125,-131,-125,-133,-124,-124,-132,-148,-167,-189,-207,-242,-301,-387,-459,-499,-523,-522,-508,-488,-453,-430,-396,-367,-342,-338,-319,-300,-298,-288,-276,-276,-284,-275,-269,-266,-244,-224,-216,-208,-213,-208,-167,-99,-75,-60,-52,-87,-121,-131,-113,-85,-63,-51,-27,-84,-210,-97,632,960,138,-168,-46,-50,-86,-106,-103,-92,-75,-60,-49,-29,-16,-3,7,14,18,22,34,41,50,47,47,57,56,64,76,84,68,59,48,8,-59,-133,-207,-257,-292,-301,-314,-310,-292,-282,-277,-270,-256,-257,-246,-229,-237,-248,-250,-254,-252,-261,-278,-279,-292,-306,-309,-312,-308,-310,-313,-318,-327,-327,-311
2018-09-18,16:27:37.834,-347,-356,-346,-313,-300,-297,-303,-329,-368,-369,-355,-333,-302,-259,-205,-202,-315,-230,603,1522,918,350,451,512,577,693,813,935,1029,1118,1194,1236,1266,1295,1297,1274,1239,1212,1186,1156,1097,1032,992,952,887,833,780,727,655,601,535,472,377,279,175,78,15,-38,-84,-114,-144,-172,-190,-201,-207,-207,-216,-219,-240,-278,-291,-294,-295,-306,-313,-312,-301,-293,-284,-287,-283,-281,-277,-280,-289,-298,-307,-304,-299,-296,-296,-286,-271,-261,-266,-266,-266,-256,-260,-264,-266,-264,-259,-255,-257,-259,-260,-277,-291,-239,-163,-142,-141,-145,-179,-208,-188,-187,-192,-179,-176,-179,-354,-482,4,1173,1007,-66
2018-09-18,16:27:38.862,-169,-233,-315,-349,-338,-312,-285,-254,-229,-189,-151,-132,-120,-92,-65,-42,-29,-27,-15,15,36,57,68,78,101,124,123,112,106,113,109,94,61,17,-20,-57,-78,-77,-75,-71,-67,-60,-49,-41,-34,-10,-1,-11,-9,1,0,-5,-2,-6,-15,-18,-24,-28,-21,-13,0,1,-6,-12,-7,-4,-3,5,14,8,7,23,23,24,22,21,6,12,26,55,88,88,89,65,16,-3,-15,-21,-33,-29,-26,-70,-215,-169,448,989,346,-170,-38,-30,-95,-103,-109,-107,-88,-71,-60,-45,-35,-22,6,14,5,7,34,65,59,94,133,107,113,176,192,163,159,166,143,116
2018-09-18,16:27:39.890,112,90,52,15,-42,-105,-127,-118,-124,-116,-89,-78,-76,-42,-15,-20,-31,-33,-23,-29,-44,-45,-53,-55,-57,-30,-17,-24,-28,-12,-19,-47,-37,-29,-34,-27,-17,-24,-23,-36,-34,-10,33,57,52,49,13,-27,-28,-12,-9,10,5,-6,-123,-210,108,896,770,-11,-58,-17,-79,-113,-119,-103,-61,-34,-32,-20,-11,2,10,19,22,46,38,46,71,86,84,85,109,119,137,147,158,164,155,140,119,87,36,-23,-62,-86,-99,-108,-100,-92,-92,-65,-59,-57,-41,-33,-33,-32,-38,-24,-30,-43,-48,-63,-67,-63,-60,-57,-49,-46,-54,-46,-48,-50,-47,-47,-64,-75
2018-09-18,16:27:40.918,-65,-84,-109,-100,-42,-6,-4,-13,-48,-84,-105,-110,-105,-84,-80,-86,-136,-240,-110,575,927,129,-164,-27,-38,-83,-83,-72,-50,-45,-30,-22,-20,-6,6,28,40,56,57,72,81,88,103,120,142,162,166,196,194,177,177,144,125,110,68,-7,-53,-73,-84,-70,-67,-55,-46,-37,-21,-19,3,-1,-15,-5,0,2,-12,-16,2,1,7,8,5,5,-11,0,-2,-9,-9,-11,-20,-30,-11,17,65,94,78,52,12,-23,-45,-47,-43,-57,-77,-82,-173,-283,0,818,794,-61,-155,-96,-110,-143,-158,-152,-138,-123,-94,-86,-89,-80,-52,-39,-24,-20,-19,-7,-3,-1
2018-09-18,16:27:41.946,32,46,62,68,78,88,93,88,98,87,59,23,-24,-57,-93,-116,-113,-110,-101,-91,-96,-74,-59,-45,-28,-26,-24,-24,-25,-38,-52,-28,-15,-10,-5,13,14,0,-12,-15,-3,9,-4,-7,7,15,16,28,6,-1,4,50,79,77,73,46,-12,-34,-32,-38,-41,-27,-15,-82,-220,-125,544,921,162,-171,-40,-56,-127,-152,-151,-168,-154,-122,-92,-61,-21,14,39,47,69,91,106,115,120,127,131,135,136,138,126,125,119,98,80,68,52,-4,-66,-121,-150,-181,-184,-159,-148,-134,-131,-127,-117,-107,-94,-101,-100,-82,-71,-72,-84,-98,-92,-86,-74,-45,-40,-41
2018-09-18,16:27:42.974,-47,-49,-52,-45,-39,-48,-46,-32,-37,-46,-36,3,34,48,54,40,-5,-36,-39,-39,-45,-38,-19,-40,-178,-171,377,910,292,-183,-34,-7,-68,-94,-81,-63,-62,-60,-46,-31,-14,-2,-7,-17,-18,-14,-3,10,6,15,42,57,39,45,54,49,55,62,80,69,57,31,-17,-62,-89,-100,-102,-97,-80,-63,-59,-53,-57,-45,-18,-9,-5,-3,-2,-3,-13,-11,-11,-14,-18,0,2,-12,-10,-22,-25,-16,2,14,26,25,40,76,129,171,190,183,160,110,86,90,93,91,104,105,10,-242,-213,851,1898,1047,266,29,-100,-193,-220,-210,-193,-176,-177,-163,-151,-142
2018-09-18,16:27:44.001,-126,-116,-94,-86,-78,-78,-71,-53,-41,-41,-36,-11,-11,-39,-51,-39,-34,-33,-13,12,13,4,-5,-22,-31,-25,-25,-24,-33,-45,-49,-51,-66,-89,-92,-93,-79,-73,-86,-115,-134,-145,-156,-157,-158,-148,-124,-112,-107,-100,-68,-48,-43,-47,-40,-21,58,112,126,127,100,51,42,57,72,89,98,91,-80,-370,-188,1110,1945,823,147,39,-67,-130,-122,-118,-100,-79,-44,-26,-28,-16,-6,6,-7,-27,-7,-26,-21,-30,-22,-15,-20,-16,2,27,21,21,19,16,20,-30,-101,-177,-218,-245,-242,-231,-221,-201,-173,-150,-133,-138,-123,-98,-88,-92,-83,-75,-75,-62,-67,-69
2018-09-18,16:27:45.041,-38,-34,-41,-51,-60,-54,-57,-31,-9,34,53,72,74,43,9,-6,-7,-6,-2,8,29,-23,-185,-88,711,1132,246,-83,38,45,8,6,26,35,42,58,71,65,61,74,82,79,69,79,78,55,51,31,16,60,125,93,-1,-13,69,74,18,-14,-55,-122,-201,-258,-308,-307,-286,-248,-190,-151,-129,-62,10,30,6,-13,-42,-61,-88,-78,-39,-58,-65,-33,-35,-61,-64,-15,38,36,15,2,-51,-101,-88,-91,-97,-115,-123,-132,-211,-308,-80,767,799,-102,-175,-67,-101,-169,-162,-136,-97,-83,-75,-65,-39,-30,-22,-9,-5,7,17,48,64,48,55,58,60,61
2018-09-18,16:27:46.057,276,44,28,18,21,15,-4,-54,-78,-94,-115,-122,-125,-127,-111,-93,-94,-64,-60,-76,-68,-53,-26,-41,-49,-24,-19,-16,-18,-33,-30,-29,-33,-3,52,96,93,61,24,1,-2,9,20,19,45,30,-137,-263,172,1326,1264,199,51,0,-66,-79,-74,-55,-45,-28,-16,2,49,77,88,101,116,132,141,135,152,150,164,187,198,195,193,192,192,206,184,175,164,125,86,48,20,-2,-14,-6,2,24,46,53,65,66,66,66,53,55,59,61,56,57,45,41,35,13,-4,-6,4,56,117,132,91,30,-13,-25,-50,-67,-19,-4,-43,-185,-409,-202,944,1482
2018-09-18,16:27:47.085,338,-37,-45,-113,-215,-228,-223,-221,-219,-174,-177,-146,-116,-118,-113,-95,-91,-94,-70,-61,-33,-5,2,16,24,42,60,64,58,56,53,39,6,-48,-105,-120,-139,-161,-154,-119,-113,-111,-98,-92,-77,-71,-82,-56,-45,-68,-87,-92,-89,-83,-88,-120,-110,-103,-117,-140,-143,-142,-131,-77,-40,-44,-50,-91,-134,-134,-121,-118,-121,-132,-136,-225,-359,-169,642,856,-19,-207,-123,-172,-225,-235,-214,-207,-202,-186,-174,-177,-164,-152,-145,-131,-108,-96,-79,-68,-37,-46,-38,-11,12,20,32,54,44,39,32,10,-35,-94,-131,-168,-194,-185,-174,-172,-160,-158,-142,-120,-89,-53,-40,-22
2018-09-18,16:27:48.113,-8,13,25,27,31,27,15,5,13,20,8,18,75,127,156,147,112,74,78,78,82,92,99,107,31,-107,10,739,1060,279,1,98,77,15,-16,-18,1,7,26,47,52,56,62,78,79,74,63,76,97,101,117,112,127,134,144,141,141,141,134,118,106,75,14,-65,-73,-78,-93,-80,-67,-61,-39,-18,-1,14,9,17,25,38,35,27,14,13,2,14,17,26,23,0,0,59,86,74,55,8,-27,-26,-38,-32,-35,-24,-18,-183,-297,89,1125,1039,133,-44,-94,-144,-176,-172,-152,-139,-117,-125,-116,-84,-76,-50,-26,-31,-51,-27,-16,-2,4,10
2018-09-18,16:27:49.141,22,39,38,26,32,15,5,0,-8,-27,-45,-56,-49,-78,-76,-68,-76,-80,-62,-47,-32,-31,-36,-11,-1,27,19,6,21,15,13,-21,-22,-13,-7,-12,-12,-5,-13,-20,-34,-32,-31,7,45,68,65,24,-39,-38,-18,-28,-39,-17,-30,-208,-344,50,1216,1240,232,-35,-105,-188,-224,-219,-202,-189,-178,-158,-146,-126,-99,-85,-79,-67,-43,-38,-29,-31,-22,-2,7,20,26,5,8,9,4,1,-2,21,4,-38,-57,-72,-65,-59,-68,-55,-52,-55,-24,-19,-9,15,11,19,6,1,25,24,-6,9,27,7,-6,-3,1,-2,0,-10,-12,-9,-37,-33,-30,-46
2018-09-18,16:27:50.169,-41,-21,-25,-24,-22,-17,-15,-7,-3,-3,23,76,89,109,104,49,10,2,1,-7,6,-1,-69,-272,-308,494,1561,843,107,-2,-90,-147,-190,-200,-191,-176,-170,-180,-151,-122,-116,-81,-63,-52,-45,-23,-20,-30,-16,2,4,7,19,13,7,8,-2,0,8,13,7,-22,-54,-75,-80,-87,-78,-75,-61,-56,-40,-32,-24,-15,-10,10,4,7,11,-6,-17,-31,-15,-19,-13,-16,-42,-38,-27,-26,-15,-23,-17,-2,-1,0,5,-5,-1,16,5,2,5,18,23,18,23,14,-5,2,21,65,99,107,93,44,8,0,-1,0,-9,-11,-40,-218,-271,298,1149,693
2018-09-18,16:27:51.197,-43,-16,-44,-129,-156,-152,-131,-126,-113,-95,-79,-65,-31,-10,-4,3,2,12,10,14,27,41,68,69,62,69,78,93,97,97,102,86,56,8,-60,-103,-127,-133,-137,-131,-122,-108,-96,-99,-66,-23,16,20,0,-6,-9,-12,-23,-44,-37,-43,-69,-65,-38,-19,-16,-11,-11,-14,-31,-40,-42,-38,-15,-19,-16,-28,-34,-21,8,39,56,75,44,5,-11,-14,-3,9,7,-17,-125,-230,47,772,737,34,-19,-18,-73,-86,-94,-78,-75,-61,-51,-30,-22,-25,-10,-5,3,9,15,13,6,13,44,60,65,79,86,99,90,92,97,81,69,36,-23,-68,-118,-149
2018-09-18,16:27:52.224,-149,-142,-135,-120,-99,-97,-73,-56,-43,-30,-15,-3,-3,-2,-13,-10,-10,-19,-21,-7,11,-7,-10,-14,-22,-18,-14,-27,-22,39,75,84,85,45,7,-18,-13,-18,-28,-18,-18,-90,-223,-104,634,966,207,-47,-23,-86,-114,-113,-111,-109,-107,-82,-65,-50,-37,-43,-37,-16,-11,-19,-12,25,36,30,29,35,49,44,56,37,29,43,61,38,6,-20,-50,-64,-76,-83,-75,-64,-53,-55,-53,-42,-20,-7,-3,14,23,32,18,12,4,2,4,-3,1,-1,3,-21,-19,-35,-27,-1,46,68,74,73,27,-21,-35,-18,-8,-19,-12,-4,-134,-277,32,996,1037,123
2018-09-18,16:27:53.252,-26,-63,-127,-155,-167,-143,-130,-105,-101,-107,-99,-82,-70,-53,-42,-42,-45,-42,-33,-29,-29,-31,-16,-12,-19,-28,-15,-5,-23,-38,-27,-10,-38,-64,-60,-62,-70,-53,-38,-33,-32,-14,-3,23,2,-13,3,-11,-8,-3,0,-22,-28,-18,-4,-17,-33,-18,-14,-15,-24,-27,-8,-2,-5,9,54,81,93,72,43,1,-2,-10,-5,13,-9,-29,-172,-302,86,1257,1211,267,11,-100,-179,-215,-209,-177,-163,-158,-114,-105,-99,-70,-41,-45,-43,-38,-31,-22,-20,-1,6,-1,0,4,0,-22,-15,-2,-7,-13,-11,-25,-40,-41,-30,-18,-32,-39,-43,-26,-21,-14,-13,-16
2018-09-18,16:27:54.280,16,16,18,20,16,1,15,31,23,3,1,-6,-8,8,1,2,-15,-17,20,22,0,9,29,37,24,10,4,-17,-22,12,72,87,111,104,43,-9,-10,5,-2,0,11,-29,-215,-272,386,1453,964,115,-21,-103,-185,-204,-187,-158,-146,-143,-127,-118,-100,-74,-57,-67,-70,-56,-49,-47,-33,-13,-2,-9,2,23,33,33,39,41,55,59,37,14,-16,-34,-55,-84,-70,-61,-60,-62,-63,-56,-39,-15,-27,-23,-19,-16,-30,-41,-40,-51,-54,-63,-46,-38,-47,-47,-55,-46,-34,-21,-21,-12,-17,-15,-22,-23,-10,-31,-41,-18,-1,2,-9,-8,0,9,-12,-22
2018-09-18,16:27:55.308,-16,48,76,61,63,31,-5,-10,-27,-9,8,-18,-49,-161,-208,208,845,530,-118,-74,-34,-76,-102,-120,-85,-72,-76,-71,-49,-45,-31,-26,-10,-4,0,0,0,8,19,31,43,49,65,82,102,119,120,126,129,113,86,24,-64,-131,-135,-126,-139,-125,-120,-111,-101,-81,-57,-47,-36,-34,-36,-45,-46,-33,-27,-28,-35,-23,2,-8,1,7,0,-1,0,0,7,12,18,13,7,-8,9,33,66,78,67,84,44,0,19,30,19,2,6,-2,-147,-151,444,1041,419,-67,-20,-53,-115,-136,-128,-132,-107,-90,-83,-78,-72,-37,-32,-42,-22,-7,-3,9,14,18
2018-09-18,16:27:56.336,4,18,29,12,22,32,35,31,48,67,62,13,-50,-76,-100,-108,-97,-77,-63,-66,-57,-41,-38,-35,-29,-24,-7,3,2,-11,-33,-28,-24,-7,-14,-24,-21,-15,-11,-25,-26,-9,-3,-10,-21,-15,-11,-10,40,78,89,98,87,32,2,-9,2,13,6,-19,-159,-292,7,1060,1234,315,25,-59,-156,-203,-196,-166,-154,-149,-136,-114,-110,-112,-87,-74,-66,-49,-38,-21,-12,-22,-33,-18,15,18,18,4,8,13,5,8,17,1,-8,-9,-20,-23,-11,-10,-13,-4,4,1,-12,22,43,34,39,28,22,34,24,6,3,-14,-18,-12,12,5,-4,-12,-6,-3
2018-09-18,16:27:57.364,-10,-22,-18,1,-1,1,4,-20,-18,0,46,76,75,54,25,-8,-23,-20,-26,-27,-24,-58,-247,-330,200,1314,972,79,-37,-97,-194,-217,-200,-193,-170,-159,-144,-112,-93,-96,-89,-80,-62,-52,-54,-37,1,22,25,17,22,39,38,32,34,38,39,48,45,11,-35,-69,-97,-103,-107,-107,-104,-98,-85,-69,-51,-32,-14,-4,3,0,-4,6,17,16,-1,-10,-5,-2,-13,-14,-17,-18,-16,-18,-14,-3,6,10,18,15,6,5,51,100,116,100,69,30,1,-13,-40,17,67,36,-27,-103,23,625,792,71,-125,-10,-22,-39,-52,-81,-60,-22,5,-8,-25,-39
2018-09-18,16:27:58.392,-40,-109,-31,78,64,1,-13,-21,-30,20,31,4,-15,-27,0,18,39,25,-7,-109,-140,-122,-197,-194,-234,-282,-245,-230,-222,-187,-161,-156,-154,-128,-81,-71,-79,-106,-52,-44,-65,-58,-49,-50,-58,-57,-37,-23,-22,-28,-27,-40,-37,-4,48,59,73,80,8,-113,-31,75,82,42,24,1,-66,-66,332,834,350,-247,-74,42,22,-1,0,13,33,61,102,122,159,197,212,219,233,246,233,221,231,241,239,247,255,253,287,292,268,248,222,197,150,79,-10,-91,-144,-167,-161,-161,-177,-160,-134,-146,-150,-122,-117,-115,-117,-115,-111,-140,-168,-150,-142,-150,-148,-108
2018-09-18,16:27:59.420,-136,-152,-143,-149,-145,-133,-52,-7,-15,-32,-66,-116,-141,-132,-118,-102,-108,-130,-178,-314,-166,707,1056,128,-177,-79,-86,-144,-146,-143,-123,-97,-86,-75,-64,-42,-21,-5,15,21,25,61,67,66,58,78,94,109,135,168,190,186,179,204,196,138,64,9,-31,-88,-108,-110,-91,-59,-35,-32,-14,7,21,39,47,51,55,51,44,36,29,34,40,32,26,19,36,44,36,30,22,7,4,0,-13,-18,-26,-19,-11,17,62,73,78,47,-5,-35,-35,-36,-24,-15,-10,-77,-289,-301,517,1422,770,76,10,-64,-135,-173,-181,-177,-169,-160,-154,-148,-138,-111,-96,-82
2018-09-18,16:28:00.447,-46,-30,-12,12,26,44,60,72,89,104,110,117,123,116,109,94,74,27,-51,-123,-162,-188,-201,-201,-196,-178,-161,-141,-123,-100,-91,-79,-72,-71,-70,-69,-69,-62,-68,-67,-69,-69,-63,-57,-51,-45,-40,-27,-11,-4,2,3,6,14,27,42,35,36,50,53,57,64,84,88,75,70,91,95,93,91,95,109,159,193,193,194,168,119,112,110,115,116,126,123,19,-94,187,993,1051,205,77,151,97,34,29,40,49,46,47,58,62,63,44,28,20,12,-16,-66,-94,-122,-140,-155,-162,-183,-191,-189,-194,-191,-192,-211,-243,-266,-302,-365,-433,-494,-525,-521
2018-09-18,16:28:01.475,-519,-496,-467,-437,-413,-398,-371,-335,-304,-270,-245,-228,-206,-187,-162,-141,-141,-142,-122,-128,-119,-91,-83,-54,-49,-38,-2,-10,-7,-4,13,29,77,104,120,116,88,52,51,76,93,101,90,69,-34,-113,249,1056,907,88,56,70,11,-2,-1,-10,1,0,-10,0,47,51,53,62,105,103,100,97,99,104,128,168,165,143,175,171,170,184,179,154,134,100,54,9,-29,-90,-95,-68,-75,-82,-64,-48,-47,-40,-9,8,28,44,65,99,91,78,72,77,74,71,66,40,32,51,50,40,26,23,51,48,35,32,37,25,36,37,72,94,95,80,43,15
2018-09-18,16:28:02.503,0,-2,-29,-15,-2,-19,-149,-287,-20,980,1217,326,20,-65,-151,-205,-204,-188,-172,-159,-157,-158,-144,-123,-114,-108,-87,-66,-57,-35,-17,-23,-17,-17,-11,11,23,22,30,15,5,-6,-20,-29,-44,-64,-69,-80,-82,-87,-89,-90,-84,-75,-73,-55,-37,-33,-20,-8,-13,-3,3,0,-13,-17,-13,-19,-21,-25,-27,-13,-6,-9,-15,-25,-27,-28,-13,-24,-38,-27,21,47,58,67,27,-18,-32,-27,-22,-16,-18,-27,-155,-318,-52,1017,1318,341,19,-68,-153,-197,-203,-205,-197,-176,-144,-123,-115,-101,-95,-93,-90,-68,-58,-52,-51,-34,-30,-32,-18,-5,-11,0,1,-17
2018-09-18,16:28:03.531,-14,-11,-23,-33,-25,-29,-37,-44,-42,-44,-42,-42,-27,-26,-23,-19,-10,0,9,13,9,25,29,22,16,10,3,-12,-9,-12,-1,-8,-10,-12,-11,-16,-19,-17,6,49,66,61,55,8,-11,-10,-11,-10,-6,-3,-36,-226,-262,447,1458,810,66,-37,-107,-173,-186,-179,-164,-150,-130,-116,-92,-74,-66,-65,-49,-16,3,11,9,21,35,35,47,62,66,67,63,65,60,66,69,68,60,35,14,1,-2,-2,-3,13,24,34,40,74,93,108,115,125,125,125,153,154,141,136,135,140,150,154,151,161,179,207,221,221,211,191,162,119,87,62,17,-24
2018-09-18,16:28:04.559,-19,1,8,-10,-37,-69,-139,-185,-182,-189,-183,-183,-184,-277,-438,-267,718,1228,278,-133,-187,-256,-308,-307,-271,-267,-257,-248,-224,-205,-201,-201,-178,-165,-159,-150,-151,-150,-135,-123,-126,-129,-124,-123,-128,-127,-121,-122,-115,-110,-107,-151,-222,-248,-266,-287,-284,-297,-311,-307,-293,-298,-310,-306,-308,-306,-302,-300,-304,-316,-317,-327,-324,-327,-322,-321,-336,-342,-319,-307,-302,-299,-326,-308,-261,-253,-276,-326,-324,-251,-246,-224,-200,-139,-151,-148,-117,-66,-41,-49,-71,-109,-132,-131,-118,-85,-73,-54,-54,-128,-57,482,767,122,-214,-42,3,-41,-71,-81,-89,-80,-69,-65,-70,-56,-42,-47
2018-09-18,16:28:05.587,-68,-43,-25,-20,11,21,40,87,110,156,220,254,329,445,527,591,688,770,823,877,929,988,1030,1056,1130,1253,1326,1404,1424,1480,1562,1657,1817,1898,1852,1837,1771,1718,1717,1670,1607,1496,1388,1257,1130,999,848,700,612,516,399,272,174,70,-127,-338,-464,-619,-840,-1016,-1181,-1322,-1475,-1585,-1778,-2031,-1871,-1554,-1926,-2389,-2375,-2279,-2176,-2312,-2426,-2241,-2261,-2226,-1650,-1107,-1001,-959,-823,-660,-766,-1152,-1171,-1095,-1105,-1057,-965,-720,-370,-51,191,365,541,681,804,966,1031,1058,1046,976,969,1056,1051,1079,1159,1204,1272,1296,1291,1262,1214,1211,1330,1532,1753,1883,1892,1835,1766,1642,1437,1178,959,693
2018-09-18,16:28:06.615,558,507,586,873,1018,929,648,512,514,522,497,421,313,189,-47,-220,-112,-225,-832,-1130,-939,-692,-605,-752,-738,-602,-737,-878,-1124,-1391,-1535,-1644,-1801,-1975,-2102,-2063,-2070,-2170,-2156,-2087,-2106,-2155,-2092,-1972,-1886,-1738,-1506,-1227,-919,-697,-512,-342,-252,-444,-643,-655,-692,-937,-1269,-1315,-1062,-739,-378,23,391,695,866,1037,1242,1321,1262,1218,1282,1347,1367,1333,1319,1281,1332,1428,1583,1677,1721,1731,1750,1751,1660,1572,1352,1033,1016,1367,1419,1043,1045,1199,1291,1376,1441,1336,1031,506,-110,-481,-558,-400,-286,-167,186,485,629,444,103,-135,-433,-699,-781,-559,-79,218,161,173,192,146,6,-41,53,-96
2018-09-18,16:28:07.643,-246,-47,-78,-333,-639,-859,-1181,-1464,-1661,-1903,-2071,-2245,-2356,-2412,-2502,-2541,-2485,-2431,-2363,-2201,-2109,-1994,-1795,-1716,-1903,-2316,-2689,-2698,-2586,-2422,-2126,-1755,-1371,-975,-663,-319,351,1007,1034,943,1026,1055,1010,994,1033,1087,1292,1566,1821,2113,2433,2767,2858,2890,2992,3143,3223,3128,2869,2602,2349,2069,1859,1702,1723,2053,2591,2922,2926,2646,2071,1245,297,-466,-1026,-1410,-1486,-1368,-1046,-232,543,874,992,1114,1091,925,657,367,169,200,139,67,107,101,171,280,350,407,406,295,321,222,-153,-543,-991,-1391,-1649,-1994,-2321,-2261,-2024,-2378,-2968,-2967,-2731,-2658,-2584,-2416,-2236,-2099,-1947,-1778,-1691,-1685,-1721,-1804,-1947,-2112
2018-09-18,16:28:08.671,-2115,-1952,-1737,-1464,-1139,-833,-486,-133,187,494,819,1091,1271,1405,1514,1539,1471,1305,1130,985,852,724,638,555,543,570,589,658,797,953,1110,1234,1170,985,791,652,593,597,559,461,558,759,1034,1152,1041,940,838,621,361,178,102,5,-187,-277,11,108,-365,-416,45,620,1033,863,353,0,-282,-470,-576,-743,-580,-244,-164,-127,-36,184,376,440,498,526,733,755,500,246,29,-223,-379,-508,-715,-955,-1168,-1370,-1560,-1694,-1751,-1656,-1536,-1426,-1400,-1291,-1154,-1218,-1363,-1305,-1188,-1133,-1058,-916,-663,-476,-320,-186,-45,155,395,611,822,990,1078,1211,1342,1437,1481,1440,1321,1135,791,609,1089,1264
2018-09-18,16:28:09.698,602,326,559,635,610,636,788,1054,1488,1746,1683,1513,1418,1488,1478,1326,1258,1232,1227,1217,1123,1025,836,707,502,215,9,45,128,88,71,102,122,116,184,299,426,556,503,256,-4,-161,-311,-651,-691,-533,-482,-562,-639,-735,-900,-900,-828,-689,-428,-558,-599,-492,-568,-945,-1249,-1458,-1720,-1917,-1985,-2096,-2274,-2537,-2732,-2116,-998,-1197,-2086,-2189,-2011,-1721,-1574,-1433,-1380,-1353,-1319,-1393,-1585,-1730,-1794,-1768,-1627,-1312,-988,-694,-386,-34,289,603,924,1202,1412,1561,1660,1730,1795,1743,1687,1639,1559,1467,1407,1431,1577,1782,1877,1801,1648,1469,1497,1865,2252,2488,2535,2382,2144,1849,1470,1169,1105,1235,1260,1100
2018-09-18,16:28:10.726,957,627,279,248,333,239,100,125,241,263,401,904,1283,538,-543,-758,-833,-1033,-1185,-1186,-1112,-929,-799,-786,-829,-791,-650,-442,-374,-283,-291,-269,-460,-701,-988,-1200,-1358,-1564,-1709,-1855,-1942,-2026,-2022,-2050,-2108,-2063,-2080,-2136,-2074,-1949,-1866,-1755,-1567,-1340,-974,-624,-410,-449,-757,-1334,-1888,-1843,-1371,-874,-430,5,474,843,1101,1332,1556,1649,1696,1740,1725,1602,1482,1419,1326,1176,1382,2230,2348,1445,1136,1185,1223,1185,1115,1145,1200,1291,1464,1604,1611,1514,1347,1206,1109,1115,1170,1218,1247,1116,954,947,1260,1390,1141,748,349,36,-162,-310,-347,-235,-134,-131,-204,-259,-323,-355,-445,-470,-479,-501,-445,-481
2018-09-18,16:28:11.754,-538,-611,-653,-757,-812,-755,-717,-695,-615,-533,-575,-762,-991,-1143,-1311,-1497,-1554,-1633,-1744,-1804,-2166,-2219,-1523,-315,-660,-1630,-1842,-1705,-1357,-1158,-1192,-1357,-1395,-1375,-1422,-1416,-1342,-1234,-1052,-820,-557,-218,121,399,664,954,1286,1536,1708,1773,1729,1636,1544,1447,1388,1389,1390,1278,1193,1205,1265,1309,1364,1463,1592,1860,2045,2112,2168,2272,2375,2350,2218,2022,1829,1594,1434,1511,1737,1452,1071,706,365,83,-70,-133,-121,-211,-404,-500,-349,43,781,1028,281,-120,-114,-103,-296,-531,-674,-781,-848,-808,-735,-561,-416,-401,-386,-170,-96,-415,-596,-603,-577,-771,-1011,-1178,-1344,-1533,-1738,-1911,-1993,-2097,-2180,-2251,-2307,-2398
2018-09-18,16:28:12.782,-2582,-2647,-2668,-2721,-2664,-2506,-2291,-2142,-2036,-2047,-2164,-2255,-2300,-2330,-2282,-2100,-1889,-1716,-1466,-1080,-665,-345,-95,118,258,382,542,684,779,868,920,941,803,723,1132,1669,1340,840,845,870,858,760,726,723,730,769,881,905,782,679,753,828,858,896,886,757,796,1086,1327,1539,1714,1764,1710,1652,1639,1629,1614,1464,1169,842,762,1076,1545,1959,2270,2203,1908,1603,1283,852,467,388,442,448,411,338,228,130,-43,-233,-322,-470,-264,76,129,81,-1,-249,-468,-609,-801,-1014,-1117,-1237,-1321,-1559,-1584,-824,-309,-1035,-1526,-1420,-1118,-850,-805,-841,-906,-985,-1027,-1019,-936,-874,-787,-667,-485,-226,30,198
2018-09-18,16:28:13.810,396,504,575,659,722,789,891,1020,1146,1257,1332,1351,1380,1399,1410,1416,1375,1341,1309,1264,1154,926,779,672,541,441,549,774,946,1004,930,797,638,485,402,390,432,455,418,252,282,424,345,175,197,-25,-354,-583,-786,-989,-1103,-1194,-1377,-1630,-1933,-2179,-2266,-1816,-508,819,237,-796,-1225,-1447,-1554,-1609,-1647,-1474,-1209,-1250,-1347,-1385,-1414,-1312,-1238,-1262,-1173,-654,-358,-342,-342,-373,-402,-460,-575,-582,-666,-685,-628,-562,-430,-422,-450,-359,-312,-299,-269,-276,-323,-498,-678,-780,-788,-720,-664,-575,-434,-232,169,613,985,1274,1490,1625,1686,1680,1649,1649,1755,1804,1818,1840,1893,1893,1881,1870,1855,1778
2018-09-18,16:28:14.838,1414,1238,1084,955,728,545,383,153,-101,-323,-564,-870,-1105,-1296,-1553,-1854,-1943,-1949,-2051,-2235,-2419,-2539,-2457,-1913,-1729,-1792,-1841,-1876,-1956,-1763,-894,-446,-1135,-1496,-1260,-1201,-1250,-1228,-1084,-990,-992,-924,-845,-764,-665,-654,-602,-577,-311,99,296,399,555,639,538,359,231,125,17,-118,-242,-312,-369,-387,-345,-342,-311,-231,-155,-55,22,147,355,541,584,409,127,-103,-174,-87,31,237,489,783,1129,1484,1826,2092,2317,2517,2703,2849,2946,3050,3172,3235,3201,3142,3095,3020,2913,2790,2681,2571,2420,2198,1996,1871,1789,1742,1734,1865,2382,2745,2692,2509,2680,3342,3578,3137,3041,2883,2657,2482,2428,2356,2229,2001
2018-09-18,16:28:15.866,1792,1413,1089,740,325,-110,-414,-543,-500,-514,-668,-841,-911,-955,-1005,-1115,-1142,-1143,-1302,-1517,-1698,-1883,-1972,-2019,-2133,-2241,-2228,-2186,-2028,-1839,-1688,-1695,-1802,-1932,-1976,-2053,-2127,-2165,-2225,-2226,-2234,-2189,-2144,-2163,-2041,-1911,-1852,-1779,-1673,-1473,-1260,-1012,-795,-797,-1042,-1401,-1664,-1765,-1649,-1357,-974,-722,-574,-490,-462,-398,-284,-179,-141,-111,-127,-326,-642,-507,328,452,-91,-171,-331,-504,-660,-752,-795,-897,-999,-1056,-1111,-1156,-1172,-1207,-1202,-1135,-1044,-912,-739,-579,-413,-220,-60,31,84,113,100,-35,40,207,305,417,632,845,966,992,966,890,811,846,983,947,652,263,35,-4,-150,-394,-678,-966,-1171,-1308
2018-09-18,16:28:16.894,-1424,-1255,-1060,-946,-826,-668,-496,-287,-45,80,62,202,434,513,345,141,-76,-183,-276,-399,-595,-823,-977,-1093,-1101,-1044,-978,-880,-769,-838,-790,0,1288,1252,550,431,346,212,-44,-239,-308,-215,-90,85,283,521,745,1026,1335,1547,1635,1691,1775,1824,1831,1815,1775,1704,1645,1604,1574,1555,1531,1488,1436,1363,1312,1393,1565,1722,1767,1749,1661,1538,1394,1222,1046,929,686,447,542,745,878,945,948,925,906,908,941,996,932,772,515,226,42,-96,-191,-238,-294,-334,-337,-236,-151,-68,17,65,37,-126,-389,-599,-841,-946,-970,-1002,-1021,-1162,-1168,-460,400,-71,-478,-344,-273,-321,-463,-666,-758,-851
2018-09-18,16:28:17.921,-979,-1082,-1174,-1195,-1232,-1223,-1212,-1250,-1249,-1227,-1244,-1174,-1013,-874,-709,-547,-395,-230,-122,-95,-206,-449,-798,-1172,-1241,-1127,-1025,-945,-802,-627,-426,-196,45,296,505,670,829,971,1073,1139,1158,1179,1150,1137,1123,1112,1050,978,932,864,883,1021,1054,945,861,883,812,699,563,388,242,216,250,324,371,409,339,112,50,509,834,226,-152,-128,-239,-421,-426,-392,-305,-232,-195,-92,54,178,129,-21,-217,-439,-631,-600,-541,-589,-694,-809,-893,-807,-747,-683,-854,-725,-458,-279,-129,11,-153,-546,-814,-1040,-1198,-1317,-1374,-1450,-1530,-1606,-1636,-1590,-1581,-1515,-1421,-1238,-986,-801,-626,-434,-217,-179,-239,-567
2018-09-18,16:28:18.949,-869,-1081,-1125,-927,-668,-475,-294,-84,183,422,587,720,818,899,998,964,879,1252,2269,2505,1845,1605,1417,1268,1186,1090,1017,977,929,886,787,699,628,610,619,596,599,646,681,745,895,1131,1438,1449,1101,817,694,625,532,388,267,237,247,188,13,-205,-403,-596,-767,-886,-911,-851,-794,-729,-666,-534,-347,-194,-61,157,546,659,348,21,-201,-375,-473,-503,-525,-508,-364,-162,-159,-336,-285,-195,-196,-345,-467,-601,-738,-985,-1460,-1490,-417,345,-639,-1375,-1557,-1531,-1573,-1507,-1385,-1281,-1128,-949,-742,-568,-316,-35,62,-55,-284,-365,-264,-137,43,195,291,373,504,628,745,866,987,1125,1259,1355
2018-09-18,16:28:19.977,1432,1438,1402,1350,1337,1297,1284,1318,1267,1122,1025,957,894,965,1095,1193,1316,1449,1329,1158,1093,1102,1019,954,913,868,843,804,659,387,136,-3,-117,-194,-335,-507,-652,-765,-1010,-1334,-1452,-985,-609,-1043,-1269,-1172,-1220,-1234,-1100,-654,108,-6,-328,-520,-733,-889,-1038,-1109,-1154,-881,-352,-366,-543,-506,-569,-617,-586,-617,-751,-886,-986,-1060,-1196,-1265,-1269,-1366,-1519,-1582,-1483,-1506,-1461,-1246,-1020,-739,-488,-190,126,305,97,-654,-1021,-933,-751,-587,-423,-299,-108,102,319,572,791,926,1035,1151,1202,1324,1468,1547,1618,1645,1616,1551,1381,1268,1570,1943,1466,900,1019,1046,914,740,733,846,974,1070,1140,1239
2018-09-18,16:28:21.005,1388,1542,1539,1394,1199,1045,846,692,609,442,218,155,256,211,-38,-348,-658,-822,-759,-567,-375,-193,-190,-144,-15,103,290,464,673,793,591,341,187,47,-134,-339,-459,-549,-668,-857,-1051,-1055,-817,-842,-1079,-1146,-1144,-1218,-1250,-1314,-1442,-1357,-1194,-1072,-1030,-1009,-987,-1137,-1463,-1364,-372,290,-573,-1174,-1087,-944,-874,-813,-769,-776,-708,-614,-744,-807,-828,-1081,-1337,-1317,-1049,-762,-569,-411,-250,-48,200,458,671,847,1031,1172,1271,1318,1311,1275,1189,1065,953,878,796,755,734,661,568,454,248,-11,-122,148,738,1271,1455,1536,1713,1797,1761,1683,1535,1353,1180,938,720,737,719,623,447,245,43,-117
2018-09-18,16:28:22.033,-364,-740,-1214,-1364,-937,-398,-792,-1487,-1334,-1206,-1181,-1064,-888,-690,-517,-330,-182,-95,-9,98,210,268,249,165,68,6,17,29,-8,58,63,-14,-121,-260,-468,-369,324,648,363,-56,-400,-617,-736,-900,-995,-1114,-1085,-1038,-1006,-973,-839,-622,-578,-619,-351,-49,13,-202,-501,-387,-293,-313,-423,-625,-656,-543,-345,-82,143,349,555,740,827,873,884,822,522,147,443,1608,1963,1132,968,1081,1095,1000,861,729,546,244,-14,185,696,1156,1435,1611,1794,1812,1827,1817,1632,1300,976,648,504,319,24,-137,-127,-31,42,206,450,606,556,227,-167,-527,-1029,-1039,-742,-585,-596,-643,-549,-243,-20,56
2018-09-18,16:28:23.061,-15,-25,63,135,117,-5,-21,-96,-208,-281,-396,-483,-466,-454,-473,-530,-598,-686,-823,-968,-1168,-1551,-1670,-1161,-504,-839,-1587,-1511,-17,291,-1223,-1876,-1964,-1880,-1809,-1686,-1487,-1306,-1090,-801,-518,-225,186,588,799,710,603,531,378,195,-35,-186,-249,-64,197,479,758,950,1044,956,768,709,753,748,638,605,791,1006,1165,1241,1211,1159,1122,1083,1071,1054,1054,1138,1337,1439,1333,1127,1074,1226,1393,1586,1404,948,683,770,1035,1346,1625,1596,1342,991,633,309,-35,-384,-577,-714,-916,-801,-350,371,1247,1116,51,-286,-426,-580,-768,-903,-1109,-1312,-1484,-1706,-1923,-2270,-2566,-2719,-2796,-2922,-2636,-2156,-1975,-2136
2018-09-18,16:28:24.089,-2516,-2733,-2715,-2650,-2600,-2508,-2378,-2243,-1965,-1678,-1370,-1052,-788,-606,-413,-260,-192,-228,-444,-803,-1082,-1196,-1182,-1198,-1271,-1245,-1083,-915,-731,-306,193,597,844,1038,1250,1398,1435,1431,1386,1328,1325,1229,1083,1180,1390,1539,1571,1458,1375,1314,1313,1596,1789,1635,1742,2677,3176,2284,1694,1545,1387,1256,1287,1380,1413,1399,1340,1251,1022,761,467,221,36,-45,-94,-68,7,88,304,739,961,924,808,621,384,174,38,-171,-300,-446,-689,-900,-876,-840,-869,-970,-1155,-1495,-1352,-790,-329,-503,-734,-952,-1087,-1163,-1272,-1355,-1344,-1325,-1241,-1057,-760,-447,-236,-124,-166,-404,-812,-1231,-1315,-1111,-973,-1155,-1287,-1403,-1243,-881
2018-09-18,16:28:25.117,-595,-324,-122,61,103,-469,-1273,-828,828,990,467,636,962,1303,1498,1653,1711,1693,1545,1415,1354,1260,1085,948,900,934,950,1051,1222,1341,1308,1194,1002,768,546,463,432,361,259,188,126,138,312,489,516,448,412,337,214,197,222,158,281,517,624,642,628,540,407,287,100,-102,-304,-578,-806,-892,-1014,-934,-810,-675,-394,-138,25,-18,-317,-569,-751,-1038,-1224,-1309,-1378,-1414,-1415,-1347,-1327,-1359,-1054,28,664,73,-300,-294,-351,-624,-1003,-1058,-1011,-1242,-1413,-1498,-1501,-1123,-634,-207,132,435,701,897,1049,1132,1063,822,567,465,675,1031,1394,1710,1881,1881,1765,1602,1453,1253,1015,745,493,371
2018-09-18,16:28:26.144,469,590,776,985,1076,1060,988,910,773,590,454,388,324,231,186,239,252,259,264,219,114,63,-82,-286,-490,-594,-583,-369,16,475,745,933,882,359,-154,53,385,-504,-1372,-1644,-1833,-1961,-1937,-1859,-1839,-1787,-1791,-1837,-1665,-1288,-1053,-1034,-1254,-1589,-1514,-1314,-1347,-1424,-1477,-1384,-1270,-1153,-1006,-873,-733,-610,-496,-378,-263,-233,-362,-635,-904,-972,-871,-677,-577,-647,-722,-830,-936,-968,-938,-861,-764,-689,-629,-606,-562,-436,-305,-172,-43,76,188,305,404,457,564,714,874,1036,1111,1157,1030,974,1250,1513,1542,1658,2385,3043,2401,1609,1399,1145,879,624,454,414,416,564,819,896,685,464,308,145
2018-09-18,16:28:27.172,-199,-362,-441,-340,-64,198,391,619,883,893,827,791,702,536,405,332,175,40,-92,-290,-424,-455,-508,-563,-647,-671,-689,-618,-175,73,-326,-637,-739,-789,-881,-1009,-1063,-1099,-1150,-1062,-990,-833,-691,-537,-265,-61,-20,-74,-331,-696,-694,-391,-205,-165,-144,-191,-425,-638,-186,823,905,304,260,361,486,541,579,525,372,322,333,314,306,341,372,423,476,447,326,291,339,329,199,72,80,332,778,1398,1896,2043,1857,1552,1247,998,759,512,307,180,114,114,60,124,569,916,1059,936,805,648,450,357,411,390,213,150,261,490,790,754,440,191,-12,-137,-243,-370,-566,-836,-1022,-1018
2018-09-18,16:28:28.200,-558,-159,-85,-268,-577,-1202,-1652,-955,349,-279,-1404,-1654,-1620,-1517,-1383,-1203,-1038,-897,-780,-690,-598,-477,-387,-301,-214,-137,-67,-33,-36,-107,-208,-301,-352,-340,-295,-108,18,125,161,183,225,292,301,301,315,477,661,730,708,627,535,529,575,597,525,478,477,439,459,524,649,863,1078,1230,1331,1406,1384,1286,1169,1093,909,640,456,269,93,-67,-220,-296,-324,-328,-341,-490,-655,-351,244,-27,-653,-525,-416,-466,-550,-580,-585,-587,-586,-576,-560,-530,-489,-464,-439,-420,-379,-413,-353,-297,-304,-309,-307,-282,-292,-315,-312,-299,-291,-295,-296,-296,-285,-307,-380,-386,-358,-366,-351,-354,-358,-321
2018-09-18,16:28:29.228,-236,-201,-204,-194,-199,-240,-302,-419,-609,-710,-735,-727,-677,-599,-537,-450,-325,-224,-153,-108,-122,-126,-74,-17,-8,25,64,121,40,-20,339,963,662,23,105,188,174,137,140,181,203,196,208,218,224,257,274,266,292,279,273,264,257,248,234,218,228,291,321,331,341,393,373,248,151,79,2,-34,-14,92,122,76,7,-18,-8,20,-45,-25,320,626,730,661,609,569,496,377,301,256,201,127,66,86,93,60,11,-77,-118,-126,-138,-137,-56,-17,-79,-217,-393,-278,352,326,-545,-682,-515,-454,-458,-440,-402,-373,-366,-368,-383,-386,-427,-462,-508,-537,-614,-667,-633,-582
2018-09-18,16:28:30.256,-547,-521,-450,-384,-315,-246,-186,-113,-80,-33,33,33,12,-45,-88,-159,-156,-135,-119,-74,-23,31,95,120,166,213,218,250,228,223,241,243,261,306,311,320,327,354,384,418,473,526,551,556,497,472,476,499,561,589,602,614,502,413,882,1626,1313,579,689,853,873,846,821,812,807,825,810,948,954,888,798,814,813,781,719,670,617,582,564,619,650,631,586,613,567,520,439,370,282,156,42,-5,-58,-115,-153,-111,-148,-154,-53,267,523,608,547,517,440,353,272,164,56,-107,-251,-356,-524,-712,-878,-1016,-1165,-1300,-1398,-1546,-1748,-1910,-2106,-2262,-2330,-2392,-2432,-2437
2018-09-18,16:28:31.284,-2458,-2491,-2566,-2683,-2518,-1847,-1791,-2343,-2196,-1880,-1731,-1665,-1398,-965,-714,-632,-578,-545,-524,-511,-572,-566,-574,-539,-517,-521,-534,-513,-498,-486,-443,-343,-262,-186,-155,-122,-78,89,249,288,414,480,470,467,473,414,359,482,538,457,463,405,332,276,242,270,287,305,341,468,566,594,614,653,705,781,836,790,806,817,845,1144,1672,1577,1597,1503,1531,1591,1362,1387,1623,1448,1151,1257,2157,2320,1238,926,901,722,648,655,597,477,383,271,241,205,189,197,157,153,111,4,-98,-451,-787,-917,-978,-1019,-1027,-956,-920,-887,-792,-708,-647,-603,-581,-476,-365,-342,-343,-307,-238,-153,-132,-85
2018-09-18,16:28:32.312,38,169,301,429,403,255,-7,-164,-294,-226,-78,-48,-56,-93,-105,-67,11,108,233,378,508,690,789,882,942,992,981,884,792,773,737,288,-188,-359,-443,-713,-654,58,356,-260,-442,-201,-129,-111,-37,93,190,332,428,466,523,612,663,653,609,584,540,425,230,66,1,-24,-107,-169,-94,-73,-68,-88,-118,-160,-199,-277,-397,-530,-658,-746,-821,-906,-964,-989,-1003,-1019,-978,-936,-948,-935,-979,-995,-1055,-1120,-1164,-1200,-1238,-1250,-1392,-1528,-1643,-1760,-1799,-1774,-1594,-1435,-1336,-1194,-1103,-1064,-963,-786,-708,-612,-540,-405,-352,-391,-337,148,666,253,-84,99,203,195,211,266,392,460,477,585
2018-09-18,16:28:33.340,586,631,756,862,907,1024,1098,1166,1148,1137,1152,1204,1262,1274,1305,1278,1274,1291,1262,1248,1235,1174,1078,948,820,737,714,655,626,658,644,627,603,637,655,618,558,501,491,453,395,352,333,336,339,284,256,200,162,167,96,53,114,120,64,18,-23,-70,-97,-110,-144,-207,-248,-277,-293,-290,-115,404,312,-506,-591,-282,-207,-280,-332,-321,-331,-326,-379,-408,-333,-219,-140,-117,-27,69,114,111,121,146,146,115,67,87,132,172,129,126,139,42,50,19,-99,-219,-375,-505,-465,-486,-525,-510,-463,-373,-353,-360,-341,-365,-356,-335,-290,-274,-224,-170,-184,-157,-142,-181,-199,-180
2018-09-18,16:28:34.368,-207,-211,-234,-256,-246,-284,-309,-231,-198,-186,-173,-153,-172,-106,-127,-182,-170,-148,-118,-155,-330,-230,536,954,51,-357,-41,33,-25,-72,-70,-77,-46,-28,-18,-6,3,-17,-48,-7,-7,13,33,45,96,91,103,148,185,227,287,255,232,261,295,270,244,146,50,-60,-150,-169,-166,-159,-172,-154,-93,-82,-81,-68,-20,-7,-16,-26,6,19,9,-8,-23,7,43,49,37,29,34,39,71,51,42,90,159,189,195,207,204,216,260,326,348,335,328,280,200,168,190,180,188,197,167,22,-3,455,908,410,-205,-34,94,131,65,16,-4,-12,-16,-27,-32,-76,-62,-86
2018-09-18,16:28:35.395,-61,-87,-99,-96,-97,-87,-128,-167,-199,-204,-188,-188,-196,-203,-194,-174,-174,-177,-234,-341,-435,-516,-557,-575,-602,-589,-576,-541,-474,-389,-295,-201,-129,-9,133,195,201,186,173,186,177,160,133,99,18,-184,-466,-612,-597,-564,-533,-511,-438,-367,-299,-232,-168,-74,81,283,446,506,477,450,454,457,483,505,475,420,270,239,715,1342,953,322,571,741,780,769,801,859,982,1173,1360,1455,1488,1451,1411,1354,1273,1168,1073,967,840,781,717,654,593,485,364,185,-81,-315,-463,-541,-572,-619,-653,-749,-836,-865,-901,-914,-1218,-1826,-2069,-2031,-1945,-1870,-1768,-1637,-1473,-1335,-1234,-1112,-992,-873
2018-09-18,16:28:36.423,-803,-714,-585,-504,-535,-622,-720,-747,-677,-660,-663,-531,-450,-412,-394,-367,-313,-295,-286,-208,-62,-8,-10,-24,-60,-103,-135,-220,-247,-248,-260,-230,-250,-248,176,1062,1119,287,206,408,401,231,283,557,651,521,373,385,388,463,556,473,502,569,626,663,673,646,522,303,-25,-250,-234,-277,-432,-637,-531,-230,-56,-3,-115,-597,-1054,-976,-635,-258,27,175,257,370,484,615,723,760,724,653,592,617,630,546,495,538,637,767,914,1031,1021,843,482,266,66,-157,-311,-362,-296,-176,-68,-47,-53,-93,-136,-122,-86,1,-64,-207,-203,-218,11,656,771,109,80,327,360,338,339,274
2018-09-18,16:28:37.451,152,117,66,45,102,134,179,170,186,158,106,91,93,-7,-193,-155,-116,-165,-315,-415,-523,-588,-665,-702,-734,-721,-861,-1091,-1113,-910,-636,-441,-286,-181,-275,-537,-767,-831,-768,-804,-583,-78,304,514,677,791,908,1008,941,724,553,605,730,717,665,803,1011,1130,1154,1082,958,906,865,811,751,677,632,497,194,218,774,1170,561,509,1085,983,626,326,90,-31,20,120,55,-231,-515,-581,-643,-881,-1205,-1411,-1431,-1158,-872,-675,-437,-169,60,38,-89,-97,-151,-185,-177,-93,-84,-252,-525,-660,-744,-679,-590,-566,-724,-905,-863,-657,-483,-573,-781,-1007,-1174,-1289,-1286,-1295,-1319,-1317,-1274,-1159
2018-09-18,16:28:38.479,-990,-741,-549,-302,-43,11,52,167,223,201,176,48,-96,-239,-321,-315,-289,-302,-210,-269,-283,398,1590,1479,518,377,313,308,249,260,315,378,406,387,322,257,175,109,23,-91,-74,-10,73,161,330,520,628,644,431,182,81,148,275,775,1155,1186,1071,883,652,353,172,151,171,179,192,229,275,356,461,392,217,177,220,102,141,289,249,259,184,116,77,-1,-53,-113,-143,-106,-76,20,253,208,-270,-639,-793,-860,-851,-908,-994,-1081,-1201,-1366,-1111,-139,123,-652,-801,-585,-340,-188,-144,-74,8,80,130,185,187,149,111,75,150,260,315,323,331,353,397,403,434,504
2018-09-18,16:28:39.507,534,557,597,603,600,658,718,667,544,421,334,256,141,110,159,234,387,480,375,319,305,295,257,241,393,490,432,411,494,539,526,486,406,265,105,-34,-74,5,85,116,94,99,215,390,501,345,128,-132,-558,-752,-386,505,571,-383,-585,-592,-635,-600,-601,-562,-433,-535,-790,-1011,-1056,-1188,-1336,-1420,-1483,-1464,-1453,-1347,-1203,-1114,-950,-739,-588,-441,-277,-163,-97,-104,-107,-57,2,27,-35,-118,-202,-256,-213,-141,-78,6,128,233,318,332,336,409,404,480,533,512,515,486,477,521,610,585,495,405,390,385,417,582,762,911,1069,1299,1392,1238,983,800,773,788,689,305
2018-09-18,16:28:40.535,-74,101,1054,1133,246,140,57,-110,-238,-292,-354,-441,-507,-550,-525,-541,-577,-374,29,349,509,467,262,91,-33,-186,-244,-248,-306,-242,-126,-161,-248,-290,-196,-219,-259,-429,-748,-987,-1126,-1227,-1251,-1233,-1208,-1167,-1143,-1039,-939,-800,-623,-510,-367,-210,-110,-60,-73,-64,64,194,307,346,230,109,57,-2,68,307,455,518,522,546,576,609,637,608,568,522,500,482,461,490,485,430,128,-29,741,2463,2529,1264,761,504,361,324,351,371,241,59,148,229,135,248,229,48,-117,-198,-298,-338,-326,-253,-145,-95,-79,-121,-101,-157,-380,-611,-745,-821,-817,-707,-463,-244,22,10,-214,-283
2018-09-18,16:28:41.563,-314,-464,-597,-685,-727,-738,-666,-570,-464,-488,-523,-485,-390,-283,-306,-359,-547,-706,-825,-861,-863,-839,-792,-757,-743,-742,-632,-581,-546,-455,-377,-322,-228,-143,-28,131,250,372,388,297,251,259,247,169,69,-4,-39,-215,-389,3,922,910,122,101,186,230,308,393,464,532,640,733,674,601,646,670,692,808,955,1120,1236,1332,1382,1244,966,722,444,508,648,399,259,415,578,414,271,229,158,117,54,-117,-217,-185,-131,-88,-44,-9,95,194,276,276,243,321,257,166,121,128,70,11,-29,-103,-187,-250,-334,-346,-364,-451,-405,-451,-567,-591,-616,-592,-743,-868,-944,-947,-861,-781
2018-09-18,16:28:42.591,-744,-845,-1043,-844,-10,407,-252,-657,-552,-421,-343,-381,-384,-340,-277,-205,-159,-106,-15,91,87,156,260,330,339,341,387,419,567,691,664,618,612,598,546,503,486,434,337,182,83,72,183,329,500,604,598,564,567,561,350,-12,-107,-29,52,117,131,65,20,171,398,450,334,197,111,17,-128,-264,-407,-395,-282,-245,-116,-48,-26,-68,-96,-48,-101,-223,-373,-585,-881,-1247,-1176,-48,815,-71,-766,-594,-254,-225,-398,-596,-783,-926,-1091,-1266,-1307,-1281,-1272,-1242,-1184,-1028,-804,-566,-385,-211,-32,-23,-24,99,192,305,348,318,321,277,175,82,127,205,256,292,332,395,386,366
2018-09-18,16:28:43.618,302,117,-282,-663,-1173,-1305,-1046,-756,-609,-624,-385,-8,257,599,1194,1457,1437,1329,1259,1315,1501,1631,1688,1813,1868,1773,1708,1549,1231,989,743,456,284,143,166,693,1161,677,195,108,-164,-343,-397,-304,-100,2,53,117,187,126,72,209,307,273,184,66,-77,-196,-295,-328,-322,-363,-452,-530,-342,181,317,-6,-538,-882,-1078,-1204,-1431,-1499,-1462,-1531,-1501,-1364,-1141,-954,-843,-685,-504,-420,-453,-463,-506,-596,-843,-1372,-1852,-2094,-2125,-2047,-1798,-1467,-1184,-936,-653,-468,-318,-155,-49,111,299,503,673,624,582,716,1124,1221,836,744,874,915,944,949,900,894,932,1008,1218,1564,1832,1868,1688,1469
2018-09-18,16:28:44.646,1249,953,737,625,552,494,429,501,578,701,714,617,498,356,262,180,42,-33,-36,25,152,228,329,382,221,42,-22,-17,-22,53,44,110,168,204,178,153,78,32,164,309,326,218,-36,-263,-475,-634,-772,-857,-907,-944,-879,-795,-699,-657,-449,150,318,-36,-81,70,244,150,-68,-183,-402,-772,-997,-1161,-1361,-1375,-1057,-791,-585,-368,-154,42,233,365,401,475,629,684,644,596,557,528,393,330,443,526,548,616,696,802,897,957,981,1053,1218,1535,1891,2014,1844,1518,1222,983,840,704,617,581,513,380,286,307,242,39,-141,-165,-122,-112,-44,73,95,-1,-128,-280,-727,-966
2018-09-18,16:28:45.674,-434,-126,-778,-945,-842,-886,-934,-1080,-1305,-1734,-1913,-1932,-1713,-1463,-1744,-1945,-1993,-2006,-2007,-1991,-1937,-1831,-1618,-1405,-1216,-970,-802,-706,-546,-432,-393,-382,-389,-492,-635,-715,-764,-786,-778,-766,-805,-1041,-1461,-1604,-1479,-1265,-1054,-814,-543,-188,29,117,203,223,195,345,526,515,486,522,522,458,374,273,282,373,483,649,784,786,634,427,564,1251,1088,363,309,279,220,232,276,328,454,548,654,738,688,549,398,216,-44,-158,-116,55,152,262,395,545,615,661,858,1033,1137,1337,1445,1594,1657,1482,1346,1230,1090,950,726,635,626,631,642,609,432,322,276,264,142,0,-75,-44,24,66
2018-09-18,16:28:46.702,99,122,192,393,552,479,376,298,188,19,-119,-214,-369,-441,-344,-407,-446,23,776,610,55,289,514,571,573,599,587,547,513,507,491,484,503,482,457,451,392,329,286,281,325,364,453,564,670,811,899,654,40,-364,-565,-705,-840,-1143,-1526,-1613,-1354,-983,-660,-528,-544,-583,-575,-495,-490,-587,-603,-614,-590,-432,-283,-230,-211,-277,-281,-353,-378,-435,-505,-574,-571,-487,-380,-312,-281,-189,-92,-35,-190,-345,-119,729,1020,-103,-840,-856,-823,-946,-1090,-1013,-809,-613,-456,-373,-313,-296,-269,-207,-124,-74,-123,-221,-344,-407,-394,-341,-349,-603,-769,-728,-569,-387,-252,-171,-176,-343,-629,-928
2018-09-18,16:28:47.730,-813,-359,57,314,637,876,947,1029,1144,1230,1256,1212,1175,968,442,131,22,-13,-66,-111,-59,47,186,379,522,462,265,103,163,278,338,430,468,377,102,-300,-465,261,845,92,-327,-318,-450,-434,-257,-125,-111,-148,-201,-306,-411,-515,-673,-773,-765,-862,-881,-789,-694,-635,-540,-522,-445,-253,-115,-7,16,-153,-186,-123,-158,-279,-317,-225,-206,-143,-63,29,188,348,473,584,609,560,457,416,484,541,537,423,217,95,159,366,532,612,209,-522,-597,36,676,1010,1160,1257,1275,1213,1136,1066,1013,891,689,825,1339,1246,636,647,805,841,713,551,506,492,435,404,355,325,256,212
2018-09-18,16:28:48.758,182,159,96,14,-46,-173,-217,-217,-248,-88,1,-114,-334,-566,-798,-867,-851,-827,-832,-886,-995,-960,-985,-1124,-1086,-1050,-1167,-1129,-921,-824,-746,-520,-313,-291,-272,-239,-266,-318,-397,-218,-167,-129,7,-50,-114,-111,-147,-262,-343,-501,-517,-600,-650,-815,-799,-716,-569,-540,-366,265,511,22,-191,-123,19,-58,-329,-637,-841,-825,-557,-293,13,133,177,242,337,422,492,536,562,567,548,558,595,640,689,691,613,573,567,571,519,623,758,567,370,469,718,931,958,843,770,638,453,395,407,457,427,325,227,114,-71,-265,-315,-274,-254,-260,-207,-42,115,216,310,366,241,27,7,42
2018-09-18,16:28:49.786,-5,-25,-31,-101,23,545,520,-155,-290,-211,-253,-248,-111,-142,-369,-571,-719,-736,-849,-1007,-1112,-1234,-1192,-1093,-1121,-1037,-898,-810,-704,-567,-476,-411,-381,-353,-359,-391,-460,-431,-449,-519,-547,-543,-525,-390,-278,-212,-64,266,483,561,598,599,560,529,526,582,681,780,840,904,958,987,966,938,932,894,860,791,731,735,767,763,734,621,483,337,170,225,801,923,263,159,368,404,154,-19,-151,-252,-427,-542,-519,-440,-398,-339,-289,-221,-117,21,97,45,12,-45,-68,-44,-17,-19,-57,-56,-105,-224,-241,-235,-334,-397,-428,-397,-231,-328,-587,-693,-738,-721,-425,-157,-146,-124,159,412
2018-09-18,16:28:50.814,484,469,483,539,529,500,496,495,438,488,570,531,435,255,26,-30,10,39,-39,-71,95,196,-12,-27,679,1076,253,-111,-107,-62,-88,-130,-148,-194,-297,-401,-456,-354,-151,-25,-10,-58,-3,124,160,63,272,484,528,447,320,196,118,50,-43,-43,27,3,-55,-110,-143,-252,-465,-596,-692,-788,-856,-809,-675,-598,-477,-374,-259,-30,133,142,6,-181,-281,-288,-410,-354,-278,-292,-220,-299,-445,-473,-524,-516,-423,-268,-311,-429,-619,-787,-958,-938,-387,-68,-701,-1016,-844,-670,-475,-416,-371,-295,-192,-118,-86,-55,44,160,156,150,193,163,78,19,50,150,213,259,330,391,480,532
2018-09-18,16:28:51.842,559,575,608,729,809,709,588,477,375,291,174,141,120,99,152,105,121,264,266,226,215,238,294,339,395,402,375,457,567,631,636,559,433,267,105,20,-58,-150,-173,-149,-185,-144,283,637,186,-63,182,482,574,462,444,487,411,319,248,104,-81,-200,-315,-397,-361,-318,-392,-407,-372,-367,-338,-430,-529,-544,-595,-631,-606,-588,-204,9,40,34,34,20,14,15,-1,39,90,96,30,-5,13,19,21,33,70,161,205,202,236,275,230,166,185,216,185,103,20,87,176,209,261,349,295,176,-42,-140,348,1051,627,13,77,114,95,88,72,106,158,135,62,-43
2018-09-18,16:28:52.869,-156,-271,-392,-502,-514,-405,-353,-236,-104,7,57,76,91,56,-17,-47,-9,-72,-103,-93,-42,44,38,-24,-84,-135,-166,-222,-344,-381,-383,-333,-325,-267,-176,-154,-144,-193,-180,-156,-221,-217,-187,-357,-439,-402,-259,-182,-237,-449,-531,-536,-532,-487,-360,-190,-74,-140,-210,208,1197,1161,218,-46,14,174,258,284,306,307,317,306,279,284,335,501,569,550,529,478,373,286,272,246,258,387,488,496,487,491,476,448,324,34,-74,-126,-165,-245,-271,-245,-243,-320,-338,-303,-313,-322,-377,-548,-595,-525,-452,-397,-375,-426,-440,-498,-532,-488,-425,-359,-252,-246,-408,-361,-119,-324,-545,-643
2018-09-18,16:28:53.897,-699,-683,-775,-840,-610,190,442,-237,-353,-219,-188,-277,-261,-147,-172,-54,262,358,156,31,41,71,64,16,-81,-107,-23,155,237,358,500,595,659,666,693,695,612,452,328,254,179,172,306,467,522,509,475,417,350,362,402,428,452,441,451,545,732,978,1009,974,1007,1010,864,729,714,692,580,401,212,-37,-122,-70,-110,-173,-91,-101,-176,148,563,84,-367,-193,-212,-372,-476,-540,-619,-709,-733,-688,-578,-504,-448,-403,-374,-348,-413,-460,-357,-236,-188,-233,-190,63,250,355,411,383,264,232,236,139,4,-91,-157,-281,-273,-282,-343,-290,-254,-376,-511,-530,-538,-646,-742,-762
2018-09-18,16:28:54.925,-706,-651,-550,-376,-328,-338,-333,-218,-145,-130,-157,-254,-342,-375,-367,-318,-241,-101,-22,-69,-230,-105,641,979,281,38,185,256,251,248,253,255,218,194,189,182,134,106,147,284,318,308,302,292,337,419,429,435,567,693,608,479,464,501,484,368,255,168,72,-9,-78,-122,-195,-271,-339,-397,-398,-388,-366,-321,-338,-533,-577,-496,-402,-299,-230,-176,-58,-63,-97,-54,-13,24,59,25,-12,-41,-93,-34,-145,-305,-393,-539,-635,-268,1001,1262,70,-602,-667,-559,-686,-969,-1083,-1010,-867,-641,-593,-466,-206,-92,-28,93,137,142,164,210,248,302,311,276,288,306,290,192,126,141
2018-09-18,16:28:55.953,159,293,363,335,239,157,94,89,105,116,113,116,141,165,204,210,204,170,142,181,155,117,84,-11,-199,-222,69,306,435,526,430,323,231,146,70,107,122,169,254,184,57,360,1396,1435,315,-31,-110,-191,-223,-184,-159,-100,-28,9,65,33,-17,16,44,92,136,69,38,37,1,109,102,-15,12,84,119,77,124,94,-25,-219,-268,-248,-397,-534,-621,-682,-647,-630,-547,-433,-362,-307,-264,-232,-198,-193,-123,-14,28,57,48,-12,-116,-109,-66,14,63,138,278,331,346,249,19,92,184,214,298,344,321,191,11,204,882,817,99,72,182,183,177,177,73,4
2018-09-18,16:28:56.981,117,189,173,179,257,299,290,210,155,103,24,-7,-48,-140,-176,-200,-171,-66,113,262,411,295,194,168,55,-58,-72,-109,-53,86,105,21,-71,-158,-198,-363,-437,-444,-483,-491,-498,-446,-402,-379,-433,-410,-422,-435,-592,-533,35,317,99,-162,-360,-450,-518,-653,-706,-642,-552,-457,-508,-487,79,817,473,-273,-343,-219,-87,-93,-92,-12,154,291,292,232,177,188,227,241,257,282,269,229,216,198,167,136,103,91,149,208,243,253,181,126,31,-63,-46,-35,-21,8,-38,-92,-53,-15,14,100,152,181,114,0,-46,-103,-76,30,108,145,128,43,-62,-167,-190,-183,-227,-267
2018-09-18,16:28:58.009,-255,-159,-51,13,18,-74,-189,-298,-456,-207,563,502,-153,-295,-264,-258,-309,-405,-488,-554,-536,-446,-253,-224,-195,-212,-369,-493,-464,-538,-545,-523,-466,-379,-271,-196,-70,39,148,228,271,328,435,494,496,480,420,364,311,230,136,90,65,257,323,315,459,470,483,485,480,511,556,581,578,577,607,682,865,1022,1079,1076,1011,913,863,799,731,726,705,705,516,368,673,1451,1348,457,233,179,4,-134,-176,-132,-80,-39,-80,-171,-283,-362,-430,-414,-430,-503,-494,-466,-471,-472,-455,-406,-360,-342,-315,-325,-360,-390,-461,-429,-385,-411,-429,-483,-540,-514,-430,-520,-568,-570,-566,-505
2018-09-18,16:28:59.037,-212,-148,-365,-557,-513,-371,-350,-426,-446,-410,-405,-369,-311,-242,-248,-246,-222,-171,-168,-170,-113,-46,-4,-28,-33,-76,-330,-481,46,938,448,-261,-259,-123,-41,-58,-84,-74,-81,-117,-154,-122,-45,7,78,187,180,113,113,145,154,209,281,404,463,423,307,255,293,313,323,364,377,369,364,313,265,208,147,79,-2,-149,-237,-329,-309,-225,-135,-82,-41,49,122,207,285,371,315,195,119,77,118,79,16,-24,-149,-217,-197,-167,-192,-205,-220,-381,-517,3,1346,1686,275,-426,-496,-455,-409,-452,-471,-453,-378,-269,-134,-17,71,159,246,280,245,297,280,216,133,271,551,565
2018-09-18,16:29:00.065,414,319,239,197,198,266,308,327,243,39,-122,-205,-231,-181,-127,-108,-131,-154,-175,-230,-294,-293,-244,-244,-281,-345,-336,-306,-309,-278,-251,-309,-304,-172,-111,-100,-185,-368,-425,-353,-249,-194,-125,-50,35,120,320,907,829,-11,-132,-6,-60,-81,-51,26,93,158,276,398,503,584,569,505,382,319,283,246,183,151,184,138,90,-46,-131,-172,-234,-259,-236,-62,-49,-195,-405,-499,-519,-592,-673,-702,-658,-556,-492,-402,-315,-178,-91,-60,-33,-39,-52,-54,-37,-18,-1,25,84,117,110,76,38,23,48,53,72,138,186,140,-6,30,635,995,423,101,220,248,259,207,194,232
2018-09-18,16:29:01.093,317,365,458,517,450,312,245,302,343,253,214,237,276,310,251,187,189,199,201,222,265,330,217,77,-72,-223,-319,-309,-292,-249,-198,-122,-70,34,162,107,-99,-183,-181,-157,-172,-214,-197,-255,-257,-207,-97,-16,-102,-245,-348,-394,-391,-335,-233,-255,-284,-394,-525,-401,289,707,-21,-462,-477,-417,-359,-430,-599,-624,-531,-429,-360,-286,-205,-182,-190,-173,-189,-215,-207,-217,-224,-169,-83,-21,42,98,145,176,188,184,172,137,88,50,29,45,80,71,61,77,76,95,124,139,131,186,221,212,242,275,235,187,229,265,257,247,232,102,-17,-62,-40,33,66,42,5,-86
2018-09-18,16:29:02.120,-112,434,1226,887,151,121,110,72,96,315,466,545,513,402,327,279,253,227,255,258,222,183,179,101,-8,-68,-115,-149,-167,-233,-212,-209,-64,-97,-279,-351,-454,-582,-746,-760,-733,-690,-604,-531,-481,-460,-392,-358,-301,-203,-151,-114,-87,-35,199,276,264,272,247,253,195,173,187,161,242,407,423,377,276,-11,-47,783,1365,557,152,60,43,40,20,0,-46,-42,15,3,-43,-26,-17,2,12,24,61,24,-34,-21,0,-133,-300,-431,-474,-487,-459,-324,-234,-169,-115,-62,-20,17,-1,-67,-149,-96,-50,-14,26,64,103,128,49,-135,-206,-169,-161,26,274,398,388,393
2018-09-18,16:29:03.148,377,341,362,303,209,18,-121,-145,-220,-287,-455,-809,-881,-43,837,16,-642,-649,-536,-545,-546,-482,-458,-369,-272,-175,-158,-157,-101,9,107,184,251,250,177,136,128,153,194,257,318,355,368,374,398,450,461,420,386,380,395,364,294,203,162,227,292,340,375,345,335,315,326,254,66,81,118,80,93,169,212,238,262,275,302,177,50,-42,-117,-235,-287,-341,-474,-632,-341,572,605,-191,-327,-243,-225,-245,-168,-142,-130,-147,-188,-189,-226,-268,-303,-273,-314,-321,-366,-446,-439,-391,-385,-400,-315,-313,-359,-463,-456,-444,-477,-587,-684,-715,-735,-766,-765,-673,-620,-559,-454,-301
2018-09-18,16:29:04.176,-230,-168,-134,-25,-17,0,47,-25,-28,-19,38,196,259,271,258,296,367,412,471,460,426,445,414,374,337,333,342,282,143,228,721,597,-9,-6,154,244,252,255,252,284,337,333,308,286,289,319,327,275,163,127,84,14,23,60,165,288,266,382,410,330,253,258,292,284,230,202,143,117,192,198,40,-184,-200,-176,-156,-186,-113,-105,-141,-168,-93,-99,-168,-33,-65,-144,-193,-260,-457,-463,-136,-170,-223,-346,-374,-277,-381,-543,-380,-310,-327,-363,-278,401,882,301,-359,-323,-190,-140,-153,-112,-53,-64,-55,15,-17,-94,-62,81,157,188,253,300,343,422,516,574
2018-09-18,16:29:05.204,602,596,574,536,489,435,392,350,407,402,301,174,124,73,0,-85,-103,-90,-109,-82,-79,-132,-183,-284,-352,-380,-280,-130,-97,-182,-243,-241,-238,-257,-261,-181,-194,-220,-190,-166,-103,-56,24,10,43,96,50,-53,68,642,794,46,-113,-72,-41,-125,-244,-251,-251,-271,-312,-358,-389,-299,-290,-323,-277,-280,-383,-407,-307,-239,-232,-205,-160,-191,-159,-61,-10,32,101,163,192,149,-28,-161,-218,-264,-264,-278,-334,-307,-238,-169,-91,0,87,148,175,109,50,70,139,176,211,226,222,266,306,276,218,139,87,90,84,45,2,10,24,-95,-229,98,1013,993,176,135,198,166
2018-09-18,16:29:06.232,110,55,4,-93,-197,-56,78,39,-27,-4,-20,-111,26,162,88,-12,-8,-23,-5,62,142,241,353,496,552,553,481,381,255,239,211,143,98,55,0,-62,-57,-121,-179,-154,-198,-205,-7,0,-152,-332,-380,-315,-334,-422,-523,-465,-375,-294,-210,-151,-124,-184,-200,-179,-163,-158,-148,-112,-122,-348,-505,55,1012,715,-106,-197,-151,0,38,99,136,174,228,282,309,307,309,319,300,281,269,257,238,258,301,306,306,249,184,168,127,14,-140,-74,122,214,150,40,-107,-166,-65,1,-14,-60,-118,-171,-185,-218,-223,-245,-251,-271,-327,-365,-320,-266,-213,-112,32,192,366,446
2018-09-18,16:29:07.260,375,313,308,314,220,125,-18,-55,-135,-240,-428,-625,-130,888,583,-372,-450,-534,-432,-461,-627,-722,-661,-588,-598,-648,-618,-511,-491,-515,-442,-369,-321,-259,-184,-138,-96,-44,7,41,17,6,13,10,7,18,72,124,116,149,195,193,175,195,218,261,294,381,430,379,333,299,252,190,123,97,118,160,160,135,285,534,560,437,262,249,336,393,396,400,335,276,201,46,157,927,1279,626,353,192,-124,-409,-226,-17,61,-111,-256,-271,-171,-61,11,65,121,202,123,60,13,-28,0,-63,-101,-50,-9,7,-71,-104,-167,-206,-313,-498,-763,-637,-417,-525,-701,-834,-798,-850
2018-09-18,16:29:08.288,-827,-823,-759,-805,-818,-757,-689,-614,-536,-411,-238,-127,-20,105,231,346,423,373,274,189,138,108,119,184,281,421,522,394,273,769,1801,1592,793,598,490,452,441,470,501,516,479,428,423,403,348,310,270,162,81,142,176,152,108,106,66,25,-73,-166,-179,-75,49,59,16,-11,-67,-163,-258,-308,-327,-304,-332,-389,-459,-469,-502,-491,-472,-442,-385,-361,-316,-157,-8,15,-75,-211,-290,-369,-454,-463,-435,-389,-400,-480,-570,-558,-583,-558,-613,-684,-813,-813,-802,-626,339,1048,41,-605,-726,-615,-608,-610,-541,-489,-437,-357,-304,-254,-160,-15,121,195,251,250,220,180,120,139
2018-09-18,16:29:09.316,368,583,628,607,608,590,553,508,493,433,308,216,162,120,133,157,178,233,348,472,532,587,724,860,895,904,876,830,817,768,714,677,558,366,272,246,312,473,495,430,319,257,210,223,352,500,498,434,267,-16,-112,544,1125,387,-10,-10,-55,-78,-55,-7,-14,0,-54,-190,-277,-339,-400,-396,-391,-413,-376,-307,-391,-686,-808,-868,-877,-877,-816,-737,-600,-534,-571,-664,-825,-860,-875,-1004,-1046,-1041,-1014,-947,-878,-767,-615,-432,-303,-177,-140,-75,-69,-33,-54,53,230,342,385,359,292,253,276,280,312,376,443,474,462,386,280,226,216,222,199,184,171,2,-136,338
2018-09-18,16:29:10.343,1281,859,96,31,68,94,129,192,247,293,393,571,597,460,316,211,243,293,300,271,200,108,22,33,185,271,217,198,127,65,15,87,160,75,-12,-16,14,57,99,119,62,-48,-79,-122,-199,-245,-261,-260,-273,-230,-236,-232,-344,-367,-175,-37,-139,-203,-259,-464,-504,-407,-512,-621,-639,-670,-672,-641,-594,-560,-550,-452,-374,-470,-360,418,912,298,19,88,210,251,249,235,146,13,-97,-58,49,173,290,361,390,411,443,480,510,514,461,443,477,534,550,510,492,491,432,343,279,211,111,44,29,50,7,-87,-193,-267,-273,-263,-260,-218,-160,-129,-178,-227,-255,-320
2018-09-18,16:29:11.371,-481,-441,-480,-641,-709,-719,-680,-556,-452,-384,-372,-405,-368,-340,-336,-325,-370,-420,-472,-559,-485,132,311,-457,-551,-252,-154,-127,-140,-10,65,25,57,57,-268,-518,-486,-428,-414,-375,-177,42,259,461,584,628,661,699,736,725,697,724,756,695,588,488,398,357,314,282,298,479,641,603,524,453,459,473,481,504,523,442,357,326,310,288,266,266,243,184,215,216,165,182,168,111,98,133,122,43,4,41,-10,47,679,1328,787,338,413,344,310,222,175,66,-30,-96,-192,-187,-174,-185,-185,-142,-136,-150,-261,-475,-424,-364,-386,-462,-504,-541,-578,-575,-576,-556,-496,-504
2018-09-18,16:29:12.399,-504,-530,-593,-632,-552,-501,-471,-444,-529,-605,-637,-597,-542,-585,-525,-503,-485,-496,-468,-403,-294,-186,-69,25,103,200,240,173,20,-50,-43,-55,-46,-32,-32,-188,-343,-531,-601,63,1241,1114,331,183,119,101,119,163,171,167,201,201,146,84,66,65,96,338,555,620,605,626,599,505,467,408,402,481,464,383,263,215,454,508,422,148,-76,-137,-88,-86,-110,-154,-219,-256,-168,-95,-90,-96,-95,-144,-189,-184,-203,-267,-323,-325,-310,-303,-233,-208,-210,-154,84,180,78,-41,-47,-112,-198,-286,-267,193,798,168,-640,-707,-656,-625,-632,-545,-521,-544,-461,-355,-367,-384,-337,-271
2018-09-18,16:29:13.427,-175,-82,5,21,26,47,8,-58,-63,3,90,148,205,233,277,312,333,327,310,356,477,419,420,561,623,577,478,439,412,388,359,330,317,266,216,183,152,128,133,65,2,-35,-68,-171,-244,-247,-249,-317,-391,-352,-277,-172,-167,-316,-328,253,361,-405,-596,-559,-643,-556,-471,-410,-282,-198,-159,-68,-14,-5,-6,-39,-116,-6,76,62,85,136,148,144,186,247,191,85,78,259,227,83,-165,-304,-270,-419,-516,-541,-487,-372,-272,-191,-85,0,133,246,310,357,412,453,511,552,567,543,492,470,433,401,394,359,356,369,363,385,433,465,477,339,150,409,1145,849
2018-09-18,16:29:14.455,28,67,214,233,206,205,120,24,29,37,-7,-57,-12,73,59,-42,-153,-252,-393,-441,-402,-367,-259,-151,63,264,347,338,167,70,-93,-337,-376,-346,-370,-367,-367,-329,-226,-128,-84,-143,-309,-437,-449,-402,-406,-392,-387,-344,-411,-268,-168,-244,-218,-141,-106,-188,-251,-409,-592,-672,-657,-637,-676,-694,-798,-763,-315,184,-196,-695,-469,-236,-94,-96,-57,3,84,146,199,258,276,291,334,315,48,-247,-266,-208,-134,26,163,276,375,459,478,540,595,590,546,481,454,412,245,215,246,266,222,233,237,262,286,357,417,397,342,301,241,192,142,27,-73,-19,160,224,209,191
2018-09-18,16:29:15.483,158,99,8,-139,-245,-192,-131,-120,-158,-178,93,680,541,49,154,200,124,11,-96,-143,-173,-145,-97,-77,-59,-66,-4,-98,-198,-292,-336,-302,-250,-192,-104,-91,-193,-287,-230,-211,-214,-199,-227,-278,-359,-444,-417,-268,-203,-222,-198,-171,-161,-166,-169,-165,-196,-276,-296,-247,-175,-154,-179,-172,-34,184,310,406,531,605,560,498,452,436,372,373,456,497,546,447,238,352,1110,1216,354,203,284,275,259,301,276,139,49,56,67,13,29,65,36,-13,-13,5,-6,-26,-31,-16,-34,-70,-99,-99,-138,-82,-41,-63,-56,20,127,123,33,-224,-381,-430,-368,-400,-369,-318,-314,-298
2018-09-18,16:29:16.511,-243,-268,-396,-350,-387,-333,-238,-286,-363,-435,-493,-509,-512,-520,-519,-512,-496,-481,-425,-381,-322,-248,-169,-99,-145,-425,-290,782,1463,487,-167,-249,-192,-187,-216,-171,-84,0,29,32,52,68,52,72,146,222,251,298,341,401,460,434,387,396,441,459,423,403,429,429,307,158,118,42,-82,-159,-98,23,47,30,-53,-172,-237,-246,-220,-176,-97,-39,-118,-237,-259,-193,-132,-97,-51,14,44,114,190,132,111,15,-77,-58,-46,-27,-18,-60,-67,-197,-349,89,878,407,-413,-304,-173,-201,-360,-372,-249,-332,-377,-279,-278,-418,-368,-299,-262,-142,-23,47,83,126,232,304,374,422
2018-09-18,16:29:17.539,409,349,284,246,245,301,327,264,197,155,102,249,404,341,306,266,232,240,286,255,217,196,142,119,154,213,241,255,290,255,175,165,110,101,145,187,195,125,53,32,9,-55,-82,-45,-22,-60,-197,-311,91,571,74,-221,-117,-255,-376,-422,-492,-604,-524,-451,-518,-520,-469,-359,-228,-133,-114,-63,25,-67,-132,-21,213,241,321,452,487,409,315,220,28,-146,-233,-534,-387,-240,-250,-460,-645,-644,-593,-563,-606,-638,-553,-485,-428,-299,-193,-64,150,359,373,236,82,25,69,103,143,238,301,319,295,222,236,373,425,415,405,356,289,79,-69,378,1064,590,-101,-113
2018-09-18,16:29:18.567,-23,63,77,122,139,120,93,130,226,272,259,240,213,162,86,0,6,80,129,135,133,169,287,204,148,98,45,71,136,92,4,-156,-329,-359,-239,-179,-146,-137,-133,-110,-58,3,-19,27,70,20,-24,-54,-68,-76,-135,-214,-252,-287,-315,-330,-311,-201,-159,-99,-142,-268,-341,-392,-348,-386,-397,-521,-553,-702,-849,-220,1123,978,-159,-360,-363,-180,-104,-83,-38,-95,-215,-317,-296,-197,-108,-4,82,150,174,183,201,230,269,305,334,338,369,412,432,396,306,200,185,136,36,-2,19,96,123,155,183,188,147,190,347,336,246,290,244,112,68,107,89,46,-14,-90
2018-09-18,16:29:19.594,-178,-182,-225,-201,-169,-171,-213,-280,-360,-460,-475,-432,-442,-444,-339,-216,-279,-267,122,733,186,-647,-539,-441,-450,-399,-284,-233,-182,-141,-108,106,272,364,320,199,75,41,99,63,0,-24,-29,-72,-20,30,-204,-283,-137,-42,-6,36,85,69,13,-33,-29,-34,-85,-87,-65,-28,30,134,232,239,235,280,317,344,382,426,448,417,438,483,498,550,610,617,576,440,340,284,229,175,184,295,333,203,81,430,991,619,11,96,163,192,80,21,-22,-55,-62,-67,-70,-68,-84,-163,-274,-332,-233,-237,-258,-213,-133,-116,-103,-65,6,64,125,72,-151,-221,-248,-305,-366,-484
2018-09-18,16:29:20.622,-564,-450,-341,-362,-265,-119,-129,-182,-216,-213,-176,-224,-348,-420,-509,-431,-399,-518,-522,-557,-561,-383,-239,-194,-140,-47,0,66,134,135,24,-95,-161,-303,-371,108,900,562,-172,-205,-118,-74,-80,-25,25,46,60,56,52,36,-22,-65,-69,-67,0,45,125,243,314,391,467,437,356,362,441,462,389,337,330,349,301,164,104,71,41,-11,-67,-143,-211,-219,-168,-109,-53,-80,-199,-280,-236,-269,-312,-275,-202,-93,-55,47,174,215,188,113,50,77,73,36,-12,-15,22,-115,-397,-242,773,1215,152,-338,-358,-211,-139,-292,-415,-551,-481,-384,-391,-460,-519,-505,-442,-384,-326,-244
2018-09-18,16:29:21.650,-170,-119,-60,27,97,144,179,213,250,220,205,218,226,176,103,48,44,53,85,123,122,138,156,199,234,258,250,275,309,334,321,362,409,344,220,162,187,297,443,451,344,232,82,88,261,335,302,236,229,167,-63,-82,754,1291,356,-27,-65,-131,-179,-166,-98,-82,-201,-189,-104,-24,-8,31,40,-32,-55,-87,-141,-164,-214,-213,-76,-101,-194,-144,-71,-42,-118,-114,55,110,-6,-240,-427,-462,-655,-697,-628,-626,-790,-765,-714,-670,-645,-539,-435,-374,-348,-273,-215,-139,-24,49,65,76,66,13,-13,-34,-41,4,37,76,153,97,112,56,-128,366,1171,852,278,276
2018-09-18,16:29:22.678,361,471,349,135,259,346,334,368,371,381,369,335,318,322,335,286,290,405,439,412,377,396,447,440,400,429,351,153,-71,-181,-225,-271,-322,-422,-511,-538,-494,-447,-369,-323,-275,-287,-239,-226,-168,-201,-299,-412,-502,-394,-377,-303,-287,-278,-313,-351,-408,-580,-515,-275,-333,-499,-615,-782,-869,-573,83,-201,-971,-982,-807,-621,-562,-485,-335,-209,-208,-171,-108,-24,0,-74,-190,-248,-207,-138,-98,22,171,285,391,464,501,506,490,464,473,479,485,396,268,199,101,65,114,193,260,285,312,407,500,551,578,587,595,598,559,547,511,425,418,442,419,393,364,287,215,238
2018-09-18,16:29:23.706,236,200,180,236,109,-119,-6,628,603,-143,-184,-90,-69,-68,31,145,208,259,234,128,23,-117,-238,-283,-251,-207,-141,-103,-40,-9,-12,-39,-36,112,343,442,362,213,136,-22,-257,-429,-500,-542,-588,-619,-609,-546,-422,-230,-170,-138,-104,-26,109,186,238,260,278,254,211,232,279,266,208,134,50,-4,30,49,21,33,66,18,-191,-83,804,1045,197,-11,-20,46,180,274,331,373,366,294,261,348,409,359,196,75,27,-2,-7,1,58,174,280,276,249,255,230,205,143,57,14,-33,-99,-158,-231,-308,-339,-350,-360,-425,-456,-403,-379,-359,-458,-656,-683,-655,-648,-570
2018-09-18,16:29:24.734,-493,-476,-464,-414,-386,-410,-428,-413,-390,-353,-318,-286,-287,-280,-294,-354,-240,255,399,-261,-449,-218,-99,-129,-140,-70,-41,-27,-8,33,44,34,46,44,73,86,73,34,-143,-257,-216,-136,-91,-49,-21,-27,-22,11,83,61,28,9,-37,-84,-86,-79,-62,-6,39,111,127,107,96,71,19,45,83,78,84,62,61,42,40,78,83,69,86,-55,-83,-103,-85,-46,-39,-40,-50,-127,-78,350,484,-175,-354,-70,42,13,24,45,53,25,0,-52,-86,-77,-28,0,37,10,-12,48,94,131,166,171,187,259,356,426,455,532,571,584,547,450,318,249,247,195,140,201
2018-09-18,16:29:25.762,211,173,161,129,144,129,118,78,67,71,40,0,30,8,-31,-50,-22,42,50,-2,-66,-110,-118,-115,-88,-83,-103,-121,-250,-324,74,719,230,-502,-344,-142,-102,-137,-132,-122,-126,-121,-118,-105,-88,-92,-112,-100,-142,-100,30,-117,-10,161,158,121,161,158,152,174,170,138,87,16,-70,-163,-234,-250,-242,-201,-146,-114,-99,-55,-35,-30,-5,-42,-39,-75,-129,-174,-213,-249,-253,-230,-185,-132,-68,-10,15,70,133,205,290,332,332,300,154,118,133,21,-53,14,-39,-181,-492,-281,787,1191,184,-210,-40,73,-36,-93,-56,-113,-97,-170,-236,-315,-379,-407,-456,-406,-346,-326
2018-09-18,16:29:26.790,-363,-550,-795,-1077,-615,-284,-353,393,709,491,252,52,-29,-27,-32,-45,-49,-137,-201,-298,-491,-442,-154,105,212,441,796,936,936,844,677,570,592,677,680,669,692,697,606,495,456,486,492,416,358,315,150,-80,-194,-253,-272,-226,-138,-42,3,-10,322,632,65,-332,-208,-219,-273,-228,-148,-76,57,115,52,10,-84,-117,-131,-208,-342,-192,-122,-126,-149,-211,-217,-176,-200,-133,68,135,-219,-501,-633,-652,-669,-888,-1068,-1114,-1072,-1029,-959,-863,-709,-587,-522,-425,-395,-296,-230,-240,-219,-181,-144,-82,-13,28,17,84,183,269,357,366,312,276,309,349,344,344,375,315,170,353
2018-09-18,16:29:27.818,894,745,70,23,106,232,316,345,361,347,325,375,418,397,381,383,378,366,361,394,416,405,406,374,357,283,242,274,321,395,459,392,233,18,-212,-321,-379,-457,-531,-483,-349,-194,-169,-41,72,0,-148,-145,-32,-60,-86,-41,-78,-127,-87,-138,-188,-101,-49,0,-114,-247,-287,-162,-84,-181,-298,-469,-686,-821,-696,43,91,-495,-569,-460,-315,-212,-220,-271,-221,-217,-277,-294,-217,-135,-81,-2,42,101,168,206,214,253,330,378,412,410,416,429,383,280,257,373,370,191,185,257,173,60,81,226,397,453,348,288,304,309,280,234,280,353,303,196,131,70,27,41
2018-09-18,16:29:28.845,43,-21,-31,-2,-38,-85,-138,-186,-137,-162,-295,-238,-187,197,913,723,108,193,302,177,42,21,-3,73,54,21,26,-22,-65,-133,-113,-151,-235,-201,-310,-418,-107,33,-125,-259,-204,-277,-374,-404,-501,-597,-634,-661,-732,-677,-567,-496,-447,-327,-244,-206,-220,-285,-305,-231,-142,-139,-155,-158,-54,166,309,330,357,408,439,501,517,436,276,169,163,231,295,297,291,267,289,204,246,772,1183,644,268,307,277,215,146,101,49,-66,-116,-54,-20,-57,-59,-36,2,10,-93,-70,27,13,7,-10,-60,-82,-86,-129,-151,-226,-199,-120,-85,-103,-124,-144,-193,-301,-342,-318,-208,-210
2018-09-18,16:29:29.873,-252,-300,-456,-489,-337,-264,-340,-433,-464,-473,-435,-483,-455,-377,-318,-356,-591,-733,-723,-784,-922,-937,-882,-746,-569,-429,-366,-372,-103,654,752,83,-76,92,230,169,129,112,75,32,109,268,404,528,614,651,660,684,661,628,611,615,622,623,648,713,744,719,703,737,705,660,637,525,461,463,404,328,252,127,82,143,211,264,319,351,286,195,114,92,78,41,70,51,-21,-87,-80,-3,76,157,347,445,460,467,463,423,369,369,239,0,-169,225,945,335,-284,-293,-379,-499,-495,-472,-471,-519,-476,-443,-439,-461,-567,-676,-756,-735,-819,-919,-1020,-965,-976,-828,-653,-479
2018-09-18,16:29:30.901,-433,-334,-164,-111,-105,-27,42,-31,-143,-192,-237,-313,-395,-370,-234,-104,-39,-24,35,126,190,228,250,292,312,266,246,296,361,399,323,319,403,439,385,348,287,164,78,71,62,59,24,-64,-218,-155,425,1179,648,3,60,-47,-254,-370,-262,-58,55,71,127,201,184,77,18,-21,-97,-147,-169,-160,-139,-117,-120,-101,-104,-54,-19,4,26,-20,21,-72,-121,-138,-250,-440,-531,-500,-506,-574,-547,-556,-476,-207,-110,-157,-121,-49,-119,-250,-385,-416,-399,-262,-85,-90,-97,3,72,131,370,569,560,534,523,487,415,370,303,141,45,236,555,296,-151,-167,-363,-455,-214,119
2018-09-18,16:29:31.929,165,263,433,514,474,361,235,154,181,211,255,244,207,236,242,207,203,181,137,152,146,101,93,110,130,53,61,62,-11,-89,-124,-99,-114,-129,-96,-34,67,140,104,34,-1,-30,-56,-44,-33,-77,-173,-178,-143,-129,-157,-112,-87,-32,-1,-44,-127,-57,-68,-70,-175,-182,74,514,198,-291,-214,-46,-35,-227,-288,-229,-139,-448,-331,0,-71,-300,-463,-593,-665,-625,-686,-706,-677,-619,-497,-430,-309,-143,-5,62,83,78,121,117,-61,-190,-219,-153,-52,6,63,115,170,199,175,225,298,348,370,339,371,425,455,456,447,411,450,516,534,512,387,167,40,24,52,84
2018-09-18,16:29:32.957,84,70,-8,-100,166,895,724,-82,-96,-19,-43,-64,-38,7,-15,-38,33,85,56,30,-27,-98,-74,-120,-159,-207,-234,-163,-67,13,134,302,406,415,414,393,282,255,195,110,35,-71,-77,-79,-101,-173,-218,-280,-352,-338,-269,-259,-158,-162,-200,-303,-444,-491,-519,-581,-613,-498,-470,-455,-461,-415,-325,-252,-171,-47,-26,-41,-25,-113,-218,158,665,113,-331,-144,137,330,347,379,440,502,518,516,509,495,477,446,434,468,451,472,570,630,529,412,319,286,303,288,248,219,223,266,355,387,279,184,272,438,555,603,450,273,135,27,-24,-64,-110,-224,-527,-552,-448,-505
2018-09-18,16:29:33.985,-593,-606,-521,-431,-385,-393,-400,-351,-337,-355,-373,-408,-532,-577,-565,-616,-347,73,-224,-741,-658,-466,-431,-526,-538,-537,-622,-649,-555,-421,-381,-377,-420,-510,-545,-499,-501,-502,-476,-429,-296,-178,-39,97,125,223,335,375,347,280,316,232,78,-11,-51,-76,-51,-35,1,112,223,347,442,491,508,519,527,554,596,591,629,678,641,577,534,556,527,485,501,560,604,629,550,338,426,1045,1119,294,162,322,259,126,202,283,199,76,47,27,-39,-105,-160,-244,-317,-311,-322,-368,-347,-364,-291,-188,-118,-70,-16,91,165,204,264,246,164,70,-57,-123,-163,-163,-153,-191,-229,-256
2018-09-18,16:29:35.041,-317,-276,-347,-397,-343,-293,-397,-293,-300,-402,-520,-459,-490,-640,-677,-722,-853,-828,-692,-530,-427,-346,-227,-317,-445,104,1333,1070,-10,-268,-233,-179,-224,-237,-199,-162,-130,-99,-45,8,52,100,144,171,231,257,267,326,363,353,305,259,294,404,479,456,361,220,185,174,193,180,218,287,335,340,308,265,237,214,202,229,260,310,311,211,149,126,90,134,170,124,96,38,6,17,0,-35,-68,-101,-147,-245,-198,317,591,-198,-639,-399,-208,-147,-175,-257,-302,-313,-381,-331,-197,-148,-162,-161,-141,-179,-231,-264,-254,-233,-219,-183,-164,-157,-119,-85,-50,-27,-5,-20,-135,-210
2018-09-18,16:29:36.041,671,434,342,-139,-186,-160,-139,-77,-16,-21,-14,14,13,4,0,-7,7,53,60,59,46,2,-11,-33,-53,-38,0,18,-2,-31,63,613,824,199,-102,78,182,170,95,58,21,-26,-66,-126,-181,-155,-154,-114,-101,-107,-129,-70,-83,-56,0,-11,28,29,-36,36,89,147,104,11,-30,-52,-124,-198,-270,-306,-266,-212,-161,-158,-156,-193,-230,-182,-238,-250,-77,-56,-64,-21,7,-16,-54,-38,-8,-30,-51,-46,-37,-39,-86,-46,357,658,43,-486,-191,20,50,19,91,232,175,-42,-3,319,344,266,264,267,308,202,120,246,366,265,303,309,203,344,253,326,751,818
2018-09-18,16:29:37.069,601,364,272,276,116,-6,-81,-134,-245,-196,-283,-65,-100,-44,-109,-92,-72,-147,-139,-66,-81,-157,-217,-93,-192,-130,-66,-125,-156,-288,-283,-249,-130,439,552,-418,-786,-437,-92,-177,-158,-75,-61,-27,-42,-57,-95,-159,21,84,32,-115,68,39,-78,180,144,80,111,129,158,210,104,54,125,111,-54,-81,-122,-233,-312,-399,-263,-265,-122,-217,-258,-121,-85,-65,-68,-189,-59,-44,-173,-86,153,104,14,-126,-86,-9,-182,-69,45,28,-32,-150,-20,709,1087,-14,-381,-186,-28,1,-29,-14,-5,4,22,46,70,83,107,120,137,177,188,204,217,206,248,278,292,309,309,295
2018-09-18,16:29:38.096,261,250,256,220,155,79,-16,-73,-100,-98,-90,-110,-89,-65,-67,-54,-18,-10,-27,-43,-41,-39,-46,-45,-43,34,72,46,52,39,10,-7,-28,-29,-13,-5,-15,-149,-299,124,1255,1208,-32,-269,-226,-234,-258,-246,-220,-211,-178,-151,-139,-274,-369,-353,-313,-260,-230,-212,-186,-173,-139,-46,50,86,106,122,141,150,130,134,116,68,-19,-79,-111,-104,-118,-153,-173,-191,-185,-150,-123,-117,-84,-33,-14,-28,-36,-25,-27,-28,-61,-74,-75,-67,-68,-33,21,9,-18,-48,-86,-124,-135,-143,-130,-118,-102,-150,-200,96,681,472,-291,-234,11,85,89,94,110,110,101,100,107,109
2018-09-18,16:29:39.124,113,94,85,88,98,108,134,137,148,178,180,190,227,251,226,230,231,223,184,135,28,-87,-164,-206,-204,-204,-202,-188,-178,-172,-152,-126,-90,-55,-36,-26,-36,-75,-111,-146,-154,-105,-97,-96,-123,-173,-211,-221,-230,-242,-234,-215,-251,-329,-125,438,420,-244,-314,-94,40,111,132,166,191,191,178,185,202,226,237,230,249,262,302,299,277,289,310,347,385,405,415,375,328,302,290,261,158,34,-56,-160,-247,-268,-260,-243,-212,-160,-149,-179,-164,-141,-139,-157,-152,-162,-167,-142,-79,-58,-83,-148,-191,-194,-184,-189,-191,-179,-193,-285,-284,92,557,149,-481,-270,-51,46
2018-09-18,16:29:40.152,74,91,112,136,145,135,136,123,109,120,110,100,86,92,110,133,145,141,146,178,216,292,318,280,223,174,107,10,-109,-215,-302,-348,-347,-328,-280,-217,-171,-133,-124,-134,-146,-150,-156,-176,-203,-211,-157,-102,-115,-146,-183,-200,-209,-214,-181,-150,-135,-146,-261,-246,334,1011,569,-106,12,135,166,144,117,112,113,139,159,139,120,123,139,129,134,167,205,240,239,251,249,231,226,230,236,223,203,206,187,135,88,4,-97,-204,-284,-307,-315,-284,-261,-244,-235,-223,-234,-245,-268,-268,-287,-302,-265,-164,-123,-112,-133,-199,-211,-191,-151,-109,-76,-46,-40,-77,163,791
2018-09-18,16:29:41.180,653,-226,-222,37,65,32,24,43,46,64,80,64,58,97,138,170,177,169,158,146,168,170,150,126,96,124,164,179,192,213,215,153,25,-95,-211,-269,-329,-372,-342,-297,-285,-256,-221,-215,-187,-173,-181,-193,-208,-205,-194,-128,-10,71,117,145,139,148,159,131,119,119,106,43,-80,80,828,1178,289,-199,-46,34,60,80,64,43,19,-3,-25,-32,-20,-1,13,36,65,101,130,114,113,123,128,129,125,146,148,128,90,65,18,-60,-179,-286,-395,-477,-482,-496,-514,-505,-467,-435,-382,-295,-201,-146,-97,-39,10,91,179,254,305,235,132,81,59,31,41,64
2018-09-18,16:29:42.208,86,15,-64,155,698,560,-122,-120,61,112,108,129,146,138,132,115,82,75,109,138,143,151,120,87,68,61,66,89,98,102,104,101,95,90,66,44,2,-61,-165,-265,-322,-350,-345,-323,-245,-154,-111,-21,59,71,67,37,35,7,23,62,106,124,80,3,-25,-39,-58,-79,-74,-43,-81,-229,-161,496,906,94,-475,-298,-189,-174,-167,-121,-91,-83,-62,-55,-60,-45,-21,-22,-26,-18,-29,-37,-35,-20,-21,-29,-28,-15,-3,-17,-30,-10,1,9,-39,-118,-208,-287,-299,-249,-143,-53,-5,14,64,160,159,123,21,-79,-108,-93,-17,62,83,82,28,-7,-20,-12
2018-09-18,16:29:43.236,0,19,17,10,-83,-119,360,975,526,-395,-238,16,19,-91,-130,-117,-161,-197,-115,-75,-117,-159,-192,-200,-140,-78,-36,23,64,61,70,141,179,167,157,192,221,247,246,213,169,104,66,59,68,73,49,71,79,22,-43,-112,-150,-166,-216,-209,-174,-123,-11,56,72,55,8,-44,-68,-72,-81,-96,-99,-87,-163,-155,326,914,441,-266,-141,-27,-2,25,53,21,30,38,6,-30,-51,-68,-60,-57,-43,-23,-12,6,19,59,84,104,139,140,150,224,230,216,203,170,89,5,-88,-171,-162,-87,-87,-138,-183,-168,-97,-54,-73,-81,-66,-23,35,73,109,103,85,50
2018-09-18,16:29:44.264,-26,-48,-7,45,81,105,90,39,-104,-84,464,893,195,-443,-268,-210,-255,-330,-356,-325,-303,-259,-201,-165,-154,-155,-116,-70,-48,-42,-3,70,144,165,204,284,368,421,429,410,381,352,377,358,191,9,-96,-171,-207,-196,-170,-126,-68,-32,13,47,23,-5,-41,-90,-127,-144,-148,-95,-33,-29,-16,-26,-51,-57,-47,-74,-94,-131,-175,-309,-506,-244,793,1174,74,-328,-344,-397,-437,-450,-444,-428,-398,-372,-351,-310,-262,-214,-140,-60,22,92,166,240,322,406,474,450,412,379,350,349,335,315,266,148,15,-66,-108,-108,-68,-20,-14,-23,-22,-25,1,14,4,-6,-21,-77
2018-09-18,16:29:45.292,-96,-99,-57,23,9,5,-12,-101,-160,-172,-168,-171,-197,-210,-272,-450,-433,226,838,139,-596,-439,-376,-356,-347,-305,-263,-211,-121,-10,92,217,315,377,366,325,309,330,357,394,433,447,446,427,415,404,385,413,422,386,296,163,17,-84,-139,-159,-165,-163,-161,-150,-126,-106,-83,-86,-130,-172,-205,-218,-186,-121,-88,-95,-109,-164,-252,-318,-342,-364,-395,-397,-408,-506,-580,-205,381,74,-742,-639,-309,-122,-35,24,109,180,232,280,286,230,172,157,159,142,127,140,141,125,107,115,153,209,257,262,238,229,241,243,210,134,19,-90,-177,-234,-280,-269,-213,-148,-105,-71
2018-09-18,16:29:46.320,-86,-104,-123,-151,-160,-155,-101,-16,6,-32,-73,-127,-162,-198,-230,-256,-264,-251,-245,-345,-284,253,715,198,-312,-65,118,212,208,201,203,235,268,269,278,269,278,265,249,241,240,256,277,271,246,236,214,215,213,210,209,202,191,177,123,17,-84,-154,-200,-229,-262,-258,-244,-241,-236,-225,-203,-206,-231,-264,-315,-319,-172,14,46,-3,-97,-141,-167,-182,-180,-165,-125,-88,-139,-37,506,806,226,-214,62,208,155,61,29,20,42,100,332,484,533,520,502,467,447,458,487,475,432,377,336,317,296,244,167,89,36,15,-7,-64,-160,-266,-359,-411,-441,-433,-439,-436
2018-09-18,16:29:47.347,-401,-394,-397,-414,-434,-437,-449,-468,-459,-402,-384,-397,-420,-469,-477,-430,-377,-315,-241,-155,-92,-199,-278,210,1272,1092,-31,-110,-34,24,53,83,102,117,137,126,111,140,184,184,175,155,132,110,111,123,134,140,179,197,207,214,225,214,174,162,115,22,-86,-160,-205,-235,-236,-228,-237,-246,-249,-273,-309,-335,-373,-390,-372,-342,-255,-211,-211,-219,-269,-284,-248,-165,-67,1,82,137,123,216,666,1043,415,-250,-45,107,91,78,85,103,115,122,167,198,219,202,154,128,149,188,218,238,232,218,203,190,189,180,152,117,105,84,44,-14,-118,-221,-301,-349,-400,-402
2018-09-18,16:29:48.375,-371,-374,-362,-369,-385,-379,-383,-403,-397,-380,-304,-217,-162,-137,-157,-162,-148,-134,-100,-50,14,74,24,-75,187,989,1019,95,-22,117,192,186,146,134,137,167,223,264,251,241,218,184,161,150,132,127,141,143,147,183,234,272,270,256,235,198,138,73,-20,-118,-210,-280,-306,-325,-347,-381,-393,-404,-412,-403,-393,-418,-442,-447,-377,-294,-253,-202,-172,-143,-99,-51,1,93,188,243,132,18,250,652,349,-266,-121,90,127,97,83,87,160,252,317,334,313,248,209,205,193,143,82,60,95,127,138,129,131,270,310,260,210,152,102,25,-95,-221,-324,-408,-442,-472
2018-09-18,16:29:49.403,-480,-465,-458,-425,-408,-395,-387,-367,-314,-273,-177,-50,30,82,78,62,72,78,87,112,127,143,49,-99,155,1025,1139,132,-99,53,168,145,90,55,38,43,49,48,60,104,148,171,174,161,138,133,129,117,118,140,150,156,149,121,84,46,10,-76,-208,-352,-494,-593,-639,-643,-629,-582,-499,-419,-351,-279,-209,-139,-63,-6,97,299,445,448,362,237,148,106,103,130,150,154,108,-40,-14,560,1069,496,-81,81,157,133,109,95,65,11,-65,-116,-138,-146,-120,-103,-96,-67,-18,4,-15,-32,-24,-1,3,0,-7,-40,-78,-95,-93,-101,-138,-225,-322,-381,-388,-375
2018-09-18,16:29:50.431,-350,-308,-247,-191,-138,-83,1,88,141,119,89,110,152,173,178,134,124,107,70,49,59,60,37,-151,-316,144,1273,1206,51,-84,-10,0,-7,9,32,41,52,58,51,51,47,17,-7,-19,-30,-43,-27,-37,-33,-44,-55,-81,-107,-145,-197,-238,-277,-311,-369,-481,-589,-622,-616,-597,-566,-493,-376,-234,-106,-5,108,168,140,85,43,79,116,122,113,83,68,66,72,88,113,187,268,246,300,709,1020,486,-28,161,258,189,89,46,42,65,70,70,65,19,-27,-55,-63,-75,-88,-117,-117,-115,-120,-134,-146,-159,-186,-209,-208,-205,-201,-183,-180,-208,-232,-221,-204,-131
2018-09-18,16:29:51.459,-50,3,29,23,33,43,46,80,113,116,158,218,232,215,145,90,87,102,133,139,120,101,16,-133,46,849,988,29,-194,6,88,86,77,64,54,60,55,46,24,21,-1,-36,-33,-62,-109,-127,-158,-217,-238,-259,-278,-292,-285,-279,-273,-255,-199,-179,-170,-150,-145,-120,-72,-19,87,174,168,118,64,24,16,13,27,93,173,224,228,201,162,165,157,140,135,142,159,134,17,69,568,831,132,-359,-151,-42,-51,-81,-101,-122,-144,-162,-176,-171,-170,-153,-161,-149,-165,-190,-198,-214,-240,-239,-231,-229,-202,-161,-121,-98,-63,-7,4,-33,-35,-6,10,22,32,32
2018-09-18,16:29:52.487,31,37,66,100,135,164,148,157,173,198,213,213,215,195,186,132,81,81,76,74,54,-65,-68,415,833,255,-301,-87,45,81,70,59,71,56,47,42,25,7,-12,-42,-67,-88,-114,-131,-164,-194,-238,-285,-315,-321,-338,-334,-337,-301,-248,-203,-164,-128,-106,-73,-34,5,59,119,175,178,119,80,37,26,19,66,154,219,252,239,205,237,291,315,312,287,242,174,14,-43,382,875,334,-333,-146,-75,-70,-174,-274,-301,-148,-155,-222,-244,-248,-264,-263,-259,-242,-242,-251,-253,-271,-274,-276,-273,-261,-244,-248,-274,-188,-77,8,18,-2,-90,-184,-97,-29,2,66,111
2018-09-18,16:29:53.515,151,182,212,224,213,194,190,205,226,218,215,238,255,267,281,272,284,283,256,163,31,305,1104,1044,-9,-114,54,60,18,-13,-30,-43,-79,-97,-115,-175,-228,-260,-283,-291,-330,-408,-422,-407,-385,-379,-376,-358,-290,-257,-223,-189,-101,-47,22,31,11,0,-4,25,94,138,117,82,44,15,-3,-15,-23,-2,16,63,180,301,421,426,389,344,266,173,115,105,87,-5,-128,95,806,856,-94,-305,-109,-128,-232,-284,-307,-299,-253,-223,-191,-167,-189,-226,-266,-291,-314,-313,-303,-273,-231,-175,-124,-71,-28,6,42,85,97,130,169,142,88,50,29,52,109,151,170,182
2018-09-18,16:29:54.543,195,187,145,114,83,61,97,182,264,310,302,319,284,218,167,152,134,132,135,124,49,97,566,930,287,-357,-184,-124,-163,-208,-230,-252,-269,-316,-346,-373,-399,-427,-446,-453,-466,-468,-462,-439,-381,-307,-240,-159,-67,-7,60,147,212,274,308,285,174,77,52,20,12,40,57,81,107,140,179,215,247,274,249,215,241,263,262,244,169,50,-33,-71,-71,-50,-25,-62,-177,-136,377,720,82,-422,-314,-261,-309,-355,-362,-365,-376,-381,-378,-369,-375,-359,-337,-320,-273,-193,-111,-43,30,119,218,323,405,379,391,592,678,675,612,535,428,300,208,178,153,147,147,156
2018-09-18,16:29:55.571,176,244,333,362,339,314,279,238,225,189,159,124,80,33,74,93,77,37,-8,-100,-317,-342,343,1128,448,-413,-358,-381,-465,-538,-572,-601,-612,-605,-580,-539,-500,-423,-332,-271,-246,-401,-658,-784,-842,-840,-798,-690,-541,-409,-301,-217,-131,-65,-13,-16,-78,-87,-63,-2,62,89,116,129,155,201,248,236,171,98,61,86,171,213,210,180,140,122,90,55,43,41,24,-54,-266,-242,510,1125,333,-355,-345,-360,-372,-339,-303,-243,-168,-110,-34,38,131,251,386,460,477,459,448,452,486,547,598,647,676,665,630,575,538,523,492,420,328,220,94,5,-35,-56,-65,-108
2018-09-18,16:29:56.598,-150,-158,-143,-118,-118,-112,-98,-62,16,36,25,-16,-88,-137,-178,-192,-211,-228,-245,-322,-512,-473,127,313,-553,-956,-750,-608,-536,-502,-452,-395,-334,-266,-137,14,120,190,236,236,235,248,268,293,340,409,472,455,390,324,313,298,314,341,306,230,128,56,10,-14,-14,-18,-65,-99,-142,-183,-167,-131,-101,-67,-51,-33,-20,-57,-98,-158,-219,-266,-280,-289,-305,-329,-345,-406,-474,-234,125,-137,-725,-690,-489,-358,-292,-240,-167,-87,-6,67,148,215,273,305,316,342,390,414,430,445,458,467,449,434,440,441,446,437,421,375,298,187,83,1,-74,-122,-140,-138,-142,-120
2018-09-18,16:29:57.626,-99,-100,-95,-84,-78,-69,-34,-2,-11,-54,-125,-189,-220,-220,-232,-271,-321,-373,-501,-565,-235,117,-354,-978,-790,-553,-418,-326,-244,-159,-64,17,88,211,320,333,340,356,367,380,402,432,462,464,436,419,436,471,505,521,490,442,376,308,233,170,97,-9,-75,-96,-108,-108,-79,-52,-61,-78,-96,-103,-105,-78,-68,-88,-135,-212,-276,-316,-357,-403,-440,-477,-519,-659,-629,-88,301,-242,-652,-428,-291,-289,-286,-210,-108,-61,-63,-79,-73,-47,0,67,144,223,258,286,328,360,375,407,460,498,501,475,426,384,352,282,191,80,-14,-73,-88,-84,-75,-72,-96,-89,-79,-75
2018-09-18,16:29:58.654,-110,-109,-105,-78,-28,-45,-107,-204,-327,-439,-522,-586,-637,-680,-706,-832,-922,-490,334,174,-683,-608,-319,-180,-137,-60,96,269,356,390,363,335,341,354,397,447,437,397,375,375,392,434,461,477,475,435,387,356,332,282,158,-16,-179,-298,-345,-351,-337,-303,-259,-222,-203,-200,-213,-224,-221,-218,-184,-194,-244,-331,-456,-539,-573,-589,-599,-601,-590,-612,-800,-807,29,1134,798,302,500,637,750,813,824,801,769,756,762,779,805,832,827,792,758,700,657,665,703,747,766,767,728,717,712,669,622,564,464,328,195,90,13,-53,-107,-146,-184,-211,-249,-285,-316,-328,-350,-346
2018-09-18,16:29:59.682,-265,-286,-370,-480,-632,-760,-848,-904,-944,-966,-973,-1000,-1073,-835,-136,-19,-776,-942,-537,-303,-172,-5,72,79,65,16,-29,-25,19,66,87,75,72,72,107,151,200,244,265,263,251,235,226,195,140,63,-55,-209,-320,-382,-426,-427,-414,-407,-390,-396,-410,-403,-412,-423,-438,-449,-410,-378,-397,-467,-558,-584,-590,-568,-550,-485,-381,-340,-369,-131,523,590,-83,-116,119,225,229,212,222,253,294,364,421,456,478,480,468,475,485,515,563,604,625,633,613,589,560,516,479,453,407,358,295,216,145,84,26,5,0,2,15,26,11,-15,-44,-233,-573,-665,-670,-698,-709,-787
2018-09-18,16:30:00.710,-846,-862,-863,-849,-818,-777,-717,-699,-509,130,436,-131,-383,5,344,489,436,370,302,256,252,268,307,349,379,379,365,351,358,374,422,486,480,454,447,450,461,444,416,377,306,209,71,-48,-127,-178,-210,-227,-237,-240,-252,-255,-293,-333,-374,-395,-363,-332,-339,-378,-468,-517,-513,-474,-437,-395,-348,-322,-407,-435,69,953,803,40,108,167,142,84,69,95,133,192,232,256,261,259,244,235,249,271,304,324,319,302,276,266,237,232,232,218,211,188,143,92,17,-53,-86,-118,-130,-140,-143,-131,-102,-85,-79,-98,-121,-130,-114,-120,-149,-225,-338,-400,-455,-464,-449,-438
2018-09-18,16:30:01.738,-432,-490,-574,-293,426,431,-355,-354,7,205,313,329,306,262,216,204,216,253,278,294,278,260,269,289,322,352,384,398,407,408,404,402,392,352,307,219,102,-26,-140,-224,-258,-243,-255,-263,-273,-288,-310,-314,-315,-337,-334,-290,-285,-311,-357,-434,-482,-504,-507,-484,-446,-434,-428,-486,-362,232,591,50,-265,-60,73,131,127,140,165,208,255,264,277,296,309,307,299,271,295,332,363,380,372,360,328,313,303,277,232,185,144,61,-23,-108,-163,-183,-188,-199,-171,-135,-116,-116,-123,-134,-160,-152,-100,-76,-102,-182,-281,-355,-415,-461,-483,-492,-492,-537,-646,-465,239,485
2018-09-18,16:30:02.766,-285,-520,-152,80,202,260,310,312,322,314,259,233,246,293,334,337,325,308,285,316,358,391,415,426,404,373,363,385,376,331,286,193,88,-25,-90,-166,-216,-233,-266,-306,-346,-400,-460,-525,-531,-453,-335,-269,-264,-337,-428,-475,-532,-498,-489,-476,-425,-491,-490,80,1022,722,-206,-348,-329,-147,-46,-68,-77,-18,15,-10,-47,-53,-11,69,162,206,260,319,354,366,408,412,334,232,108,41,72,154,258,332,322,247,145,49,-10,-57,-110,-131,-128,-114,-122,-123,-155,-243,-259,-209,-216,-247,-316,-350,-313,-278,-247,-213,-228,-272,-414,-507,-178,225,-157,-748,-577,-351,-214,-168
2018-09-18,16:30:03.794,-165,-108,-54,38,145,255,396,489,500,448,398,373,341,345,394,450,485,475,460,452,414,372,344,319,361,432,400,320,222,171,205,190,147,53,-35,-119,-165,-150,-218,-283,-292,-275,-302,-352,-417,-433,-424,-395,-318,-244,-201,-211,-334,-186,431,539,-98,-188,107,273,298,247,171,93,20,-52,-71,-94,-127,-139,-123,-58,28,71,115,145,194,241,215,179,151,121,100,89,125,182,211,121,-21,-7,41,20,18,10,0,0,14,0,-12,-66,-108,-87,-87,-80,-146,-250,-325,-358,-344,-388,-407,-363,-369,-491,-343,302,550,-159,-616,-487,-372,-226,48,211,230,294,379,440
2018-09-18,16:30:04.821,513,545,568,571,567,591,580,559,560,521,475,476,480,455,401,395,426,445,454,430,324,156,8,-101,-173,-196,-190,-250,-275,-363,-411,-483,-567,-635,-636,-555,-471,-435,-450,-496,-492,-423,-310,-272,-314,-274,-201,-302,-256,411,1087,303,-700,-579,-464,-349,-261,-172,-62,46,132,264,525,796,615,239,24,-54,-80,-64,15,43,35,24,6,-29,-67,-77,-52,-14,12,0,-87,-194,-280,-332,-340,-320,-294,-270,-272,-295,-309,-318,-336,-345,-357,-323,-255,-248,-276,-344,-412,-422,-416,-385,-364,-342,-330,-403,-530,-220,636,707,-277,-480,-214,-5,123,163,191,272,361,427,424,353,311,307
2018-09-18,16:30:05.849,308,318,345,383,408,418,398,406,443,468,478,509,547,598,592,499,383,225,80,-48,-120,-188,-225,-220,-222,-237,-238,-260,-310,-372,-429,-462,-435,-363,-364,-357,-364,-373,-363,-316,-257,-202,-130,-72,-100,-121,257,1082,1109,152,68,313,315,172,160,325,346,283,243,237,209,190,178,189,201,222,244,247,225,197,185,185,206,198,180,191,193,187,130,43,-60,-132,-167,-173,-157,-156,-165,-172,-186,-196,-221,-250,-282,-344,-376,-375,-385,-399,-422,-453,-460,-454,-455,-429,-373,-314,-223,-134,124,624,564,-3,28,328,411,369,274,222,218,238,265,300,274,229,224,252,272,290
2018-09-18,16:30:06.877,306,272,240,251,298,328,325,301,247,176,115,81,41,-16,-92,-157,-207,-257,-292,-300,-311,-318,-318,-332,-350,-397,-419,-430,-421,-363,-323,-314,-321,-351,-343,-314,-275,-220,-174,-138,-125,-168,-16,638,1015,340,-83,73,156,193,210,217,211,210,204,200,214,254,312,333,327,302,274,247,237,247,247,228,235,240,239,243,245,218,177,96,-27,-143,-211,-254,-265,-268,-292,-293,-302,-335,-384,-444,-506,-543,-567,-555,-528,-509,-496,-501,-509,-499,-444,-389,-353,-311,-266,-309,-192,339,839,449,10,292,460,439,359,306,300,335,353,319,286,290,323,371,386,341,303,285,285,293
2018-09-18,16:30:07.905,308,298,281,261,244,233,232,237,232,157,30,-103,-209,-274,-319,-355,-376,-392,-412,-463,-517,-543,-569,-585,-582,-579,-499,-401,-338,-291,-279,-265,-210,-139,-88,-17,43,91,-28,-133,360,1434,1340,276,88,125,160,168,172,188,205,211,215,232,274,280,234,173,115,89,71,73,85,99,119,123,147,196,216,206,183,167,115,28,-75,-171,-222,-239,-260,-284,-305,-325,-371,-398,-442,-481,-521,-539,-538,-525,-455,-359,-313,-282,-277,-273,-241,-169,-76,0,99,216,219,169,449,1027,817,-15,17,196,206,142,106,96,126,151,170,189,190,164,123,107,129,159,186,188,137,74
2018-09-18,16:30:08.933,47,74,134,171,185,173,137,86,31,-53,-144,-241,-339,-383,-402,-428,-437,-434,-434,-435,-444,-464,-465,-466,-464,-441,-381,-257,-149,-75,-27,-12,46,147,218,227,200,180,129,-35,-24,551,1155,640,-26,68,143,152,148,178,205,220,199,190,171,177,186,186,170,156,145,126,111,135,186,213,225,256,268,245,205,170,113,41,-58,-177,-287,-343,-385,-410,-431,-480,-533,-555,-561,-560,-550,-526,-471,-416,-316,-176,-78,3,62,105,193,260,264,290,267,246,210,120,212,668,810,163,-176,43,163,179,154,150,160,164,169,160,162,152,138,136,137,131,132,151,170,177
2018-09-18,16:30:09.961,187,159,135,123,97,57,26,-13,-50,-126,-254,-373,-466,-529,-566,-611,-643,-651,-636,-593,-534,-501,-469,-422,-360,-304,-196,-27,88,196,226,194,167,142,149,174,187,220,169,27,175,911,1222,393,-14,152,227,209,186,173,152,138,124,107,114,119,117,134,174,194,206,219,238,235,241,257,249,217,198,155,86,32,-28,-136,-287,-447,-553,-615,-635,-637,-641,-638,-616,-587,-571,-539,-469,-398,-324,-237,-62,111,236,357,384,338,280,227,188,180,203,216,142,26,197,750,694,-71,-112,132,178,129,100,101,130,143,114,35,-47,-89,-85,-51,-14,18,59,74,103,124
2018-09-18,16:30:10.989,86,59,29,-13,-50,-88,-138,-199,-287,-381,-499,-603,-645,-634,-600,-552,-496,-451,-405,-344,-260,-113,27,123,162,163,224,289,279,285,239,214,224,196,199,204,208,217,72,-107,210,1223,1415,256,-97,6,16,-6,-12,0,8,12,24,48,70,85,74,64,62,55,64,65,72,68,84,78,64,19,-16,-91,-166,-233,-309,-408,-530,-625,-695,-714,-686,-638,-569,-456,-316,-184,-45,92,247,397,451,446,452,448,413,368,343,356,370,362,318,292,318,341,266,321,812,1078,365,-106,121,260,253,181,127,93,96,110,109,107,103,92,71,32,3,-11,6,-1,-46,-74
2018-09-18,16:30:12.017,-42,-65,-105,-145,-179,-185,-182,-177,-202,-256,-304,-338,-331,-300,-237,-143,-55,7,29,5,-33,-49,-46,-31,25,111,157,149,101,9,-23,-15,-23,-18,-19,-38,-86,-302,-394,102,746,256,-505,-430,-342,-340,-330,-318,-278,-279,-283,-296,-246,-247,-238,-249,-217,-136,-159,-217,-256,-291,-316,-325,-342,-368,-429,-480,-507,-498,-432,-392,-413,-415,-393,-350,-295,-223,-109,-16,121,268,381,380,248,140,106,139,218,281,253,192,121,69,69,100,144,183,174,144,53,-55,247,1009,928,-84,-201,-4,18,-8,-37,-41,-29,-1,17,-3,-11,-28,-46,-44,-50,-84,-115,-132,-148,-178,-171,-161
2018-09-18,16:30:13.045,-156,-119,-114,-100,-54,-24,-3,-6,-6,-20,-1,101,229,320,367,388,388,373,354,336,326,300,284,288,335,379,378,352,318,327,350,325,267,204,135,55,-218,-417,143,1536,1584,301,-78,-132,-193,-247,-233,-168,-166,-176,-171,-155,-131,-137,-179,-191,-202,-242,-275,-312,-338,-341,-341,-343,-329,-311,-293,-283,-267,-225,-186,-178,-184,-151,-108,-37,110,263,289,216,97,37,22,41,74,112,138,153,169,193,187,169,135,144,140,114,82,63,64,80,-21,-24,457,929,318,-349,-138,28,46,-9,-17,-35,-46,-49,-61,-62,-52,-64,-100,-129,-144,-145,-131,-117,-103,-96,-54,-7
2018-09-18,16:30:14.072,37,79,117,120,104,118,113,115,104,95,88,72,59,57,72,104,138,163,165,144,135,125,123,154,217,225,196,144,43,-19,-53,-84,-117,-170,-208,-235,-336,-293,196,583,-2,-571,-400,-245,-218,-254,-269,-264,-264,-272,-261,-275,-315,-372,-382,-414,-448,-462,-466,-437,-406,-365,-295,-242,-186,-135,-101,-47,20,75,97,152,219,208,147,49,-8,-19,-9,38,67,61,16,-4,-2,0,7,72,151,171,141,61,-3,0,11,12,7,-5,-31,-112,-215,16,726,767,-96,-276,-125,-97,-151,-183,-196,-203,-227,-249,-257,-247,-236,-227,-225,-215,-186,-145,-99,-42,27,97,161,232
2018-09-18,16:30:15.100,278,333,426,517,559,541,471,358,249,201,192,202,210,235,248,236,236,253,266,253,254,255,245,249,251,213,165,74,2,-54,-62,-46,-12,10,12,-126,-271,75,1033,1068,-2,-286,-212,-207,-234,-248,-277,-296,-297,-296,-306,-337,-380,-401,-420,-422,-423,-414,-414,-424,-346,-274,-260,-194,-98,-9,133,319,393,339,226,122,42,5,12,38,25,26,0,-30,-9,53,107,127,108,63,52,113,172,154,112,38,-31,-88,-118,-114,-91,-71,-90,-279,-467,-110,973,983,-153,-360,-397,-470,-513,-524,-541,-515,-462,-424,-407,-397,-382,-374,-338,-310,-238,-131,-16,97,218,347,447,456
2018-09-18,16:30:16.128,440,445,481,514,524,495,422,329,259,217,176,166,161,168,190,238,268,267,234,185,142,95,87,128,164,163,148,86,40,35,37,51,56,52,46,-64,-167,192,877,639,-204,-257,-171,-196,-254,-309,-343,-351,-350,-360,-382,-411,-450,-481,-436,-366,-274,-205,-104,41,164,314,481,577,567,494,402,318,293,278,224,159,105,60,3,-39,-28,0,33,35,53,31,8,1,2,-1,9,59,48,-1,-58,-86,-100,-113,-135,-155,-178,-205,-250,-357,-234,306,332,-434,-641,-492,-447,-478,-570,-633,-636,-630,-615,-562,-486,-395,-317,-222,-94,48,185,283,332,333,338,344,354,383
2018-09-18,16:30:17.156,449,458,481,500,463,395,308,227,162,131,158,137,133,123,125,121,128,152,152,112,50,52,93,112,134,98,31,-8,-26,-14,0,-8,-50,-112,-188,-91,351,356,-284,-529,-426,-334,-326,-372,-409,-430,-448,-398,-348,-289,-245,-165,-134,-96,-39,47,122,177,256,368,441,458,393,313,267,248,230,205,177,88,2,-20,-5,39,73,85,78,61,57,76,84,61,2,-46,-29,-5,-1,0,-20,-51,-57,-72,-90,-109,-135,-151,-242,-270,3,236,-202,-646,-516,-402,-353,-370,-400,-382,-384,-379,-338,-273,-198,-109,-14,63,163,265,295,294,293,305,352,417,475,506,497,480
2018-09-18,16:30:18.184,487,424,348,284,207,168,192,185,171,159,121,115,105,76,34,-3,-34,-59,-31,43,86,101,76,48,40,47,66,91,92,74,2,-195,-117,604,925,75,-387,-378,-400,-426,-428,-417,-427,-430,-396,-340,-268,-173,-108,-67,-8,89,208,339,485,542,493,438,403,400,385,379,378,341,246,163,103,60,53,37,-17,-59,-85,-73,-45,-23,-55,-125,-201,-266,-301,-235,-155,-128,-119,-158,-204,-236,-269,-276,-281,-296,-312,-508,-776,-571,557,959,-190,-654,-748,-833,-852,-786,-686,-612,-554,-469,-363,-276,-202,-127,-11,133,213,203,168,165,216,278,349,398,412,409,405,390,360,296
2018-09-18,16:30:19.212,213,142,77,43,24,-9,-29,-41,-41,-35,-27,-24,-41,-72,-100,-78,-12,37,45,17,-45,-70,-71,-62,-62,-95,-105,-140,-361,-424,219,886,210,-547,-482,-385,-357,-390,-376,-337,-326,-315,-260,-184,-92,-17,17,76,154,285,441,571,590,569,523,501,505,522,529,488,420,351,253,156,111,114,83,42,4,-2,0,24,54,45,20,-14,-39,-56,-39,9,32,35,-24,-82,-93,-108,-125,-117,-136,-147,-247,-383,-161,344,86,-668,-676,-536,-485,-482,-487,-453,-431,-416,-383,-268,-147,-32,97,263,406,466,489,530,559,589,612,626,639,621,576,547,537,504,430,356,295,261
2018-09-18,16:30:20.240,229,201,167,127,122,101,68,52,9,-47,-95,-134,-118,-71,-32,-27,-55,-112,-157,-163,-153,-149,-151,-157,-216,-387,-370,203,437,-337,-772,-633,-544,-515,-509,-476,-438,-394,-352,-327,-267,-184,-123,-58,13,79,166,283,370,375,370,370,364,356,379,381,347,311,265,195,128,101,109,62,15,-16,9,50,59,60,27,-32,-99,-143,-153,-105,-40,-26,-31,-63,-115,-136,-123,-121,-142,-174,-211,-315,-471,-301,271,250,-556,-766,-626,-579,-574,-562,-525,-454,-396,-337,-243,-139,-79,-5,136,291,379,398,392,411,443,487,512,516,520,514,476,460,443,406,352,280,219,181,129,99
2018-09-18,16:30:21.268,79,73,73,57,48,44,15,-13,-25,-39,-31,18,49,52,7,-69,-118,-148,-143,-124,-110,-99,-155,-418,-512,248,1320,670,-343,-501,-594,-664,-700,-702,-670,-624,-566,-493,-436,-382,-310,-239,-162,-80,-12,30,101,209,335,451,467,425,400,381,373,358,359,315,221,145,74,14,-6,2,37,99,210,274,255,192,118,67,59,64,108,191,206,194,117,44,32,-25,-53,-90,-157,-218,-344,-560,-399,441,833,-119,-657,-622,-644,-679,-681,-617,-557,-500,-391,-294,-233,-166,-98,-37,26,81,126,178,224,253,291,342,385,416,412,399,383,368,339,280,222,197,212,194,170,153
2018-09-18,16:30:22.296,141,138,132,134,142,136,141,125,69,53,85,97,83,37,-42,-89,-99,-122,-160,-207,-261,-370,-588,-620,-75,255,-491,-1053,-950,-796,-686,-646,-558,-439,-338,-252,-152,-16,126,248,383,449,411,357,321,318,352,418,478,502,513,510,500,491,468,395,299,199,129,99,104,127,139,144,126,102,79,49,22,-5,-40,-65,-68,-49,1,12,-22,-76,-133,-150,-226,-291,-346,-401,-428,-554,-604,-218,368,91,-583,-423,-143,-9,91,97,122,228,342,357,309,286,287,303,319,350,388,435,489,521,543,562,553,533,519,502,482,479,433,333,196,89,25,-26,-69,-91,-94,-94
2018-09-18,16:30:23.323,-78,-72,-48,-34,-39,-74,-106,-105,-72,-45,-49,-83,-192,-261,-300,-354,-407,-451,-488,-560,-852,-1015,-421,596,118,-1005,-1057,-1027,-953,-832,-691,-536,-379,-255,-130,-7,94,113,46,-14,-31,-37,-30,-12,34,92,131,135,130,113,123,159,175,182,114,11,-80,-139,-161,-161,-167,-168,-172,-168,-164,-154,-144,-165,-191,-191,-182,-151,-113,-104,-108,-176,-237,-281,-323,-349,-376,-401,-401,-503,-595,-295,375,275,-522,-522,-266,-132,-58,26,126,206,239,255,268,288,324,358,406,427,433,453,460,484,504,527,544,567,593,618,627,598,543,440,328,230,174,103,48,26,11,5,25,42
2018-09-18,16:30:24.351,38,36,36,19,8,2,24,69,83,68,-33,-108,-114,-126,-143,-176,-234,-359,-575,-608,-58,342,-301,-774,-567,-410,-316,-234,-150,-78,16,134,270,392,443,399,340,314,294,299,351,398,425,433,445,460,464,469,509,544,500,409,300,208,146,96,42,2,-4,-1,25,46,51,31,-7,-58,-105,-147,-150,-100,-82,-112,-149,-190,-253,-367,-440,-466,-473,-470,-488,-658,-667,-33,735,316,-391,-269,-112,-21,27,117,213,261,269,245,220,230,253,276,313,355,348,321,297,279,285,278,287,347,340,305,273,220,132,53,-49,-162,-256,-324,-331,-300,-256,-248,-274,-264,-263,-269
2018-09-18,16:30:25.379,-297,-344,-340,-345,-322,-298,-287,-300,-374,-444,-488,-573,-640,-673,-690,-705,-898,-1110,-679,632,841,-396,-652,-550,-495,-434,-353,-254,-128,23,176,239,233,196,135,111,134,187,252,307,330,329,331,322,358,409,444,485,439,364,267,180,90,0,-105,-232,-304,-320,-324,17,73,96,112,-5,-118,-166,-192,-179,-116,-101,-116,-175,-223,-210,-196,-186,-160,-104,-65,-111,-233,-122,486,691,-4,-222,15,149,211,233,253,283,300,296,316,349,357,369,396,405,418,408,381,370,384,400,396,424,453,439,386,341,283,194,100,-9,-107,-158,-176,-197,-209,-221,-213,-187,-178,-171,-152,-153
2018-09-18,16:30:26.407,-156,-177,-140,-83,-69,-83,-161,-246,-274,-313,-390,-442,-474,-529,-669,-736,-400,126,-147,-814,-612,-268,-102,-23,13,124,314,408,388,305,227,227,260,278,311,348,360,335,323,319,333,366,403,412,378,335,281,254,184,103,50,-6,-57,-84,-92,-77,-61,-89,-122,-142,-162,-190,-224,-251,-254,-215,-208,-247,-284,-367,-447,-499,-534,-562,-585,-561,-564,-705,-713,-113,598,135,-492,-352,-216,-127,-68,3,100,160,199,197,190,210,249,302,308,300,308,286,289,301,357,429,457,432,418,403,397,356,309,211,82,-7,-65,-96,-66,-4,36,30,11,-9,-34,-45,-44,-67,-73,-24
2018-09-18,16:30:27.435,21,0,-21,-116,-232,-320,-410,-487,-546,-577,-620,-806,-931,-376,778,758,-364,-532,-337,-187,-102,-26,109,238,278,225,160,123,136,177,243,279,288,273,259,274,305,329,358,413,435,423,386,361,330,268,181,126,81,61,19,-19,-56,-97,-121,-130,-132,-160,-219,-243,-248,-252,-184,-153,-176,-220,-335,-382,-407,-433,-460,-468,-486,-517,-630,-475,260,595,-144,-403,-180,-68,28,101,148,182,219,269,348,413,446,503,569,591,572,547,530,533,547,540,568,595,576,537,476,437,388,293,188,87,-6,-77,-109,-91,-65,-56,-55,-47,-68,-96,-92,-118,-142,-108,-67,-84,-109,-195
2018-09-18,16:30:28.463,-311,-355,-398,-437,-488,-557,-632,-772,-897,-626,20,-103,-911,-924,-561,-345,-246,-157,-74,47,187,212,196,135,68,48,68,135,216,260,258,242,236,251,281,327,333,309,280,232,139,64,-30,-127,-192,-224,-263,-300,-289,-262,-290,-303,-306,-319,-377,-434,-489,-487,-412,-410,-475,-580,-674,-703,-715,-692,-636,-560,-480,-471,-501,-157,643,718,-78,-112,112,196,215,218,255,273,281,302,345,388,408,394,380,363,363,369,384,433,482,513,525,528,534,518,488,472,438,364,257,159,83,32,0,-11,-17,-44,-40,-24,-36,-73,-82,-91,-109,-119,-120,-182,-278,-417,-524,-604,-662,-667
2018-09-18,16:30:29.491,-668,-625,-527,-521,-430,172,541,-69,-519,-126,242,456,519,495,379,295,272,312,393,424,425,425,418,414,447,494,497,495,485,496,512,502,451,385,292,173,81,0,-103,-200,-299,-340,-394,-455,-465,-457,-466,-526,-584,-655,-729,-799,-825,-735,-636,-568,-521,-505,-426,-332,-212,-87,5,93,229,253,250,729,1300,778,48,132,275,337,322,293,252,228,225,188,215,269,297,322,298,274,267,262,263,280,300,374,444,447,449,449,410,329,228,107,-13,-126,-222,-275,-300,-319,-354,-384,-416,-456,-518,-590,-648,-698,-691,-621,-611,-613,-601,-601,-533,-432,-305,-294,-274,-43,173,229
2018-09-18,16:30:30.519,362,845,831,162,134,395,453,398,325,281,272,255,242,235,252,269,253,205,173,150,103,68,67,86,106,131,152,156,121,105,55,2,-163,-221,-302,-312,-423,-582,-684,-756,-805,-814,-769,-697,-652,-609,-555,-523,-472,-390,-308,-248,-241,-245,-145,-61,-40,0,37,88,152,82,201,904,1304,585,133,226,254,238,212,205,239,287,333,345,336,311,287,266,264,266,253,236,247,280,304,314,290,252,220,180,150,114,78,5,-75,-160,-217,-224,-228,-253,-282,-317,-361,-405,-445,-486,-527,-547,-557,-523,-461,-434,-397,-390,-397,-336,-208,-94,-17,105,309,382,266,417,1046,939
2018-09-18,16:30:31.547,71,87,317,340,290,255,238,222,247,349,462,501,452,380,325,313,333,342,304,278,261,269,311,242,181,111,40,56,-50,-179,-332,-515,-669,-764,-836,-870,-869,-851,-783,-690,-622,-515,-395,-274,-198,-149,-64,90,217,295,284,208,168,155,153,173,225,229,133,-70,52,1027,1571,618,22,51,149,222,188,131,112,95,81,82,95,104,113,79,49,18,-25,-51,-67,-50,-15,39,60,49,42,27,-26,-121,-267,-455,-661,-825,-929,-941,-906,-847,-737,-615,-496,-390,-301,-304,-369,-441,-353,-5,407,594,506,388,300,269,307,368,397,390,353,309,229,86,220,872,1005,47
2018-09-18,16:30:32.574,-239,54,138,91,35,5,-11,19,35,40,24,41,57,7,-1,-9,-2,21,0,-60,-155,-238,-316,-383,-468,-516,-609,-622,-603,-599,-610,-581,-506,-414,-316,-233,-126,70,215,270,277,273,271,271,314,351,413,482,492,458,350,222,199,210,227,261,252,216,120,8,256,905,825,-53,-184,15,61,59,79,73,58,53,48,56,83,98,77,62,80,36,-35,-93,-135,-192,-230,-268,-329,-369,-392,-406,-420,-415,-398,-392,-389,-355,-323,-305,-274,-116,137,317,398,308,225,199,207,249,293,309,353,399,382,327,224,189,225,253,248,219,163,131,56,18,354,833,401,-423
2018-09-18,16:30:33.602,-246,-47,-26,-72,-128,-143,-178,-220,-263,-297,-291,-327,-354,-381,-440,-478,-458,-450,-409,-350,-279,-244,-220,-188,-189,-184,-144,-131,-124,-112,-104,-57,6,63,96,131,210,265,293,314,314,309,301,271,238,266,337,371,379,335,213,138,86,65,65,49,36,0,-121,-34,664,1096,347,-244,-87,3,-17,-56,-69,-66,-83,-83,-97,-136,-161,-205,-273,-344,-397,-429,-428,-423,-413,-398,-371,-325,-273,-220,-174,-114,-8,76,72,102,194,247,210,124,33,-6,7,65,120,160,163,161,168,185,241,314,364,344,265,174,145,143,124,94,65,14,-28,-142,-242,67,894,890,-138,-299
2018-09-18,16:30:34.630,-229,-253,-264,-280,-267,-288,-327,-355,-365,-410,-440,-440,-405,-374,-349,-281,-190,-83,-4,81,201,296,346,429,495,478,408,310,202,141,112,120,149,155,148,144,152,145,151,168,204,237,223,182,123,120,165,185,166,87,37,27,34,45,29,17,-29,-184,-280,68,683,418,-392,-374,-225,-199,-232,-272,-283,-320,-408,-488,-576,-637,-655,-635,-600,-577,-579,-541,-474,-382,-262,-105,26,155,262,397,475,424,313,172,21,-82,-102,-63,8,61,59,50,35,27,59,117,144,132,108,65,87,147,158,135,79,9,-33,-48,-54,-53,-72,-84,-158,-276,-137,395,365,-415,-565,-391
2018-09-18,16:30:35.658,-354,-347,-381,-426,-461,-494,-504,-492,-460,-428,-367,-290,-220,-156,-85,-29,58,180,308,405,458,495,525,539,541,513,473,426,350,288,241,207,184,197,220,267,298,284,253,205,162,137,117,98,136,146,135,114,75,36,-18,0,19,5,-3,-95,-214,-11,671,796,-81,-421,-300,-304,-393,-446,-459,-471,-470,-466,-464,-419,-386,-359,-317,-251,-155,-53,55,178,318,430,599,746,736,664,560,465,401,342,269,208,171,134,86,91,111,135,156,127,101,79,80,69,77,76,119,133,86,35,-43,-99,-136,-135,-177,-219,-228,-298,-429,-509,-21,779,351,-590,-542,-547,-633,-649
2018-09-18,16:30:36.686,-622,-633,-599,-523,-456,-381,-306,-255,-205,-161,-86,10,83,162,227,283,320,374,430,464,460,492,521,504,442,319,228,179,184,187,201,228,228,204,178,146,103,58,2,-30,-10,50,101,126,104,22,-52,-90,-117,-134,-127,-118,-143,-343,-379,245,902,229,-561,-487,-434,-461,-469,-468,-455,-452,-454,-428,-380,-365,-342,-302,-272,-224,-137,-31,94,265,456,521,506,440,374,325,299,299,280,227,151,91,57,34,21,41,90,103,91,65,48,45,49,41,14,18,15,-27,-43,-103,-133,-131,-157,-185,-218,-271,-326,-406,-426,-36,321,-182,-801,-691,-580,-548,-560,-594,-603,-585
2018-09-18,16:30:37.714,-568,-536,-472,-403,-322,-204,-76,56,227,377,452,487,515,552,571,576,588,606,616,581,493,361,284,236,207,213,222,211,153,108,86,91,81,57,40,60,65,83,98,97,79,17,-23,-41,-50,-74,-81,-90,-112,-255,-344,73,703,222,-612,-614,-557,-582,-630,-649,-626,-567,-497,-392,-258,-132,-60,-2,35,99,227,407,537,574,537,474,459,471,499,523,513,463,362,246,156,103,79,89,124,144,112,88,97,108,108,74,31,-24,4,55,56,44,0,-59,-102,-168,-243,-286,-318,-330,-410,-591,-502,161,531,-279,-864,-823,-821,-835,-831,-770,-683,-588,-494,-404,-308,-214
2018-09-18,16:30:38.742,-105,1,171,347,446,457,457,511,606,680,717,701,680,667,613,603,560,450,353,325,291,258,221,205,207,201,180,164,145,127,111,143,202,238,192,116,-1,-96,-163,-207,-218,-232,-267,-296,-540,-778,-282,1168,1194,-246,-660,-821,-923,-975,-954,-920,-863,-755,-660,-573,-515,-440,-337,-223,-53,157,399,517,505,438,383,358,378,406,417,438,396,287,189,63,-2,-6,6,37,24,-17,-38,-21,21,60,63,53,33,83,147,147,108,43,-35,-107,-172,-204,-227,-257,-275,-418,-551,-249,415,254,-667,-788,-672,-619,-617,-588,-542,-491,-416,-310,-188,-81,19,105,210,368,492,524
2018-09-18,16:30:39.770,509,516,542,588,640,683,687,666,637,615,534,415,311,256,229,200,182,159,121,85,89,86,56,23,-10,-15,20,92,89,30,-55,-108,-121,-121,-115,-114,-104,-115,-245,-341,8,708,483,-425,-558,-494,-482,-521,-587,-599,-584,-572,-520,-455,-407,-327,-223,-98,62,199,346,473,502,488,448,419,428,457,496,525,490,412,294,187,106,87,143,182,166,132,100,94,110,106,96,90,68,72,52,14,11,-14,-101,-192,-239,-271,-313,-406,-450,-623,-750,-333,390,-50,-1001,-995,-923,-898,-878,-807,-728,-625,-512,-411,-331,-242,-134,-19,134,280,334,353,407,457,505,552,606,626
2018-09-18,16:30:40.798,602,562,510,455,375,280,178,142,128,91,50,12,-13,-20,-11,16,41,36,13,48,114,197,224,170,91,-12,-36,-39,-25,-6,-24,-52,-205,-452,-158,1001,1357,165,-434,-571,-687,-765,-809,-823,-815,-798,-769,-718,-644,-565,-406,-191,-17,118,281,518,701,709,664,567,472,444,467,510,521,470,389,291,183,124,113,132,157,142,107,129,165,200,197,178,155,125,150,161,136,98,36,-16,-76,-157,-297,-184,-103,-221,-425,-469,-65,581,140,-879,-854,-694,-618,-606,-557,-479,-401,-335,-290,-268,-235,-170,-95,-24,54,171,256,330,407,432,431,482,538,549,525,506,488,429
2018-09-18,16:30:41.825,338,262,191,153,144,163,175,164,120,96,94,105,102,66,38,21,80,144,143,90,-17,-74,-87,-110,-135,-128,-97,-111,-270,-280,312,773,109,-478,-459,-428,-399,-422,-479,-513,-504,-523,-497,-442,-419,-442,-461,-409,-435,-404,-267,-15,211,307,227,183,245,317,400,446,457,395,304,200,104,87,110,146,157,137,97,60,41,54,73,153,280,411,521,495,347,144,36,-18,-126,-213,-247,-286,-338,-501,-720,-445,501,621,-355,-569,-364,-294,-315,-325,-341,-353,-312,-221,-152,-106,-45,35,93,203,315,352,375,352,328,308,258,162,73,-38,-91,-78,-30,-6,-3,9,79,134
2018-09-18,16:30:42.853,127,54,-24,-102,-108,-86,-36,-2,27,57,98,220,339,374,380,319,214,106,12,-71,-145,-196,-240,-399,-728,-586,847,1911,701,-185,-414,-616,-740,-817,-862,-884,-841,-763,-638,-512,-391,-252,-127,4,139,283,358,342,326,346,391,473,543,576,595,580,517,412,257,90,44,146,228,214,177,150,135,174,266,383,473,537,570,544,505,403,274,129,-60,-142,-165,-237,-291,-312,-322,-360,-539,-576,-72,432,-154,-876,-740,-477,-390,-506,-407,-174,-157,-213,-215,-96,42,53,38,266,418,375,337,330,362,386,406,418,407,363,303,259,237,202,137,81,18,-51,-101,-144,-164,-184
2018-09-18,16:30:43.881,-168,-164,-157,-141,-108,-106,-126,-103,-84,-66,-114,-156,-236,-248,-219,-236,-303,-383,-450,-538,-732,-742,-148,170,-630,-1169,-892,-663,-497,-367,-222,-119,-94,-87,-38,101,239,334,414,504,523,467,388,352,371,424,470,490,494,449,386,369,356,321,249,158,63,2,-16,-9,4,-15,-47,-49,-94,-121,-131,-133,-171,-115,-80,-82,-128,-190,-329,-380,-405,-488,-538,-583,-643,-776,-965,-793,-26,218,-570,-783,-471,-310,-245,-189,-102,-8,72,140,181,223,291,379,440,482,496,483,516,552,565,564,560,541,524,530,533,490,422,289,144,29,-21,-23,-8,-21,-20,-27,-9,38,83,101
2018-09-18,16:30:44.909,78,31,-19,-29,1,-9,-59,-126,-197,-220,-235,-259,-295,-331,-404,-650,-889,-478,773,817,-438,-682,-621,-558,-480,-402,-333,-233,-130,-35,113,299,412,445,351,273,273,321,395,481,502,461,415,405,394,419,449,478,412,268,121,60,81,86,53,6,-28,-61,-89,-125,-126,-105,-70,-70,-91,-24,-7,-38,-90,-171,-258,-350,-401,-424,-461,-507,-554,-720,-740,-160,436,-136,-826,-606,-389,-272,-177,-77,13,119,266,381,433,455,477,481,494,520,562,614,644,627,610,608,605,600,583,542,502,435,333,195,67,-10,-46,-69,-105,-150,-158,-145,-146,-144,-125,-118,-147,-125,-72,-79
2018-09-18,16:30:45.937,-99,-123,-192,-236,-242,-258,-285,-311,-333,-412,-572,-457,115,189,-582,-862,-632,-486,-408,-323,-232,-174,-130,-55,-2,71,168,288,302,254,213,195,210,259,291,313,318,287,267,245,238,258,246,184,80,-25,-91,-123,-116,-86,-73,-73,-80,-117,-172,-186,-202,-238,-194,-118,-90,-143,-236,-314,-359,-367,-396,-448,-507,-564,-730,-909,-645,178,188,-744,-773,-554,-470,-405,-321,-200,-67,52,159,296,380,395,396,399,407,429,479,511,528,553,578,558,525,491,488,508,507,447,325,174,78,21,-4,-20,-26,-26,-30,-10,5,-8,2,19,55,99,99,86,46,-47,-77,-93,-108,-117
2018-09-18,16:30:46.965,-132,-164,-262,-584,-644,252,1198,357,-513,-587,-616,-620,-574,-473,-385,-328,-248,-180,-107,-17,97,257,344,326,315,278,266,292,363,410,424,408,376,326,294,269,242,199,167,114,62,27,0,6,27,36,30,-2,-41,-71,-85,-42,23,16,-7,-79,-173,-223,-254,-296,-303,-314,-340,-466,-544,-222,271,-66,-827,-768,-585,-519,-488,-469,-427,-390,-348,-271,-157,-68,39,130,174,216,240,267,305,347,386,426,451,467,464,450,445,444,419,357,237,153,88,44,47,64,73,45,16,20,18,17,23,56,113,119,122,87,18,0,0,-11,5,7,-7,-99,-264,-113,527,443
2018-09-18,16:30:47.993,-525,-677,-531,-451,-413,-414,-406,-386,-370,-306,-206,-104,-22,37,101,236,400,543,507,402,349,343,385,415,439,457,455,406,323,231,159,108,93,78,51,17,2,34,80,84,69,48,17,20,45,5,-19,-71,-159,-195,-213,-222,-255,-295,-305,-420,-626,-543,125,365,-475,-893,-787,-745,-774,-796,-755,-673,-581,-497,-419,-287,-151,-27,94,268,397,424,400,362,391,449,505,563,599,596,567,518,447,355,270,191,168,161,128,80,47,21,6,-26,-53,-80,-96,-82,0,73,65,34,-45,-119,-159,-150,-136,-112,-84,-100,-279,-383,131,1076,788,-358,-550,-588,-646,-680,-694,-683
2018-09-18,16:30:49.021,-659,-613,-567,-539,-459,-360,-258,-160,-116,-41,75,225,436,617,622,529,439,403,389,387,386,355,266,162,104,110,164,220,239,200,165,137,161,191,218,217,211,244,211,170,111,55,46,65,62,46,42,4,-85,-219,-16,781,921,-94,-353,-189,-152,-180,-213,-224,-201,-184,-155,-128,-88,-42,11,107,204,292,399,530,619,610,589,589,594,600,624,638,636,585,487,362,245,179,167,166,158,134,121,101,50,-13,-57,-88,-95,-66,-83,-117,-166,-241,-308,-343,-348,-361,-393,-405,-442,-557,-453,131,389,-350,-823,-697,-621,-633,-701,-737,-750,-777,-794,-779,-737,-651,-578,-508
2018-09-18,16:30:50.049,-487,-459,-420,-379,-264,-150,-47,100,166,99,-2,-90,-122,-150,-185,-194,-242,-311,-342,-335,-352,-347,-299,-238,-226,-237,-227,-206,-145,-48,3,0,-47,-136,-196,-215,-204,-164,-155,-183,-240,-354,-208,379,474,-283,-551,-350,-252,-256,-316,-364,-401,-401,-369,-347,-298,-232,-172,-137,-88,-18,110,249,346,451,562,633,643,617,588,605,609,576,526,441,363,304,271,353,444,517,587,611,600,618,624,620,646,678,613,522,432,338,293,293,282,273,247,194,45,-149,133,1131,1248,149,-103,-28,2,-42,-100,-166,-242,-304,-356,-365,-366,-367,-339,-323,-268,-203,-152,-106,-40,20,63,167
2018-09-18,16:30:51.076,288,378,474,516,461,326,183,75,51,74,102,104,69,58,53,52,51,77,95,64,46,74,83,71,6,-70,-145,-148,-44,9,-40,-53,-300,-558,-174,1023,1110,-101,-451,-445,-443,-502,-535,-532,-489,-462,-447,-433,-417,-431,-393,-354,-294,-226,-166,-135,-86,-20,72,131,177,218,239,244,253,261,217,156,111,86,77,98,105,97,105,126,153,173,222,245,235,256,228,183,143,62,-12,-79,-122,-103,-120,-170,-214,-367,-347,240,692,-31,-658,-436,-361,-205,-72,-88,-138,-184,-223,-307,-432,-512,-548,-558,-556,-579,-544,-415,-290,-216,-132,11,125,176,233,286,307,300,269,206
2018-09-18,16:30:52.104,133,90,73,72,84,99,134,175,192,163,137,157,178,230,285,270,223,175,121,125,123,85,106,187,157,-90,-285,144,761,560,-321,-474,-305,-243,-283,-342,-368,-361,-303,-238,-232,-255,-268,-256,-236,-198,-175,-136,-90,-32,8,55,166,216,203,200,298,301,247,195,147,120,81,36,47,99,139,160,160,156,152,151,183,189,201,213,199,174,97,26,-11,-25,-13,20,8,0,-99,-221,99,873,808,-170,-312,-116,-35,-87,-95,-47,-14,10,49,55,20,-49,-127,-185,-216,-166,-169,-171,-108,-32,44,130,248,312,299,308,342,292,210,131,67,24,29,36,45,76
2018-09-18,16:30:53.132,125,120,126,124,116,88,49,51,167,272,294,245,158,67,21,-26,-25,-30,37,101,-53,-321,-16,1168,1069,-323,-569,-386,-393,-529,-621,-624,-611,-569,-532,-539,-531,-544,-566,-556,-566,-579,-540,-511,-432,-289,-194,-96,-17,3,21,41,47,27,-54,-169,-219,-218,-194,-204,-234,-224,-179,-140,-105,-107,-147,-155,-118,-91,-24,26,20,-20,-66,-122,-169,-183,-172,-125,-103,-63,-81,-267,-305,206,753,247,-430,-312,-197,-187,-175,-139,-102,-77,-43,-22,-28,-46,-62,-80,-98,-103,-107,-98,-50,14,125,181,277,358,415,432,437,448,435,355,271,195,137,104,105,142,209,232,230,213
2018-09-18,16:30:54.160,196,186,154,170,195,272,339,325,312,301,271,262,259,272,298,320,285,189,87,289,856,715,-219,-267,-13,77,51,0,-4,-10,-22,-47,-69,-85,-147,-191,-182,-187,-190,-125,-23,121,242,321,393,450,481,468,453,424,425,382,304,200,132,149,165,161,148,94,59,35,19,19,14,-6,-42,-7,75,72,-8,-69,-115,-121,-137,-134,-132,-134,-140,-188,-392,-426,213,858,246,-491,-408,-312,-293,-321,-304,-316,-303,-316,-299,-260,-247,-312,-380,-393,-365,-326,-331,-277,-253,-247,-176,-109,7,102,155,181,134,71,-9,-122,-189,-185,-128,-57,-19,-20,-15,12,5,-1,-36,-81
2018-09-18,16:30:55.188,-112,-162,-115,24,93,43,-41,-116,-97,-90,-128,-139,-87,-65,-128,-267,-191,494,1122,353,-436,-272,-196,-217,-272,-292,-288,-311,-302,-242,-202,-203,-220,-239,-207,-133,-84,-20,71,132,181,228,274,275,265,304,301,271,193,108,24,-24,-25,-43,-29,0,15,47,71,72,67,61,77,66,32,69,124,173,183,147,97,35,2,-24,-9,6,-26,-56,-80,-207,-64,548,653,-144,-473,-276,-169,-146,-162,-177,-162,-172,-182,-182,-213,-265,-265,-239,-261,-259,-178,-116,-60,47,130,165,228,260,273,279,290,260,189,105,26,-5,-42,-64,-23,0,11,36,23,21,18,39,23,33
2018-09-18,16:30:56.216,69,90,116,192,205,181,136,83,81,99,105,106,100,45,-99,-150,196,785,537,-372,-431,-196,-145,-170,-154,-128,-126,-116,-115,-112,-137,-191,-179,-171,-154,-123,-114,-92,-32,24,112,182,205,212,225,261,290,273,215,139,76,56,70,98,141,151,144,162,164,141,132,126,106,112,138,154,185,245,235,184,101,19,-31,-72,-99,-65,-48,-78,-212,-390,-160,817,1075,15,-343,-290,-259,-273,-268,-254,-253,-235,-196,-197,-238,-298,-350,-363,-356,-353,-335,-299,-266,-171,-79,15,111,208,262,317,388,417,377,259,157,87,34,7,22,58,71,68,63,54,24,-3,-4,34
2018-09-18,16:30:57.244,139,172,181,158,134,102,51,40,38,67,65,4,-37,36,-53,-57,385,788,181,-556,-446,-377,-414,-448,-457,-455,-452,-445,-441,-425,-416,-397,-353,-345,-300,-221,-155,-82,-10,92,182,237,291,342,369,379,402,364,284,206,143,111,100,114,137,142,108,95,101,133,168,151,135,126,105,80,113,163,156,91,-5,-63,-72,-61,-54,-56,-73,-124,-271,-278,199,736,274,-460,-347,-204,-176,-208,-234,-251,-283,-311,-370,-419,-445,-437,-394,-312,-231,-145,-71,38,135,231,312,372,436,534,593,572,516,402,261,124,84,68,63,87,84,57,58,48,40,59,114,79,-23,-105
2018-09-18,16:30:58.272,-129,-82,38,104,15,-107,-160,-159,-175,-206,-265,-263,-149,-337,-500,16,945,549,-502,-594,-578,-536,-530,-530,-508,-441,-377,-310,-263,-227,-199,-157,-124,-122,-99,-19,68,159,228,269,309,350,381,408,435,443,449,400,340,290,254,240,231,208,179,171,171,216,244,213,187,150,88,38,-10,37,105,110,68,10,-22,-68,-130,-171,-179,-221,-268,-302,-434,-180,781,977,-153,-496,-345,-293,-345,-420,-448,-450,-442,-422,-409,-416,-414,-368,-281,-194,-137,-39,55,144,253,358,416,465,504,498,441,380,333,245,157,101,57,26,0,-17,3,12,29,74,122,131,100,35,18,7
2018-09-18,16:30:59.299,23,78,57,-9,-70,-29,-108,-140,-22,-78,-129,-89,-149,-368,-332,188,528,-166,-732,-558,-422,-354,-362,-361,-338,-294,-245,-224,-230,-224,-212,-163,-63,-3,48,117,173,216,270,331,367,401,395,351,348,372,357,300,223,165,131,132,139,140,185,262,290,289,284,274,205,150,125,83,62,82,70,52,5,-54,-82,-116,-143,-147,-177,-204,-300,-437,-204,588,694,-266,-565,-358,-292,-306,-352,-412,-489,-543,-556,-519,-454,-394,-321,-252,-196,-150,-80,33,160,274,380,435,491,536,555,523,472,411,331,243,178,119,93,74,72,99,157,193,161,133,88,60,54,27,13,39
2018-09-18,16:31:00.327,127,153,133,107,50,-56,-164,-131,-137,-244,-285,-262,-542,-533,215,844,76,-681,-604,-547,-521,-527,-531,-493,-463,-388,-305,-232,-159,-93,-15,67,146,240,307,358,407,442,450,474,508,527,519,517,486,413,315,239,175,132,143,138,149,200,212,219,169,114,70,13,20,-30,-42,-32,3,19,-34,-115,-164,-207,-264,-311,-338,-316,-288,-346,-416,-5,679,347,-559,-575,-460,-409,-421,-443,-427,-389,-345,-304,-270,-201,-96,-14,84,191,251,269,308,404,484,541,583,588,527,483,434,401,353,257,151,80,40,55,107,158,150,-31,-478,-628,-590,-536,-494,-471,-448,-396,-312,-218
2018-09-18,16:31:01.355,-188,-185,-176,-175,-184,-194,-215,-244,-249,-239,-333,-429,-137,557,536,-255,-383,-240,-176,-162,-154,-133,-104,-121,-103,-35,42,151,225,297,356,427,507,588,603,608,593,588,574,564,546,516,474,398,297,175,91,63,28,5,-49,-85,-126,-135,-152,-167,-170,-177,-156,-164,-189,-180,-96,-71,-100,-179,-257,-313,-356,-379,-395,-422,-420,-453,-600,-564,38,421,-307,-819,-703,-640,-640,-649,-600,-502,-417,-346,-312,-288,-198,-98,7,126,210,283,269,212,189,216,274,310,319,292,228,175,124,59,3,-16,-26,-42,-67,-60,-45,-29,-13,16,44,37,16,-1,-2,-7,-7,54,79,75
2018-09-18,16:31:02.383,18,-65,-132,-164,-186,-171,-141,-142,-167,-261,-285,91,532,129,-517,-418,-250,-169,-129,-85,-28,22,79,150,224,321,391,465,487,517,534,550,569,617,647,679,673,656,614,583,539,505,444,349,248,145,45,-9,-24,-38,-67,-75,-88,-86,-94,-86,-82,-72,-68,-51,5,27,20,10,-48,-97,-122,-164,-194,-203,-236,-268,-389,-430,-20,465,-8,-702,-555,-404,-348,-307,-236,-197,-181,-149,-66,45,139,224,356,444,416,374,335,329,362,416,441,427,397,351,328,336,328,244,118,-1,-87,-129,-138,-125,-125,-106,-84,-78,-78,-72,-60,-82,-141,-220,-251,-247,-271,-300,-328,-381
2018-09-18,16:31:03.411,-438,-460,-434,-433,-428,-432,-490,-657,-623,-54,390,-194,-734,-493,-311,-212,-153,-76,23,189,332,379,356,321,302,307,334,380,421,472,498,483,463,451,490,520,501,453,381,289,157,30,-57,-137,-173,-189,-189,-190,-204,-199,-169,-128,-119,-130,-169,-168,-179,-176,-103,-77,-105,-177,-274,-314,-326,-361,-429,-470,-486,-548,-744,-741,-21,730,151,-598,-333,-143,-19,94,232,447,529,452,302,172,111,131,172,241,299,301,287,280,314,414,482,491,442,368,338,307,251,180,80,-19,-92,-165,-230,-270,-278,-276,-288,-300,-295,-323,-357,-369,-392,-422,-408,-338,-259,-256,-317,-405,-441,-454
