2018-09-19,10:39:43.849,90,99,94,88,68,60,61,64,56,-10,-58,-93,-126,-147,-140,-138,-152,-160,-204,-219,-229,-254,-272,-277,-275,-265,-258,-249,-244,-263,-230,-207,-181,-176,-158,-116,-133,-156,-149,-136,-146,-169,-172,-158,-159,-147,-89,-43,-13,44,101,103,96,86,105,134,172,170,155,158,151,135,115,46,-106,-151,434,1088,709,19,-317,-398,-216,3,39,32,67,78,48,57,83,79,95,90,73,92,101,89,102,142,148,147,156,191,238,256,250,239,213,200,199,176,156,139,97,37,24,50,64,88,95,75,75,107,79,59,60,69,58,46,56,25,-3,-1,0,-10,0,-34
2018-09-19,10:39:44.876,-55,-79,-95,-118,-117,-109,-98,-98,-161,-240,-309,-416,-548,-692,-805,-862,-851,-817,-793,-780,-734,-561,-335,-84,144,276,263,250,785,1412,1112,485,161,57,177,435,604,629,640,643,637,657,671,661,679,750,799,798,712,670,663,536,368,200,59,-84,-219,-294,-358,-426,-481,-520,-538,-535,-568,-605,-585,-555,-546,-497,-426,-363,-312,-270,-230,-184,-170,-176,-210,-279,-303,-303,-358,-422,-458,-488,-524,-549,-509,-468,-459,-436,-393,-363,-334,-290,-238,-180,-134,-88,-72,-42,-84,-64,-33,-12,3,11,34,36,51,43,10,-71,-193,134,810,695,-13,-401,-494,-365,-85,71,116,143,181,211
2018-09-19,10:39:45.904,227,219,192,183,192,203,227,229,188,172,181,199,215,217,240,272,289,285,252,245,271,274,228,198,177,112,89,95,105,110,127,111,86,64,39,7,-31,-57,-76,-110,-141,-123,-109,-94,-63,-60,-84,-93,-93,-82,-102,-103,-59,-45,-37,-44,-39,-18,23,74,96,93,93,89,92,106,115,117,126,117,127,130,143,151,82,-60,-51,609,972,266,-304,-460,-444,-219,38,120,112,104,117,119,93,91,78,48,43,40,-5,-46,-52,-81,-77,-46,-29,-48,-21,-5,-7,-1,28,43,23,2,-11,-53,-85,-112,-130,-168,-200,-244,-236,-186,-160,-131,-129,-136,-113,-77
2018-09-19,10:39:46.932,-107,-131,-97,-60,-35,-29,-22,-30,-78,-102,-88,-85,-83,-106,-120,-90,-98,-90,-35,-14,-44,-66,-46,-25,-9,3,-4,10,10,-11,-24,-5,-80,-165,237,792,514,-129,-404,-482,-357,-116,28,73,117,137,151,173,188,205,193,162,178,150,125,110,99,104,75,75,71,80,89,94,110,100,91,100,109,110,93,47,-13,-75,-79,-62,-95,-118,-134,-140,-155,-168,-199,-218,-239,-239,-245,-260,-242,-201,-189,-170,-132,-106,-96,-74,-53,-56,-44,-3,28,46,53,77,52,32,57,85,72,82,90,109,122,106,109,51,-60,134,810,883,162,-283,-427,-342,-82,103,156,159
2018-09-19,10:39:47.960,174,229,231,241,222,213,208,204,159,108,61,36,17,23,41,54,46,40,45,26,12,22,48,75,67,29,-18,-72,-124,-150,-167,-199,-240,-238,-250,-235,-234,-249,-268,-280,-290,-291,-282,-283,-263,-240,-207,-176,-169,-157,-148,-145,-134,-116,-150,-90,-39,-4,-16,-24,-48,-53,-78,-105,-98,-64,-68,-76,-49,-22,-8,-8,-113,-225,222,932,577,-201,-475,-491,-302,13,203,217,236,267,230,227,249,236,216,242,266,268,246,222,205,183,136,130,134,152,177,193,219,249,272,263,275,286,271,216,188,165,122,74,39,21,17,24,26,34,27,35,21,-18,-24,-30
2018-09-19,10:39:48.988,-23,-56,-76,-74,-98,-82,-90,-90,-77,-61,-30,10,19,14,-20,-45,-14,12,-6,-23,-26,-29,-43,-75,-42,-27,-106,-247,-132,491,651,-42,-486,-647,-616,-370,-153,-108,-107,-88,-89,-109,-101,-85,-63,-56,-56,-64,-63,-76,-82,-58,-31,-22,-40,-6,-12,11,21,29,18,29,41,45,25,3,-26,-60,-85,-91,-93,-84,-53,-50,-61,-42,-39,-35,-14,-14,-9,5,11,-5,16,28,54,29,28,75,151,157,138,90,46,24,45,64,76,76,70,63,43,46,27,-43,-178,-17,604,732,96,-354,-515,-461,-205,-3,49,51,59,47,61,75,82,100,123,116,113,99
2018-09-19,10:39:50.016,91,63,60,102,97,82,79,93,88,95,100,101,85,86,45,-9,-55,-85,-143,-205,-198,-212,-238,-232,-215,-183,-193,-232,-215,-190,-218,-217,-220,-222,-202,-191,-179,-162,-149,-167,-148,-120,-78,-56,-39,-37,-48,-73,-76,-38,-19,-26,0,22,42,55,88,100,65,-35,-133,336,933,546,-128,-401,-466,-299,-13,72,63,75,78,97,138,155,157,156,153,165,174,167,156,140,107,62,44,38,54,69,62,89,103,138,148,134,106,93,67,27,12,-18,-27,-23,-16,-44,-45,-47,-32,-29,-47,-81,-75,-56,-65,-85,-51,-36,-34,-18,10,33,43,89,124,151,164,158
2018-09-19,10:39:51.044,128,129,100,89,73,65,73,80,101,95,66,7,-136,-171,452,921,323,-310,-513,-487,-238,22,64,57,65,90,106,112,114,113,94,80,103,71,39,-7,-43,-53,-64,-49,-17,1,14,28,60,83,91,106,113,109,71,17,-43,-66,-80,-83,-72,-100,-125,-122,-106,-124,-177,-186,-145,-135,-132,-122,-146,-162,-154,-151,-164,-155,-121,-116,-141,-186,-173,-126,-98,-122,-172,-202,-209,-204,-199,-209,-179,-150,-150,-161,-172,-141,-156,-231,-220,313,718,189,-352,-551,-552,-330,-91,-24,3,48,67,85,100,108,108,124,168,204,213,218,218,221,208,195,207,212,228,241,274,300
2018-09-19,10:39:52.071,290,266,251,232,201,167,138,111,86,69,72,87,96,121,141,146,144,120,90,56,21,6,-20,-34,-40,-59,-99,-116,-93,-105,-108,-119,-121,-132,-174,-220,-233,-253,-261,-252,-252,-226,-211,-202,-198,-165,-149,-206,-303,-230,412,649,-51,-508,-670,-612,-337,-149,-136,-148,-130,-76,-52,-33,-5,-7,-7,13,16,37,89,122,118,123,145,167,154,162,149,121,115,117,143,150,136,121,84,29,28,35,8,-7,-20,-30,-58,-36,-15,-15,-24,-23,-16,-18,10,43,20,29,60,100,118,113,117,125,171,180,190,242,287,289,267,207,154,159,150,156,163,140,146,166
2018-09-19,10:39:53.099,169,166,163,112,-47,-5,660,941,218,-306,-465,-432,-178,45,108,116,103,97,78,61,49,10,17,-20,-40,-43,-77,-147,-197,-229,-226,-232,-219,-172,-146,-131,-103,-86,-85,-86,-69,-61,-87,-140,-193,-194,-197,-199,-197,-195,-208,-226,-223,-218,-211,-180,-139,-78,-40,-19,-8,7,32,55,81,97,114,123,115,86,77,72,42,65,99,123,146,112,73,68,60,32,-1,-11,-21,-34,-22,-3,5,10,-114,-197,250,836,471,-209,-475,-519,-349,-69,51,82,102,101,70,63,59,39,35,58,61,45,44,41,35,43,36,23,2,-6,-10,-16,13,51,40,33,6,-32
2018-09-19,10:39:54.127,-71,-88,-136,-160,-184,-181,-161,-154,-176,-176,-176,-194,-198,-199,-197,-176,-171,-147,-124,-131,-94,-82,-66,-57,-18,20,8,21,37,29,60,81,82,82,55,35,49,97,118,86,63,34,27,38,48,54,6,-97,-42,570,895,270,-198,-375,-346,-127,122,237,235,244,267,288,276,276,290,314,290,278,273,260,273,265,232,237,238,230,201,193,188,168,122,125,85,44,14,-43,-76,-126,-141,-130,-131,-132,-128,-170,-173,-157,-160,-151,-151,-146,-141,-158,-153,-143,-161,-163,-139,-133,-125,-72,-65,-70,-95,-81,-11,26,34,38,21,-31,-58,-56,-63,-67,-73,-85,-67,-27
2018-09-19,10:39:55.155,-46,-41,-101,-279,-120,577,695,-31,-529,-715,-664,-446,-270,-251,-239,-219,-239,-251,-250,-285,-302,-324,-290,-259,-225,-195,-133,-97,-89,-40,-19,-7,0,-20,-40,-25,-34,-59,-40,-42,-76,-110,-113,-105,-101,-86,-20,53,101,167,236,240,254,271,278,300,318,328,335,329,339,335,340,344,325,308,307,321,319,309,290,266,213,196,200,211,195,131,90,50,49,39,37,45,58,55,68,68,49,46,-35,-150,158,869,732,-88,-482,-576,-440,-167,-15,26,48,40,27,-19,-21,-42,-51,-31,-7,-15,-26,-9,-9,-67,-109,-133,-139,-146,-143,-141,-123,-152,-106,-38,-1,10
2018-09-19,10:39:56.183,-1,-76,-142,-143,-109,-100,-102,-84,-72,-73,-59,-39,-32,-27,1,21,31,43,33,33,39,48,77,85,99,114,96,92,86,103,93,84,64,50,40,30,4,19,32,-7,-37,-43,-53,-73,-88,-120,-127,-159,-193,-229,-246,-334,-457,-157,572,547,-179,-575,-671,-566,-293,-83,-36,-40,-30,-9,-10,-23,-56,-75,-69,-42,-31,-22,-6,4,11,31,34,33,11,18,16,-2,23,25,7,-2,17,26,3,-18,-41,-73,-81,-73,-69,-79,-68,-16,5,29,65,70,70,65,81,91,108,170,211,236,257,281,311,318,319,316,305,284,216,190,192,194,166,180,200,186
2018-09-19,10:39:57.211,138,110,82,63,41,39,24,-24,-46,-51,-67,-135,-244,-170,430,768,200,-290,-466,-480,-281,-41,18,21,11,10,1,-21,-27,-36,-26,4,15,-3,-6,-24,-55,-85,-109,-129,-144,-169,-182,-175,-175,-142,-124,-138,-179,-203,-232,-290,-331,-367,-369,-380,-336,-322,-350,-339,-321,-295,-281,-248,-202,-173,-139,-118,-99,-92,-88,-35,17,54,102,150,164,177,215,225,183,200,240,239,270,271,228,192,191,156,127,145,170,182,215,241,248,191,15,69,817,1145,354,-239,-394,-350,-80,142,130,98,101,72,58,65,18,-30,-71,-95,-98,-143,-167,-184,-182,-140,-93,-50,-19,8
2018-09-19,10:39:58.239,79,163,168,184,210,200,196,194,137,58,2,-29,-68,-70,-69,-46,-25,-31,-32,-18,22,65,99,102,71,46,59,82,93,98,73,52,10,-17,-33,-54,-82,-84,-83,-81,-25,-2,6,4,-35,-46,-26,-14,2,-21,-73,-115,-97,-117,-130,-127,-150,-258,-57,579,616,-98,-561,-696,-611,-344,-156,-128,-118,-111,-69,-29,9,14,52,140,176,144,162,155,156,170,162,153,152,151,139,123,124,129,87,73,75,40,-22,-68,-146,-206,-225,-231,-275,-306,-292,-295,-286,-298,-284,-273,-255,-215,-167,-117,-74,-35,-28,-23,-17,-18,-20,-33,-36,0,-9,-7,30,80,116,145
2018-09-19,10:39:59.266,158,140,134,178,181,150,141,132,120,76,60,55,27,-85,-74,454,804,293,-227,-407,-424,-259,6,131,153,197,209,195,190,173,150,134,121,95,111,123,106,95,74,64,94,129,169,188,205,204,218,225,229,234,201,131,36,-3,-23,-76,-90,-125,-156,-186,-206,-208,-231,-240,-213,-204,-219,-224,-218,-220,-223,-210,-195,-207,-239,-246,-208,-159,-133,-82,-40,18,43,-10,-36,-30,-41,-50,-53,-67,-74,-73,-89,-77,-83,-68,-159,-271,111,839,642,-184,-493,-558,-386,-94,37,41,33,33,51,50,44,62,61,70,80,96,99,76,82,91,71,45,39,50,69,72
2018-09-19,10:40:00.294,89,114,163,213,256,241,188,137,91,51,20,4,-3,-22,-64,-109,-135,-139,-166,-190,-196,-183,-162,-134,-111,-85,-67,-94,-80,-41,-54,-77,-87,-88,-96,-87,-75,-72,-44,1,27,8,-2,13,12,25,3,-20,-1,0,3,8,48,18,-85,8,734,1078,340,-259,-388,-284,-29,205,287,316,322,317,322,317,306,330,334,315,299,281,287,248,195,182,162,142,98,100,100,101,112,101,86,64,21,-43,-97,-137,-196,-204,-180,-206,-221,-209,-209,-222,-225,-206,-221,-249,-219,-195,-164,-145,-130,-104,-80,-79,-86,-62,-55,-61,-79,-93,-88,-72,-63,-12,14,27,42,13
2018-09-19,10:40:01.322,-14,-18,-16,-30,-66,-52,-7,0,-18,-42,-52,-117,-254,-198,372,632,13,-461,-651,-652,-403,-152,-37,6,54,32,6,13,19,51,79,80,71,85,122,130,107,123,160,177,196,175,199,205,177,128,103,70,27,-34,-96,-164,-204,-196,-201,-206,-178,-141,-113,-89,-101,-118,-117,-150,-164,-161,-149,-144,-123,-127,-135,-113,-89,-42,5,16,0,-1,10,20,61,78,84,69,11,-20,-37,-77,-107,-96,-77,-60,-45,-29,-8,-1,-65,-173,84,826,862,82,-286,-314,-134,149,346,381,381,386,393,413,378,337,325,292,266,248,213,185,156,96,23,-54,-98,-105,-118,-130
2018-09-19,10:40:02.350,-108,-58,-44,-36,-28,-35,-93,-128,-149,-172,-180,-175,-176,-191,-190,-177,-152,-137,-130,-127,-107,-86,-79,-79,-91,-88,-116,-114,-103,-123,-125,-111,-86,-102,-125,-86,-58,-51,-20,28,50,58,115,143,158,148,150,115,82,90,54,25,18,36,47,67,75,104,24,-133,14,776,1050,290,-277,-429,-345,-80,63,65,53,72,89,90,83,84,81,73,99,41,-10,-25,-12,0,-3,11,35,42,62,55,72,92,102,112,107,79,66,47,16,0,-19,-51,-44,-42,-32,-4,-31,-29,-18,-56,-76,-90,-105,-115,-121,-133,-141,-155,-185,-217,-195,-166,-164,-170,-151,-168,-200,-216
2018-09-19,10:40:03.378,-199,-144,-181,-151,-85,-46,-3,17,19,5,13,33,28,3,-14,-3,-6,-5,-3,-36,-147,-244,109,763,587,-105,-400,-431,-297,-89,43,88,93,98,72,69,55,26,1,-17,-19,-6,-5,-1,42,79,45,45,48,96,113,92,110,118,136,93,98,116,90,29,-3,-20,-36,-39,-51,-61,-63,-85,-105,-84,-70,-123,-151,-144,-144,-152,-126,-111,-92,-64,-20,-3,32,69,88,88,77,66,71,82,89,96,116,106,66,46,43,26,7,-26,-41,-65,-72,-87,-51,-41,-138,-109,544,921,271,-320,-492,-437,-222,-9,42,12,-4,33,60,95,110,112,110,109,99,74
2018-09-19,10:40:04.406,24,5,-40,-81,-78,-75,-85,-109,-109,-107,-115,-117,-105,-104,-108,-153,-205,-220,-216,-203,-177,-138,-86,-58,-63,-33,-13,-14,-9,-10,-18,-14,22,30,11,4,-2,-11,-2,25,22,1,-18,7,50,102,137,158,168,188,216,246,252,240,204,139,77,47,4,-41,-69,-78,-70,-77,-112,-113,-114,-170,-322,-371,241,744,119,-537,-710,-682,-402,-107,-13,25,65,82,76,72,81,52,61,41,25,17,15,8,9,18,24,22,38,28,48,73,126,227,283,310,327,311,267,215,177,166,184,189,166,165,200,234,278,307,334,364,389,423,451,431,372,294,253,222
2018-09-19,10:40:05.433,231,223,194,169,138,115,98,87,57,43,39,25,9,22,43,40,21,33,54,66,71,75,57,67,82,89,17,-20,-35,-178,-120,491,778,109,-425,-623,-640,-458,-257,-216,-266,-296,-292,-274,-281,-289,-288,-315,-301,-341,-340,-335,-351,-364,-354,-335,-300,-247,-203,-164,-110,-76,-76,-63,-38,-40,-69,-93,-127,-165,-177,-194,-217,-247,-290,-312,-311,-329,-354,-376,-390,-386,-357,-329,-303,-251,-222,-208,-198,-178,-154,-139,-129,-112,-119,-74,-9,-2,-1,16,50,67,65,65,93,122,109,105,116,104,116,142,167,156,140,24,-71,413,1011,648,-73,-364,-399,-217,79,168,165,189
2018-09-19,10:40:06.461,190,178,168,140,122,105,100,99,56,33,0,-24,-3,36,90,160,215,231,260,287,287,299,299,283,232,168,131,104,84,44,4,-23,-43,-38,-70,-99,-129,-128,-83,-48,-22,0,30,56,98,115,126,132,124,126,138,132,123,109,84,86,88,106,94,94,100,114,124,95,43,25,17,18,1,-32,-49,-70,-73,-100,-97,-126,-264,-362,206,796,212,-556,-815,-834,-642,-370,-277,-284,-279,-268,-223,-181,-148,-114,-128,-154,-153,-153,-154,-147,-150,-144,-100,-102,-113,-69,-65,-44,31,79,105,116,96,98,139,211,286,328,362,398,441,435,420,429,479,497,485,463
2018-09-19,10:40:07.489,449,377,319,293,251,175,111,41,-33,-117,-163,-195,-185,-194,-205,-181,-181,-186,-162,-83,-38,2,21,-14,-51,-25,9,1,5,12,75,101,183,286,330,312,263,443,1059,1233,516,8,-157,-176,12,176,140,66,15,-26,-82,-63,-23,0,34,109,137,75,45,61,27,-80,-197,-295,-365,-399,-494,-511,-455,-505,-566,-612,-660,-708,-768,-800,-794,-771,-764,-771,-657,-530,-469,-381,-272,-180,-100,-4,75,193,281,305,315,341,310,290,249,174,114,57,25,0,-33,-9,1,21,1,-57,-127,-136,-128,-127,-127,-134,-138,-124,-77,-36,-10,-31,-139,-56,661,1100,424,-155,-304,-295
2018-09-19,10:40:08.517,-20,245,296,274,235,234,288,306,295,321,359,445,580,627,673,716,723,692,621,512,377,267,157,48,-45,-130,-195,-287,-378,-430,-465,-470,-481,-469,-411,-326,-250,-213,-217,-211,-164,-127,-92,-53,-31,-19,0,17,44,60,57,70,63,53,57,42,11,29,44,50,83,129,107,34,-51,-119,-173,-220,-233,-206,-181,-151,-122,-110,-95,-83,-159,-200,430,1054,514,-164,-386,-392,-208,13,88,75,54,41,40,22,9,11,58,54,-14,-34,-66,-79,-90,-119,-140,-167,-156,-123,-89,-56,-51,-32,-5,29,31,0,-13,-3,-39,-56,-43,-38,-29,-11,29,41,48,21,-2,14
2018-09-19,10:40:09.545,23,-12,-30,-20,-11,-4,-18,-14,16,25,34,52,82,77,63,85,125,142,116,66,42,50,27,7,0,-16,-21,-11,9,4,21,-26,-178,3,769,888,83,-418,-508,-407,-167,-1,32,46,58,39,36,60,86,119,122,126,126,118,102,74,58,49,30,24,44,78,88,67,58,69,63,42,26,4,-28,-66,-59,-63,-65,-51,-43,-33,-25,-14,0,17,19,27,25,6,9,28,31,25,4,-6,4,16,11,31,41,40,-23,-107,-149,-163,-170,-153,-133,-139,-142,-164,-163,-143,-141,-221,-357,-193,491,645,-108,-569,-676,-568,-309,-87,-43,-41,-33,-31,-4,-14
2018-09-19,10:40:10.573,-30,-33,-46,-47,-64,-90,-98,-87,-78,-95,-106,-99,-68,-49,-26,-1,16,15,38,42,28,19,22,0,0,4,0,0,8,6,13,16,6,17,25,46,36,31,40,68,79,79,82,87,94,78,104,134,153,160,157,122,127,153,152,153,124,126,134,143,166,190,195,99,28,425,921,598,0,-253,-331,-221,20,180,189,201,217,201,207,208,203,183,151,119,88,47,28,18,2,-18,-30,-73,-71,-44,-50,-63,-74,-87,-105,-128,-151,-187,-232,-248,-251,-240,-224,-219,-219,-196,-172,-181,-188,-162,-152,-157,-159,-166,-156,-138,-129,-123,-126,-111,-110,-72,-45,-38
2018-09-19,10:40:11.601,-29,-34,-81,-66,-48,-30,-25,-17,-3,-7,-16,5,12,-30,-170,-119,559,985,311,-317,-489,-427,-184,41,106,132,158,162,173,178,189,158,137,143,141,129,116,112,90,76,77,83,78,74,82,86,56,49,45,62,63,50,22,-22,-47,-73,-106,-128,-148,-170,-193,-186,-166,-168,-175,-182,-189,-166,-160,-162,-159,-145,-127,-106,-47,-10,-17,18,78,113,100,73,66,72,55,72,83,67,54,55,65,55,59,-16,-184,-2,765,941,105,-414,-522,-436,-200,-4,21,23,26,30,43,46,30,23,14,8,2,13,15,15,13,25,28,31,49,61,49,47,66,79
2018-09-19,10:40:12.628,105,95,86,51,9,-22,-55,-77,-74,-81,-81,-62,-47,-41,-36,-46,-16,9,15,2,-14,-6,8,11,13,22,25,33,42,54,72,61,29,-25,-42,-34,0,12,10,24,38,42,48,56,31,-82,-144,328,804,388,-156,-357,-396,-234,-22,78,103,109,120,130,122,117,105,92,96,91,84,73,69,73,41,47,60,57,57,76,83,66,65,68,50,4,-40,-62,-102,-129,-131,-143,-155,-145,-145,-139,-123,-121,-110,-126,-152,-149,-151,-136,-139,-152,-142,-138,-155,-142,-138,-97,-64,-41,-57,-80,-99,-90,-77,-77,-68,-40,-38,-32,-13,7,18,-21,-152,-129,534,998
2018-09-19,10:40:13.656,298,-311,-461,-414,-200,25,77,94,114,129,140,165,184,205,204,203,191,178,181,195,188,175,167,170,187,170,148,129,115,100,91,80,57,26,-20,-66,-101,-122,-120,-104,-96,-96,-87,-70,-72,-90,-107,-94,-78,-71,-66,-92,-118,-107,-101,-116,-163,-176,-176,-156,-107,-61,-56,-79,-116,-136,-147,-172,-206,-230,-241,-236,-228,-226,-217,-248,-392,-509,59,772,314,-455,-729,-721,-528,-248,-110,-97,-112,-72,-32,-22,-2,31,54,62,85,83,85,94,94,84,96,108,116,128,153,169,165,174,175,183,170,137,119,100,103,123,154,169,177,193,200,206,199,211,207,181
2018-09-19,10:40:14.684,152,142,133,129,115,91,93,86,98,78,64,97,120,132,130,157,145,91,42,34,28,7,15,5,-26,-36,-21,-31,-33,-43,-150,-185,353,814,300,-299,-513,-524,-355,-127,-23,-18,-5,13,20,2,-4,18,43,41,36,23,9,3,15,19,24,56,73,84,123,161,179,191,202,193,172,130,98,77,66,56,48,51,32,39,32,15,8,33,48,22,13,18,27,1,0,-15,-20,-22,-13,-17,-28,2,11,2,-34,-78,-100,-100,-102,-105,-104,-87,-91,-91,-71,-62,-74,-181,-319,-33,606,539,-150,-515,-612,-506,-247,-52,-14,-3,3,15,13,22,26,16
2018-09-19,10:40:15.712,3,0,22,14,19,9,-2,-10,-7,15,28,30,32,37,44,56,37,17,-12,-54,-96,-116,-112,-126,-136,-115,-107,-103,-129,-107,-98,-117,-134,-142,-131,-102,-73,-50,-30,-26,-23,-36,-40,-2,15,46,95,131,159,126,85,62,52,39,28,14,-13,-19,4,2,2,-1,-96,-208,238,970,673,-186,-560,-611,-452,-164,-41,-38,-12,11,30,37,40,45,50,62,59,55,62,70,83,92,99,95,106,131,141,163,179,184,187,212,214,182,147,111,96,95,80,73,47,38,13,3,3,8,28,18,19,24,6,-17,-25,-23,-37,-38,-38,-42,-48,-47,-43,-27
2018-09-19,10:40:16.740,-13,-1,26,48,59,38,2,0,4,-10,-46,-40,-41,-65,-66,-67,-76,-132,-262,-165,461,725,32,-457,-591,-548,-304,-76,-11,12,11,1,15,18,3,-10,-23,-29,-49,-61,-58,-63,-45,-27,-29,-28,-43,-31,-12,14,37,48,72,67,63,59,38,10,18,44,45,46,53,53,51,41,51,67,66,59,56,53,50,55,45,49,53,40,20,1,13,9,25,42,40,43,14,-34,-56,-55,-46,-38,-37,-25,-6,10,4,-18,-59,-179,-229,321,853,336,-287,-484,-495,-300,-72,-2,-5,-6,-19,-19,3,3,-3,-25,11,68,73,51,22,0,-4,-58,-7,12
2018-09-19,10:40:17.768,56,63,2,12,-7,-59,-61,-64,-29,53,44,-76,-188,-226,-224,-160,-121,-258,-500,-673,-778,-860,-856,-859,-905,-826,-736,-538,-347,-252,-199,-164,-107,-47,-87,-156,-251,-346,-424,-385,-233,-28,112,251,415,508,538,575,733,833,821,819,849,755,521,465,1045,1516,890,96,-280,-406,-258,-58,6,40,22,-4,64,118,149,191,207,186,56,-13,-38,-37,0,-3,2,3,1,-24,-68,-25,66,72,13,-32,-74,-144,-245,-279,-192,-105,-41,1,20,27,35,-24,-25,96,190,251,269,217,171,144,151,193,218,187,178,277,393,406,376,374,390,352,331,335,334,275,210,159
2018-09-19,10:40:18.796,141,114,94,49,-9,-73,-147,-182,-229,-243,-351,-452,-41,637,509,-138,-438,-499,-327,23,251,288,304,318,322,324,339,385,439,482,491,496,452,321,171,1,-96,-108,-114,-103,-180,-296,-401,-495,-575,-614,-657,-701,-763,-769,-720,-678,-652,-558,-397,-215,-16,176,310,409,432,442,461,467,460,384,176,18,-140,-342,-533,-585,-513,-425,-382,-331,-292,-283,-300,-345,-408,-461,-555,-661,-747,-781,-767,-786,-852,-943,-1004,-1088,-1172,-850,9,263,-362,-718,-728,-580,-220,87,234,356,492,641,718,804,937,1020,1094,1174,1233,1271,1326,1357,1354,1307,1259,1156,963,813,778,795,762,683,625,534
2018-09-19,10:40:19.823,419,329,249,122,-8,-93,-230,-377,-463,-437,-432,-507,-566,-613,-647,-679,-696,-649,-490,-385,-329,-207,-77,-13,23,59,51,-36,-163,-340,-476,-617,-664,-701,-646,-648,-703,-705,-751,-824,-743,-656,-649,-769,-1070,-1339,-1172,-265,-45,-778,-1275,-1260,-847,-317,-64,72,160,181,140,90,22,-15,-66,-32,42,123,250,449,612,735,817,813,826,801,747,838,854,801,844,957,1034,1085,1103,1162,1111,1017,973,933,909,862,772,710,637,607,523,449,376,311,225,164,131,110,92,59,61,52,49,66,67,62,73,79,35,-29,-34,-18,-61,-91,-115,-130,-124,-82,-82,-86,-84,-205,-372,-114
2018-09-19,10:40:20.851,542,316,-363,-687,-771,-619,-343,-202,-174,-212,-283,-389,-535,-685,-815,-863,-874,-875,-925,-934,-943,-1013,-1116,-1141,-1055,-955,-869,-686,-398,-65,312,840,1357,1795,2138,2373,2367,2165,1902,1657,1396,1052,626,119,-304,-612,-757,-777,-800,-945,-1111,-1146,-1096,-1012,-990,-1012,-1040,-1056,-1042,-1004,-890,-759,-687,-629,-575,-526,-471,-435,-466,-530,-601,-638,-666,-729,-694,-599,-600,-686,-322,487,537,-14,-297,-364,-307,-153,-83,-157,-228,-281,-262,-163,-43,83,237,371,485,587,680,788,865,895,918,943,913,861,806,789,767,731,731,741,703,661,641,631,604,577,557,538,516,466,386,316,277,238,202,171
2018-09-19,10:40:21.879,110,71,23,-28,-81,-100,-142,-199,-199,-203,-233,-196,-126,-77,-62,-65,-66,-26,43,92,117,108,92,58,16,-41,-81,-162,-329,-208,526,774,28,-496,-647,-602,-348,-136,-106,-121,-120,-135,-152,-108,-88,-105,-140,-199,-318,-425,-485,-559,-655,-684,-693,-695,-674,-661,-667,-659,-611,-562,-537,-503,-487,-464,-457,-470,-475,-469,-433,-362,-260,-134,7,157,294,410,495,597,671,705,743,773,770,756,755,763,768,742,726,700,667,689,727,766,758,712,696,715,701,710,713,699,654,591,539,503,477,366,189,275,859,973,213,-299,-449,-412,-171,21,32,-20,-57,-92,-121,-118,-118,-191
2018-09-19,10:40:22.907,-216,-225,-228,-245,-264,-266,-260,-278,-291,-302,-302,-281,-277,-296,-298,-283,-276,-263,-263,-263,-265,-274,-293,-309,-317,-324,-309,-314,-313,-297,-293,-298,-306,-286,-261,-242,-224,-192,-170,-143,-124,-112,-101,-91,-77,-63,-73,-32,20,77,82,69,46,34,40,53,48,41,39,48,60,71,64,49,-40,-115,252,795,492,-159,-471,-549,-415,-174,-43,-41,-35,-47,-69,-71,-69,-73,-88,-106,-111,-122,-124,-121,-130,-154,-174,-156,-127,-126,-138,-109,-89,-64,-51,-46,-46,-62,-87,-107,-98,-98,-109,-120,-132,-135,-140,-131,-116,-124,-152,-173,-195,-242,-294,-324,-339,-359,-356,-346,-329,-284,-229,-198
2018-09-19,10:40:23.935,-179,-105,-4,95,184,283,363,403,395,384,382,364,349,352,358,363,353,351,357,360,264,87,304,1008,933,8,-444,-510,-344,-4,194,229,210,199,198,214,219,213,194,171,162,138,112,119,138,134,140,154,135,102,82,72,51,29,8,-2,-33,-75,-105,-142,-158,-154,-134,-91,-72,-61,-47,-57,-60,-63,-65,-65,-74,-86,-60,-23,0,27,26,44,58,77,105,112,108,85,69,44,31,34,54,66,75,103,107,110,115,77,69,72,92,93,89,78,70,44,50,68,65,-22,-193,-26,615,658,-144,-668,-815,-748,-484,-301,-288,-249,-185,-145,-107,-49,-15,4
2018-09-19,10:40:24.963,53,105,132,145,133,147,159,154,153,164,156,139,129,151,144,116,102,49,-28,-88,-150,-203,-219,-216,-216,-205,-193,-191,-194,-212,-222,-206,-205,-199,-174,-132,-110,-85,-72,-65,-67,-60,-58,-58,-38,-28,-34,-32,-24,-18,-9,0,10,34,60,86,101,71,67,89,106,128,163,173,176,175,163,142,104,-20,-89,357,910,510,-156,-400,-441,-273,-15,78,92,77,18,-19,-43,-64,-103,-133,-127,-130,-139,-112,-96,-88,-78,-61,-50,-38,-8,4,34,70,70,70,54,51,63,41,-26,-95,-131,-151,-147,-110,-61,-40,-5,14,24,22,13,-1,-6,-3,-3,-6,7,19
2018-09-19,10:40:25.991,24,30,23,11,-12,-51,-44,-40,-18,18,31,43,39,-14,-47,-44,-13,-3,-10,11,37,16,0,6,-7,-112,-232,98,818,673,-118,-467,-523,-348,-66,72,96,118,138,147,168,189,219,228,223,218,211,198,183,156,133,115,93,80,76,84,104,123,138,136,138,133,127,86,16,-33,-55,-71,-85,-97,-110,-146,-152,-160,-164,-155,-160,-158,-166,-167,-155,-130,-126,-98,-86,-102,-90,-63,-58,-62,-67,-66,-51,-62,-46,-46,-59,-50,-65,-70,-78,-87,-86,-134,-185,-182,-169,-162,-144,-134,-122,-115,-98,-79,-68,-111,-243,-266,353,839,216,-426,-574,-518,-291,-58,8,8
2018-09-19,10:40:27.018,0,18,22,21,40,67,97,100,96,104,114,148,188,208,222,256,271,296,299,301,296,265,235,219,211,158,115,93,48,41,52,51,15,13,11,6,-10,-17,-15,-31,-34,-53,-72,-81,-78,-75,-62,-55,-57,-84,-95,-89,-103,-120,-101,-112,-113,-123,-120,-99,-84,-52,-50,-28,-6,46,90,100,85,105,131,126,136,131,121,115,117,118,104,37,-93,122,744,730,2,-419,-524,-445,-207,-31,-1,21,57,86,81,63,44,30,47,54,50,46,25,9,-2,-29,-26,-34,-35,-4,15,29,42,44,49,71,59,29,16,-17,-37,-21,-2,-10,-21,-7,1,13
2018-09-19,10:40:28.046,13,6,-4,-17,3,40,61,88,95,83,74,74,93,103,91,83,78,46,45,15,-22,-24,-18,-8,-13,-64,-135,-160,-182,-210,-249,-265,-279,-258,-247,-246,-240,-308,-446,-227,435,514,-222,-647,-710,-550,-249,-54,-18,0,29,59,62,38,31,4,-28,-29,-18,-14,-25,-45,-55,-71,-98,-86,-87,-99,-88,-36,11,46,89,138,146,146,174,156,75,12,-34,-61,-76,-61,-59,-69,-69,-74,-84,-100,-98,-67,0,63,133,197,237,248,260,268,295,296,309,299,298,337,326,294,278,244,193,91,-25,-61,-28,-7,-1,15,34,60,76,74,122,120,17,-111,312,1008
2018-09-19,10:40:29.074,595,-218,-505,-551,-410,-167,-83,-89,-88,-71,-56,-15,18,48,81,66,35,26,-5,-24,-11,27,36,56,61,66,70,74,55,48,59,70,56,8,-42,-95,-89,-43,-82,-135,-156,-170,-185,-215,-233,-250,-270,-282,-280,-264,-266,-264,-218,-184,-130,-74,-49,-53,-39,-54,-93,-106,-99,-79,-50,-23,-10,-10,-37,-87,-118,-133,-126,-88,-69,-70,-62,-78,-86,-48,-29,-94,-214,-32,579,669,3,-396,-472,-405,-182,27,121,162,187,220,249,261,256,262,284,317,329,351,374,377,367,364,371,351,328,314,320,325,316,307,291,288,266,230,183,133,89,58,33,24,19,17
2018-09-19,10:40:30.102,0,11,14,5,-18,-39,-58,-83,-97,-125,-147,-158,-197,-237,-245,-236,-236,-218,-209,-193,-172,-165,-144,-143,-178,-166,-144,-139,-149,-138,-122,-118,-104,-88,-80,-80,-206,-279,242,718,221,-405,-613,-597,-376,-112,-28,-17,0,-2,0,16,35,34,40,45,48,32,39,45,41,57,70,76,110,124,118,121,114,136,137,127,108,60,11,-31,-51,-63,-66,-81,-82,-76,-65,-38,-7,-8,-18,-7,2,7,15,-1,-19,-17,-4,-8,-4,-8,-3,-23,-48,-42,-14,4,4,21,27,1,-8,-38,-48,-56,-56,-63,-87,-82,-65,-64,-72,-178,-285,136,792,420,-372,-651,-663,-460
2018-09-19,10:40:31.130,-155,-36,0,8,16,42,76,80,94,95,94,89,87,72,49,55,57,50,53,69,71,87,108,129,125,127,132,110,81,53,13,4,11,17,33,44,38,35,34,22,33,41,32,37,56,60,28,21,29,17,11,10,9,23,38,34,22,29,30,47,103,162,183,161,130,140,150,157,159,139,121,102,99,105,107,91,-34,-41,531,845,204,-302,-466,-446,-211,-4,38,38,41,36,33,12,-33,-81,-124,-160,-211,-259,-292,-323,-336,-332,-316,-286,-252,-221,-185,-153,-118,-98,-96,-121,-155,-188,-203,-192,-172,-178,-179,-175,-157,-142,-105,-67,-50,-65,-45,-21
2018-09-19,10:40:32.158,20,42,-34,-78,-86,-103,-92,-105,-83,-80,-96,-75,-36,-24,4,25,67,77,64,59,80,123,145,143,146,146,135,140,149,190,189,70,51,643,1070,464,-159,-331,-270,-5,250,316,286,249,215,159,148,134,84,39,-11,-30,-22,-37,-55,-44,-36,-14,9,29,34,40,43,35,53,70,89,101,84,46,14,-17,-41,-49,-68,-97,-83,-69,-100,-109,-119,-110,-114,-119,-124,-109,-94,-83,-54,-43,-51,-59,-55,-63,-60,-57,-83,-99,-67,-44,-51,-40,-1,32,31,0,-20,10,52,65,69,63,61,75,85,86,79,-5,-170,-43,674,861,32,-480,-575,-480,-208,-34
2018-09-19,10:40:33.186,2,24,54,72,89,83,102,94,74,83,99,118,111,91,81,66,52,67,75,99,118,103,111,95,94,73,51,22,-10,-41,-47,-48,-62,-68,-70,-75,-99,-98,-107,-117,-104,-70,-60,-66,-68,-63,-53,-40,-53,-53,-67,-77,-72,-73,-69,-60,-41,-36,-42,-60,-70,-47,-42,-29,-8,32,48,18,-12,0,19,18,18,16,31,43,64,61,72,42,-84,-94,421,793,235,-316,-503,-503,-301,-81,5,17,8,25,36,50,59,65,79,93,75,70,69,39,26,9,-13,-10,29,42,33,22,5,7,7,8,0,-43,-93,-124,-146,-168,-174,-173,-187,-207,-206,-199
2018-09-19,10:40:34.213,-209,-204,-201,-198,-178,-148,-133,-110,-90,-72,-74,-61,-29,-9,11,21,23,24,23,43,60,85,110,125,120,102,81,65,62,71,77,92,101,106,121,117,117,127,84,-57,-52,540,942,297,-313,-475,-433,-193,58,110,100,128,156,154,122,90,98,103,76,64,58,37,16,-1,-25,-31,-30,-27,-18,-14,-30,-26,-30,-26,-23,-56,-115,-173,-196,-184,-162,-157,-140,-123,-116,-100,-85,-76,-63,-38,-15,-32,-40,-36,-19,-9,-9,-18,-25,-20,-16,-24,-26,-42,-22,10,16,0,2,8,8,14,-5,10,30,53,78,68,49,80,112,119,142,162,172,171,168,166
2018-09-19,10:40:35.241,165,155,45,-34,522,1107,558,-196,-455,-432,-200,75,160,176,175,146,148,133,119,98,83,71,55,30,22,25,36,29,17,28,35,28,41,49,56,64,63,71,78,63,40,-4,-38,-58,-68,-58,-70,-78,-97,-121,-118,-101,-98,-117,-109,-88,-96,-116,-133,-124,-114,-101,-90,-78,-81,-85,-63,-45,-51,-26,-24,-24,-41,-14,5,2,43,84,120,161,179,165,154,138,150,170,172,168,173,181,212,240,199,109,56,486,1001,601,-19,-242,-281,-116,145,291,300,327,327,320,318,321,331,324,313,297,270,256,240,213,227,262,253,236,258,263,272,276,287,288
2018-09-19,10:40:36.269,235,200,127,82,46,10,0,-9,-6,-1,-4,-12,-7,-2,8,8,25,54,44,19,-24,-62,-124,-116,-110,-89,-159,-282,-173,-112,-121,-129,-289,-614,-972,-1337,-1643,-1777,-1855,-1904,-1964,-2111,-2334,-2564,-2814,-3101,-3543,-4285,-5281,-6483,-7405,-7833,-7732,-6805,-5381,-3548,-1834,-1465,-1900,-1820,-1065,-137,859,1688,2220,2702,3229,3783,3999,4150,4232,4260,4435,4984,5492,5588,5623,5588,5190,4675,4324,3865,3373,2878,2478,2282,2096,1978,1868,1894,1971,2041,2137,2187,2111,1942,1700,1307,771,216,-369,-859,-1352,-1829,-2290,-2511,-2347,-2275,-2535,-3010,-3349,-3548,-3701,-3892,-4109,-3984,-3524,-2898,-2128,-1054,-251,123,178,86,216,713,1655,2380
2018-09-19,10:40:37.297,2821,2886,3011,3176,3236,3193,3059,3035,2926,2529,1867,575,-1284,-2187,-1474,-765,-1097,-2162,-2666,-2594,-2073,-942,103,410,1204,2624,3224,3245,3908,4583,4230,3242,2399,1295,60,-817,-1123,-1256,-1357,-1293,-1244,-1202,-1053,-965,-802,-613,-228,241,754,1336,2017,2529,2673,2229,1778,1557,1342,1082,749,313,-227,-915,-1617,-2217,-2619,-2817,-3043,-3305,-3499,-3723,-3771,-3958,-4164,-4194,-4317,-4621,-4755,-4742,-4406,-4109,-3603,-3041,-3201,-3546,-3431,-2965,-2387,-1664,-940,-396,-41,207,589,1053,1566,2055,2510,2870,3107,3165,3149,3464,4094,4113,3339,2893,2907,3047,3343,3494,3394,3053,2530,2003,1481,935,415,18,-312,-527,-545,-563,-386,7,310,603,526,-77
2018-09-19,10:40:38.325,-699,-1151,-1504,-1773,-2073,-2403,-2942,-3497,-4124,-4602,-4793,-5193,-5377,-5383,-4996,-4016,-2888,-2000,-1387,-868,-216,591,1634,2795,4010,5214,6366,7465,8386,8682,7892,6176,4500,3253,2591,2474,2719,3541,4188,4139,3900,3321,2531,1883,1312,708,185,-182,-660,-1160,-1524,-1617,-1632,-1550,-1482,-1538,-1677,-2022,-2274,-2074,-2468,-3570,-4259,-4475,-4479,-4644,-5176,-5936,-6363,-5896,-5149,-5222,-6065,-6434,-5821,-4958,-4208,-3496,-3139,-2980,-2431,-1396,13,1285,2210,3158,4330,5547,6664,7290,7104,6072,4883,4155,3388,2631,2586,3432,4640,5703,6413,6619,5872,4691,3973,3048,2195,1701,1142,449,-91,-513,-1048,-1612,-1952,-1921,-1556,-1028,-619,-409,-408,-672,-1001,-1433,-2345,-3230,-3691,-4108
2018-09-19,10:40:39.353,-4538,-4623,-4400,-4627,-5003,-4283,-3426,-3332,-3571,-3717,-3406,-2616,-1454,-63,1398,2625,2885,2817,2730,2267,1721,1246,828,783,963,1090,1252,1453,1563,1693,1975,2079,1907,1867,1985,2166,2514,3148,3212,2356,1538,1146,861,533,512,659,388,-167,-522,-794,-1048,-1311,-1418,-1299,-1188,-1419,-2202,-2982,-3535,-3836,-3868,-3749,-3596,-4038,-4353,-4263,-4383,-4600,-4955,-4978,-4719,-4340,-4374,-4765,-4821,-3364,-1374,467,1563,2180,2992,3531,3494,3208,3087,3318,3852,4772,6065,7496,8540,8907,8389,6777,4011,1956,1415,793,-123,-155,399,1122,2013,3104,4615,5060,3863,2851,2470,2035,1558,1194,739,269,-105,-565,-1047,-1540,-2248,-3123,-3950,-4571,-4927,-5045,-5354,-5543,-5553,-5410
2018-09-19,10:40:40.380,-5342,-5609,-5589,-5638,-5572,-5408,-5410,-5272,-4733,-3666,-2350,-1288,-406,185,389,517,742,1024,1400,1695,2182,2896,3372,3566,3593,3365,3006,2738,2596,2695,3029,3710,4521,5012,5143,5251,6026,6610,6308,5471,4560,3793,3173,2515,1839,1368,1418,1244,-13,-1354,-2164,-2309,-2032,-1802,-1671,-1684,-2117,-2545,-2744,-3078,-3427,-3278,-2632,-2494,-3209,-3721,-3874,-4594,-5034,-4936,-4802,-4636,-4254,-3785,-3455,-3246,-2864,-2206,-1461,-821,-331,155,669,1120,1335,1299,1201,1356,1783,2417,3237,3947,4170,4082,3903,3635,3289,2983,2688,2333,1910,1465,1054,995,841,581,246,39,-385,-982,-1633,-1982,-2052,-2230,-2221,-1807,-1409,-1278,-1248,-1204,-1220,-1065,-479,197,259,233,566,1176
2018-09-19,10:40:41.408,2019,2972,3658,4141,4265,4186,4218,4022,3513,2844,1990,1200,473,-261,-1074,-2238,-3663,-4636,-5168,-5382,-5241,-4778,-4230,-3828,-3480,-3252,-2948,-2563,-2058,-1707,-1441,-1629,-1989,-1974,-1645,-1058,-444,219,628,442,-164,-916,-1303,-1162,-759,-338,37,383,864,1203,1286,1362,1580,1914,2317,2525,2651,2933,3094,3035,2873,2665,2484,2430,2396,2419,2560,2402,1904,1546,1661,1536,655,7,-372,-489,-468,-655,-992,-1288,-1633,-2109,-2574,-2704,-2477,-1915,-1022,-130,690,1466,2008,2421,2692,2707,2381,1917,1492,1316,1411,1613,1841,1910,1626,1173,714,408,377,370,165,-183,-512,-666,-515,-91,365,731,962,1234,1661,2113,2341,2258,1977,1669,1497,1378,1303,1041
2018-09-19,10:40:42.436,555,162,-124,-350,-489,-610,-827,-1093,-1272,-1384,-1588,-1865,-2167,-2562,-2760,-2772,-2675,-2167,-1366,-1362,-1638,-1675,-1362,-812,-108,239,301,444,433,-149,-1197,-2344,-3015,-2657,-1676,-1108,-1399,-1868,-2128,-2431,-2897,-3369,-3727,-3588,-2911,-2362,-1634,-422,921,1309,502,-538,-1528,-2157,-2765,-3430,-3972,-3952,-3696,-3635,-4040,-4797,-6105,-7771,-8966,-9601,-10305,-10859,-10343,-9169,-7888,-6519,-5312,-4311,-3306,-2152,-739,884,2525,3833,4842,5737,6490,7116,7602,7968,8375,8750,8925,9065,9176,9137,9283,9814,10162,9585,8626,7900,7469,7281,7080,6658,6438,6249,6006,5633,5072,4248,3328,2486,1680,818,70,-448,-797,-994,-1020,-958,-874,-535,-421,-606,-820,-1155,-1481,-1752,-1696,-1487
2018-09-19,10:40:43.464,-1384,-1358,-1409,-1532,-1599,-1673,-1661,-1678,-1835,-1843,-1717,-1608,-1501,-1420,-1388,-1373,-1414,-1396,-1257,-1296,-1067,-891,-933,-1038,-1055,-942,-809,-732,-698,-753,-984,-1092,-997,-889,-847,-799,-730,-552,-269,-61,222,828,978,180,-384,-449,-121,298,626,798,937,956,745,403,118,279,15,-459,-649,-848,-916,-669,48,352,-154,-363,-222,8,314,773,1478,1816,1431,1099,628,207,-310,-296,306,231,27,146,257,383,491,652,388,167,-145,-649,-820,-734,-712,-844,-710,-476,-324,263,281,63,193,143,-180,-569,-823,-1052,-1423,-1770,-2294,-2781,-3036,-2930,-2575,-2050,-1524,-1015,-516,-12,607,1605,1869,1213,723,248,-42,-25,69,188
2018-09-19,10:40:44.492,289,472,647,688,668,705,725,704,672,761,726,692,817,911,665,479,311,34,-152,-233,-258,-501,-559,-641,-699,-837,-1106,-1228,-1217,-1264,-1140,-882,-517,-298,-218,-147,-159,-233,-317,-266,-196,-262,-357,-395,-362,-386,-615,-922,-1203,-1498,-1666,-1824,-2066,-2198,-1976,-1601,-1695,-2311,-2941,-3325,-3489,-3385,-3204,-3091,-2991,-2709,-1851,-891,-798,-963,-786,-376,288,953,1300,1515,1804,2128,2312,2205,1773,1127,630,338,-98,217,821,1254,1536,1851,2553,3860,4931,5083,4573,4145,4053,4665,6460,8528,9306,8799,7882,6848,5457,4271,3792,3687,3440,3030,2725,2689,2815,2640,1827,812,-22,-705,-1082,-1200,-1347,-1637,-2109,-2838,-3711,-4819,-6173,-7443
2018-09-19,10:40:45.520,-8880,-10608,-11717,-11512,-10642,-9318,-7767,-6411,-5083,-3712,-2329,-1297,-794,-741,-525,57,138,-414,-670,-624,-325,111,454,444,200,-114,-266,-240,-155,-6,319,763,1221,1681,2157,2657,3043,3172,3074,2911,2910,3160,3525,3818,3921,3883,3760,3482,3190,2942,2702,2440,2168,1787,1501,1297,1145,1009,861,679,515,348,140,-62,-357,-782,-1331,-2114,-3147,-3986,-4448,-4740,-5095,-5259,-5090,-4446,-3470,-2765,-2387,-1992,-1396,-578,468,1513,2350,2976,3317,3288,3119,2973,2854,3015,3491,3415,2644,2298,2238,2038,1859,1721,1418,1031,636,234,-189,-679,-1325,-2044,-2545,-2864,-3123,-3310,-3427,-3450,-3430,-3378,-3291,-3168,-3121,-3125,-3156,-3188,-3131,-3039,-2981,-2943,-2881,-2650
2018-09-19,10:40:46.548,-2116,-1820,-1532,-1069,-336,597,1428,2022,2434,2909,3221,3328,3311,3262,3141,2977,2915,3004,3289,3858,4623,5565,6605,7041,6249,5068,4210,3744,3467,3131,2747,2197,1559,708,-248,-1194,-2025,-2635,-3079,-3403,-3214,-2461,-2387,-3160,-3780,-3816,-3281,-2433,-1510,-609,97,436,694,97,-712,-1010,-1097,-1250,-1449,-1649,-1925,-2077,-2007,-1785,-1442,-1079,-810,-705,-666,-677,-695,-665,-662,-751,-885,-982,-1050,-853,-592,-419,-286,-175,-2,165,156,-10,-317,-862,-1257,-1634,-2025,-2280,-2480,-2726,-2876,-2660,-2454,-2016,-1679,-1811,-2406,-2627,-2552,-2434,-2969,-3950,-4372,-4011,-3241,-2391,-1524,-546,664,1957,3059,3843,4431,5089,6094,7278,8311,9362,10819,11887,11676,11069,10926,10853
2018-09-19,10:40:47.575,10754,10755,10993,11084,10011,8669,7506,6483,5078,3278,1747,469,-1114,-3236,-5570,-7813,-9658,-11271,-12379,-12408,-12409,-12409,-12410,-12411,-12414,-12415,-12417,-12419,-12423,-12428,-12433,-12438,-12442,-12446,-11916,-9882,-7816,-5789,-3470,-558,2631,5472,7616,9214,10670,11939,12528,12514,12508,12505,12489,12497,12490,12505,12476,12478,12476,12464,12471,12352,9592,6302,4139,2652,1480,272,-929,-1993,-3010,-3668,-3820,-3747,-3252,-2418,-2299,-2776,-2956,-2742,-2219,-1604,-1261,-1573,-2587,-3894,-5363,-7358,-9508,-11886,-12613,-12618,-12624,-12629,-12636,-12642,-12649,-12657,-12665,-12673,-12681,-12691,-12700,-12316,-6275,-1890,62,1379,2811,4801,7566,10454,12185,12253,12248,12241,12237,12232,12223,12222,12215,12213,12211,12211,12205,12205,12206,12196,12212,12210
2018-09-19,10:40:48.603,12122,12124,12127,12129,10548,6109,3057,734,-784,-1309,-1946,-2832,-3540,-4050,-4693,-5006,-5159,-5455,-5699,-6008,-6972,-8631,-10373,-11877,-12848,-12848,-12847,-12847,-12847,-12848,-12849,-12850,-12853,-12855,-12859,-12863,-12866,-12870,-12874,-12879,-12856,-10042,-4511,-204,3141,5424,7110,8788,10072,10767,11097,11138,10736,9946,9177,8551,8032,7894,8163,9113,11011,12115,12126,12132,12134,12146,12150,12164,12157,12174,12183,12193,10716,7364,4346,990,-2821,-4143,-2999,-907,855,1374,189,-2101,-5163,-7374,-8668,-9576,-10224,-10565,-10604,-10308,-9855,-9739,-10336,-11350,-12135,-12379,-12161,-12090,-11991,-11323,-9421,-6819,-3339,751,3983,6012,7413,8162,8469,8427,7854,7088,6336,5524,4849,4468,4289,4151,3797,3159,2686,2729,3097,3619,4293,4875
2018-09-19,10:40:49.631,5279,5255,5082,4537,3699,2584,1397,390,-647,-1586,-2189,-2400,-2428,-2393,-2247,-1554,-567,208,912,1927,2915,3394,3096,2417,1495,245,-1610,-3876,-6192,-8411,-9871,-10403,-10244,-10081,-9564,-7949,-5799,-3905,-2364,-1034,27,887,1828,2874,3791,4456,4740,4526,4033,3568,3139,2765,2318,1903,1884,2149,1457,-592,-2431,-3793,-4762,-5241,-5658,-6209,-6503,-6668,-7052,-7545,-7957,-8062,-7959,-7304,-6003,-4690,-3852,-3925,-4827,-5978,-7195,-8266,-8702,-8276,-6955,-5058,-2895,-488,1927,4242,5969,7281,8626,9759,10303,10378,10488,10577,10091,9490,9165,9088,9377,9746,9974,9981,10137,11073,12265,12370,11548,9769,7772,5829,4305,2858,1609,523,-516,-1235,-1551,-1647,-1465,-1242,-1367,-1489,-1245,-1074,-1673,-2562
2018-09-19,10:40:50.659,-3395,-4426,-5826,-7081,-7904,-8329,-7767,-7911,-9680,-10767,-9317,-6626,-4729,-4525,-4567,-4037,-3291,-2498,-1712,-849,35,862,2217,4669,5461,4197,2875,2443,2367,1977,1495,1039,556,423,819,1618,2613,3443,4302,5169,5388,4660,3419,2352,1584,865,202,-301,-617,-685,-804,-1302,-2392,-4129,-5377,-5648,-6191,-7263,-7201,-5406,-3934,-3259,-2563,-2421,-2334,-1712,-1201,-739,-723,-1593,-2265,-2275,-2210,-1443,48,1167,2147,3095,3404,3489,3755,4291,4790,5377,6441,6889,6104,5054,4198,3494,2682,2026,1666,1498,1170,211,-733,-265,827,1636,2550,3866,4969,5461,4858,3467,1914,285,-1438,-2831,-3785,-4397,-4730,-4770,-4552,-4377,-4319,-4316,-4321,-4126,-3759,-3713,-3558,-3256,-2778,-2427,-2366,-2365
2018-09-19,10:40:51.687,-2171,-1865,-1519,-1162,-996,-1014,-1075,-1180,-1323,-1741,-2202,-1406,-189,793,1509,1921,2155,2219,2234,2255,2242,2101,1855,1578,1343,1149,1072,1164,1351,1619,1800,1810,1589,1373,1848,2415,1810,789,306,86,-9,-150,-474,-598,-645,-785,-875,-832,-808,-934,-1050,-1000,-675,-384,-29,334,531,511,356,174,-163,-826,-1722,-2742,-3430,-3595,-3447,-3416,-3297,-3614,-3877,-3632,-2742,-1695,-1589,-2369,-2898,-2850,-2336,-1739,-1157,-658,-244,374,983,1399,1859,2434,2995,3405,3603,3516,3347,3346,3599,4263,5187,5804,6174,6854,7676,8420,8643,7658,6070,4621,3628,2990,2608,2495,2703,2784,2648,2164,1753,1556,158,-2224,-4008,-4730,-4798,-4803,-5083,-5754,-6704,-7735,-8648,-9433
2018-09-19,10:40:52.715,-10047,-9910,-8488,-7046,-6839,-8017,-9354,-9320,-7990,-6530,-4249,-1958,-693,-94,197,-180,-323,727,2296,3551,4655,5822,7058,7897,6636,4846,4184,3892,4123,4575,3973,3718,3880,4094,4472,5390,7537,11137,12011,9402,6655,4936,3530,2345,1535,811,-137,-1382,-2517,-3149,-3735,-4314,-4589,-4088,-3183,-3585,-5592,-7759,-8413,-7569,-6003,-5100,-5517,-5999,-6378,-6729,-6728,-6526,-6212,-5295,-3981,-2567,-1399,-425,599,1592,2427,2939,2847,2535,2499,2868,3841,5250,6752,7868,7617,6458,5397,4763,4352,4508,5180,5518,5800,6318,6659,6579,6364,5894,5511,5334,4936,4079,2911,1183,-1092,-3378,-5291,-6841,-8159,-9153,-9621,-9624,-9288,-8978,-8856,-8488,-7918,-7459,-6971,-6188,-5706,-5794,-6286,-6950,-7480,-7016
2018-09-19,10:40:53.743,-6296,-5967,-5580,-4937,-4168,-3271,-2304,-1355,-167,1293,2476,3087,3657,4804,6707,8337,8853,9163,9765,10128,10278,10080,9435,8767,8400,8650,9011,8004,6408,4777,3252,1796,553,-342,-1139,-1950,-2633,-3128,-3277,-3335,-3788,-4930,-7038,-8394,-7808,-6122,-4513,-3706,-4187,-5182,-5677,-5688,-5617,-5726,-5327,-4131,-2715,-1285,360,2366,4281,5485,5340,4244,3175,2185,1453,1300,1861,3800,6020,7353,7853,6268,2751,-373,-1109,470,2618,5172,7911,10092,11469,12014,11251,9589,7443,5122,2895,1027,-44,0,349,345,-239,-1272,-2130,-2907,-3675,-4702,-6153,-7918,-10020,-12161,-12421,-12425,-12431,-12436,-12442,-12448,-12455,-12463,-12472,-12481,-12491,-12500,-12338,-10762,-10909,-11762,-11414,-10407,-8416,-5496,-2467,562,3002,4542
2018-09-19,10:40:54.770,5725,6848,8199,9586,10594,11814,12066,10876,9430,8824,9900,10852,9210,6874,5523,4398,3473,3662,4751,5482,5813,6260,6273,6151,6586,7206,7992,8378,8183,8020,8167,7472,5964,4516,3256,2118,697,-653,-2367,-4393,-5535,-4956,-3997,-4367,-4881,-4574,-3770,-2389,-517,-35,-747,-1117,-1145,-850,-372,-243,-685,-1415,-2731,-4367,-5724,-6371,-6151,-5224,-3640,-1729,-627,-897,-2449,-5578,-8291,-7548,-5244,-3063,-2091,-2260,-2433,-2885,-3872,-4956,-5645,-5920,-5481,-3993,-1519,806,1853,1957,2486,3436,4062,4582,4913,4847,4642,4624,4586,4386,4475,4942,5256,5202,4975,4761,4819,5009,4957,4555,3856,3102,2817,2908,3120,3291,3126,2848,2908,3427,3591,2175,101,-1088,-1628,-1731,-1522,-1373,-1502,-1670
2018-09-19,10:40:55.798,-1756,-1732,-1533,-1409,-1326,-1161,-1099,-1238,-1364,-1343,-1089,-821,-845,-1426,-2441,-3396,-4134,-4806,-5215,-5150,-4707,-4056,-3251,-2494,-1975,-1757,-1682,-1640,-1769,-2027,-2296,-2501,-2746,-3027,-3307,-3485,-3488,-3227,-2744,-2072,-1329,-574,169,923,1745,2528,3157,3629,3936,4027,4128,4406,4879,5379,5633,5583,5222,4491,3553,2654,1864,1192,702,216,-370,-540,90,427,-275,-984,-1249,-1226,-961,-769,-766,-742,-695,-672,-582,-437,-410,-469,-500,-517,-569,-655,-674,-628,-631,-676,-738,-798,-874,-944,-941,-889,-767,-603,-419,-253,-141,-59,-35,-61,-108,-155,-271,-441,-595,-705,-761,-783,-769,-746,-664,-587,-555,-567,-576,-527,-464,-403,-349,-291,-224,-163,-152,-113
2018-09-19,10:40:56.826,-105,-112,-68,-24,20,80,148,168,204,303,404,492,502,460,701,1374,1598,901,284,19,-77,4,124,106,76,38,45,84,69,38,16,6,32,37,50,77,130,173,227,323,395,478,553,596,612,581,493,428,385,332,266,200,152,58,-35,-103,-125,-153,-173,-141,-110,-117,-170,-290,-457,-626,-767,-805,-763,-665,-494,-274,-35,155,307,435,460,447,428,401,338,229,114,-12,-139,-285,-426,-524,-653,-800,-584,221,607,15,-422,-439,-332,-95,113,150,121,76,71,89,103,89,106,178,175,152,120,97,67,77,69,4,-52,-128,-202,-214,-191,-187,-181,-176,-180,-141,-90,-42
2018-09-19,10:40:57.854,-12,59,136,177,200,229,265,302,317,357,403,458,556,616,701,848,957,982,1000,953,901,842,777,740,633,443,261,126,10,-111,-206,-368,-578,-773,-841,-856,-929,-1185,-1001,-241,-13,-659,-1111,-1144,-907,-593,-370,-155,-170,-351,-506,-603,-668,-674,-695,-545,-339,-172,-31,110,238,322,421,482,458,418,395,429,513,561,538,462,378,311,205,86,31,-21,-79,-141,-247,-374,-442,-586,-726,-813,-800,-794,-759,-593,-435,-339,-165,5,148,306,433,553,561,377,161,-42,-275,-352,-369,-413,-476,-497,-405,-291,-50,304,690,892,1024,1586,2313,2295,1731,1210,1007,1118,1277,1164,913,826,825,710
2018-09-19,10:40:58.882,540,387,346,272,69,-89,-218,-349,-415,-310,-175,-127,72,392,808,1234,1774,2245,2236,1866,1439,779,-160,-1008,-1782,-2611,-2980,-2712,-2152,-1526,-1008,-540,-285,-239,-379,-580,-755,-882,-1022,-1398,-2631,-3752,-4019,-3753,-3420,-3068,-2723,-2523,-2445,-2446,-2347,-2164,-2022,-1909,-1674,-1193,-511,374,1371,2570,4006,5601,7189,8580,8739,7150,5371,3967,2692,1772,1311,931,439,-34,-671,-1413,-2214,-2873,-3285,-3395,-3262,-3248,-3148,-2888,-2714,-2447,-2342,-2686,-3174,-3265,-2783,-2170,-1818,-1685,-1834,-2428,-3172,-3534,-3755,-3989,-3908,-3534,-2693,-1597,-705,-1237,-1492,-597,1213,2811,4460,5752,6049,5904,5655,5829,6994,8513,9064,8765,8415,8403,9136,10410,11816,12496,12135,10451
2018-09-19,10:40:59.910,8331,6057,4033,2680,1711,780,-20,-650,-1776,-2781,-3313,-4464,-5718,-6346,-7078,-7898,-8077,-7722,-7005,-5706,-4221,-2776,-1527,-965,-1385,-2245,-3108,-3995,-4882,-5339,-5365,-5398,-5363,-5341,-5480,-5346,-4709,-4021,-3507,-3074,-2656,-2169,-1586,-882,-20,1106,2273,3192,3812,3968,3683,3033,2295,1568,991,526,111,-191,-330,-292,-159,-88,-14,67,47,-78,-207,-262,-248,-213,-134,-116,-138,-161,-147,-131,-48,-34,-75,-174,-200,-184,-308,-594,-635,-157,46,-437,-734,-735,-518,-196,41,134,202,224,276,329,335,386,441,402,321,251,201,156,197,261,316,403,515,633,781,938,1126,1315,1456,1511,1494,1427,1338,1381,1570,1826,2034,2061,1936,1763
2018-09-19,10:41:00.938,1533,1447,1309,1081,872,649,296,-195,-686,-1108,-1018,-51,1065,1986,2846,3403,3560,3461,3205,2855,2408,2105,1878,1678,1452,981,146,-857,-1695,-2337,-2674,-2971,-2891,-1780,-301,87,-136,-285,-540,-728,-768,-946,-1257,-1686,-2155,-2643,-3047,-3174,-3095,-2901,-2695,-2443,-2125,-1863,-1710,-1602,-1731,-2144,-2977,-4035,-5210,-6273,-6886,-6442,-5125,-3785,-2837,-1987,-1148,-423,495,1630,2640,3334,3459,3314,3199,3336,3844,4725,6024,7122,7621,7709,7344,7103,7099,7144,6641,5674,4757,3938,2735,1663,525,-1559,-2966,-2655,-1521,-968,-447,39,311,920,347,-453,-1157,-1820,-2228,-2437,-2599,-2896,-3023,-2672,-2603,-3699,-5075,-5911,-5893,-5492,-4911,-4549,-4218,-3518,-2392,-1711,-1464,-1354
2018-09-19,10:41:01.965,-1168,-867,-473,-34,166,334,648,1444,2999,4818,6197,6801,6545,5151,3440,2573,2698,3129,3477,3306,2851,2203,789,-806,-1203,-1379,-1881,-2229,-1931,-1178,-69,990,618,-196,-310,-74,-174,-714,-1008,-1208,-1438,-1677,-1761,-1560,-1350,-1504,-1924,-2553,-3409,-4282,-5419,-6689,-7906,-9393,-10176,-9683,-8158,-6485,-5348,-4409,-3374,-2468,-1439,66,1627,2365,3149,4261,5919,7328,7863,7675,7316,7346,7423,7141,6726,6306,5557,4789,4005,3458,2936,2340,1657,818,305,-74,-331,-291,-305,-271,-207,-372,-366,-145,-277,-321,-250,-297,-447,-532,-661,-860,-1072,-1041,-1250,-1399,-1427,-1327,-1000,-977,-874,-707,-566,-425,-477,-506,-513,-486,-421,-399,-312,-134,155,525,468,-23
2018-09-19,10:41:02.993,-479,-856,-917,-976,-1053,-980,-810,-414,127,438,587,481,255,251,1080,1752,1000,39,-441,-675,-632,-560,-884,-1265,-1974,-2077,-1305,-468,410,1070,1339,1608,3365,5444,6694,7166,6905,6539,6191,5265,4061,2951,2162,1746,1362,730,-84,-593,-913,-940,-587,-136,-513,-1756,-3008,-3478,-3321,-3287,-3628,-4020,-4042,-3628,-3163,-2855,-2786,-2879,-2924,-2932,-2994,-3327,-3693,-3799,-3844,-3951,-3912,-3763,-3512,-3320,-2954,-2612,-2306,-2185,-2194,-2143,-2073,-2101,-2219,-2472,-2757,-3035,-3222,-3107,-2300,-750,619,1314,1294,977,1663,2470,2958,3290,3373,3216,3019,2734,2396,2156,2219,2980,4458,5772,6415,7406,9168,10381,10727,10752,10100,8877,7472,5838,4096,2764,1985,1407,1236,2028
2018-09-19,10:41:04.021,2786,2881,1468,-400,-2387,-4482,-5642,-6053,-6451,-6999,-6728,-5859,-5455,-5224,-4788,-4468,-4390,-4582,-5320,-6227,-6477,-6631,-7148,-7866,-8179,-8053,-7138,-4879,-2144,946,4163,6193,6249,5621,4713,3679,2946,2450,2227,2277,2832,4250,4794,2256,-1224,-3675,-5144,-5638,-5272,-4456,-3124,-1956,-929,556,2296,3553,3941,3533,2667,2094,2265,2350,2274,2171,1622,708,-149,-634,-1019,-1108,-851,-763,-818,-723,-541,-351,-278,-252,-230,-93,-3,-26,17,-119,-581,-1083,-1388,-1504,-1796,-2040,-2116,-2085,-1867,-1539,-1264,-1137,-1014,-734,-260,333,814,1215,1132,1148,1514,2103,2897,3814,4644,5111,5290,5421,5348,5192,5009,4640,4141,3806,3906,4498,4812,3197,126,-1769,-1429,-93,630,318
2018-09-19,10:41:05.049,-639,-839,-359,73,342,420,351,310,218,135,53,-32,-180,-385,-717,-1283,-1839,-2254,-2568,-2848,-2965,-3007,-2893,-2475,-2105,-1852,-1953,-2199,-2354,-2152,-1591,-1037,-712,-609,-691,-1013,-1481,-1860,-2003,-2091,-2147,-2168,-2226,-2221,-2274,-2265,-2179,-2342,-2612,-2636,-2338,-1755,-777,674,2080,2801,3041,2953,2201,1158,479,417,639,476,10,-166,-111,-64,57,213,593,1424,1789,1140,434,134,40,49,119,-130,-747,-1607,-2439,-2863,-2776,-2350,-1875,-1022,95,998,1654,2067,2409,2641,2637,2454,2220,2056,1791,1385,718,-66,-695,-1217,-1831,-2252,-1565,-432,418,1125,2014,2980,3884,4519,4760,4870,4627,4001,3365,2571,2054,1900,1705,1548,1331,936,491,120
2018-09-19,10:41:06.077,-179,-459,-831,-1069,-1107,-1272,-1778,-2754,-3859,-4752,-5398,-5831,-6110,-6155,-5978,-5452,-4237,-2364,-518,1153,2772,3877,3655,2247,1082,308,-318,-729,-971,-1031,-1081,-1304,-1477,-1363,-865,389,2532,4996,6971,8475,9444,9772,9624,9222,8452,6868,4957,2881,793,-209,-943,-1876,-2965,-3989,-4656,-5352,-6252,-6927,-7363,-8004,-8928,-9751,-10526,-11308,-11607,-11365,-11176,-10892,-10418,-10033,-9504,-8314,-6520,-4478,-2807,-2567,-1766,-184,1149,2739,4608,5908,6497,6806,7390,8722,10779,12511,12614,12612,12611,12612,12616,12609,12615,12620,12628,12620,12625,12293,10586,8476,6873,5537,3992,2531,-336,-4038,-7021,-8784,-9882,-10879,-10025,-8557,-8077,-8276,-8720,-9089,-9312,-9437,-9429,-9304,-8912,-8317,-7531,-6663,-5891,-5055
2018-09-19,10:41:07.105,-3888,-2628,-1740,-1105,-565,-393,-695,-1121,-1431,-1422,-1163,-832,-428,-74,165,368,745,1224,1755,2435,3383,4344,4985,5308,5511,5948,6711,7452,7981,8151,7740,7113,6575,5878,5102,4223,3293,2294,1244,318,-363,-823,-1187,-1567,-1885,-2077,-1893,-1228,-1253,-2305,-3354,-4238,-4932,-5433,-6223,-7666,-9321,-10594,-10925,-10066,-8707,-7702,-7224,-7076,-7072,-6753,-6034,-4649,-2620,-380,1487,2233,2241,3116,4388,5189,4982,4514,4643,5412,6301,6907,7033,6720,6334,6033,5671,5388,5328,5504,5690,5877,6136,6260,6150,6330,6814,6551,5637,4543,3498,2639,1735,952,361,-114,-760,-1084,-1479,-2542,-3450,-3761,-3255,-2175,-1117,-926,-1843,-3538,-5703,-8031,-9646,-10245,-10018,-10373,-11934,-12520,-12521,-12316
2018-09-19,10:41:08.132,-9937,-8007,-6506,-5192,-3795,-2312,-939,297,1358,2212,3168,4118,4672,4961,5210,5040,4560,4285,3943,3590,3520,3413,2999,2586,2216,1802,1290,739,1026,2190,3270,4058,4624,4996,5145,5235,5498,5700,5577,5645,5951,6058,5870,5613,5315,4918,4353,3704,2822,1773,605,-509,-955,-1641,-2437,-3489,-4696,-6161,-8171,-11074,-12500,-12035,-10843,-10287,-10315,-9628,-8461,-7510,-6987,-6820,-6678,-6144,-5067,-3494,-1711,-220,445,1002,1406,1685,2097,2716,3397,3901,4167,4420,4866,5444,5955,6242,6325,6461,6798,7542,8203,8209,7443,6309,5263,4291,3427,2824,2545,2346,2311,2005,1359,852,633,568,491,479,421,280,142,291,852,1683,1847,1630,829,-798,-3337,-6857,-10635,-12499,-12501,-12502
2018-09-19,10:41:09.160,-12482,-12483,-12484,-12486,-12041,-10562,-10071,-10164,-10608,-11337,-11512,-10119,-7590,-4302,-471,2266,3877,5545,7421,10005,12466,12473,12456,12468,12456,12462,12438,12444,12443,12432,12433,10740,8043,5731,4295,3597,2494,945,-910,-2942,-4836,-6243,-7274,-7852,-8088,-7545,-5967,-4188,-2352,-670,478,939,1101,1083,941,548,183,-149,-188,97,913,2065,3300,4179,3994,3795,3934,3821,3368,2974,2416,998,177,-301,-647,-1113,-2361,-4291,-6685,-9862,-12470,-12673,-12679,-12684,-12690,-12694,-12701,-12707,-12714,-12721,-12728,-12736,-12723,-9257,-2855,890,3889,6920,9577,12072,12245,12245,12239,12241,12225,12219,12219,12206,11778,7990,5499,4458,3810,2652,1445,935,939,1342,1550,1208,1174,1470,1270,979,981,1116,1684,2649
2018-09-19,10:41:10.188,3550,4180,4704,5172,5393,5117,4428,3678,2789,1892,1002,59,-665,-1015,-1237,-1327,-1355,-1507,-1733,-2115,-2611,-3079,-3796,-3996,-2753,-1250,12,539,113,-879,-2413,-4475,-6670,-8707,-11327,-12633,-12631,-12628,-12625,-12623,-12620,-11027,-6722,-3898,-2092,-372,1029,1579,1915,2275,2474,2768,3254,3549,3627,3738,3863,3717,3452,3857,5679,6630,5009,3182,2122,1776,1878,2198,2558,2966,3494,3974,4503,5382,6427,7233,7510,7441,7397,7250,6884,6350,5531,4644,3905,3103,2129,1090,324,-351,-1062,-1328,-1365,-1653,-2027,-2360,-2805,-3406,-3833,-3826,-3585,-3149,-2743,-2659,-2953,-3254,-3144,-3258,-4235,-5110,-5743,-6376,-6820,-6934,-7200,-7600,-7852,-7714,-6924,-5786,-4861,-4356,-3998,-3410,-2403,-1200,-247,466
2018-09-19,10:41:11.216,907,1184,1502,1748,1919,2043,2049,2164,2508,2969,3438,3603,3540,3285,2725,2279,2032,1809,1603,1462,1379,1351,1323,1319,1232,1224,1467,1874,2378,2882,3284,3475,3482,3265,3036,2892,2780,2399,1552,239,-943,-1768,-2205,-2198,-2362,-2582,-2648,-2710,-2498,-1681,-1311,-1692,-2024,-1743,-1084,-582,-428,-146,498,1056,1149,950,787,589,324,4,-530,-1218,-1962,-2650,-2978,-2885,-2442,-1691,-406,1065,2297,2873,2727,2462,2479,2984,3555,3436,3054,2669,2454,2554,2831,3011,2926,2461,1591,470,-693,-1496,-1757,-1491,-866,-429,-400,-867,-1517,-1852,-1864,-2022,-2111,-1954,-1738,-1390,-1071,-688,-331,318,1093,1712,2182,2595,2704,3098,2959,1825,281,-1497,-2550,-2808,-3095,-3202
2018-09-19,10:41:12.244,-3320,-3192,-3025,-3098,-3475,-3832,-3720,-3120,-2337,-1648,-1235,-1087,-1101,-1204,-1405,-1742,-2173,-2459,-2348,-1746,-684,730,2519,4344,5014,4833,4583,4525,4547,4458,4191,3939,3765,3534,3361,3257,3053,2910,2941,2997,2964,2648,2195,1678,1287,992,651,245,-274,-523,-619,-1012,-1630,-2190,-2636,-2944,-3218,-3511,-3311,-2607,-2156,-2119,-2361,-2876,-3342,-3294,-3721,-5240,-6615,-7212,-7004,-6069,-4747,-3486,-2615,-2133,-1851,-1665,-1533,-1273,-1096,-1227,-1555,-1829,-2190,-3044,-3815,-3839,-3378,-2524,-1147,535,2263,3874,5103,5915,6859,8165,9212,9259,8609,7725,7029,6665,6347,6084,5942,5729,5448,5141,4667,4064,3593,3349,3338,3575,3746,3472,3093,2329,1392,787,-16,-819,-1343,-1801,-2676,-3918
2018-09-19,10:41:13.272,-4954,-5678,-6176,-6426,-6315,-5962,-5320,-4257,-3387,-2633,-1341,-49,0,-640,-1276,-2192,-3293,-4527,-5554,-6026,-6285,-6295,-6113,-6592,-8090,-9602,-9471,-7786,-5659,-4081,-3096,-2148,-1050,246,1572,2613,3210,3358,3316,3218,3185,3532,4209,4720,4519,3913,3488,3571,4525,6064,7256,7645,7714,7567,7124,6520,5938,5347,5036,5325,5912,6426,6491,5862,5003,4113,3330,2761,2054,1081,188,-657,-1517,-2369,-3153,-3679,-4088,-4521,-5083,-5946,-7032,-8064,-8873,-9338,-9265,-8592,-7134,-5236,-4036,-3725,-3648,-3421,-3031,-2533,-2139,-2268,-2673,-2852,-2518,-1816,-1187,-703,-359,-324,-311,-264,-142,118,629,1178,1385,1207,913,825,911,791,570,486,725,1331,2126,2640,2824,2821,2648,2375,2247,2303
2018-09-19,10:41:14.300,2464,2773,2959,3196,3585,3874,3619,3176,2631,1707,1079,869,832,1021,1320,1444,1496,1434,1625,1845,1905,1969,1684,1492,1475,1772,2024,2210,3097,2732,2073,2093,2346,2295,2259,1954,957,435,328,63,-387,-886,-1215,-1824,-3210,-4041,-4384,-5042,-6165,-7590,-8901,-9798,-9976,-9903,-10182,-10829,-10943,-11040,-11394,-10007,-7330,-4206,-1504,639,2272,3481,4311,4876,5066,5119,5169,5186,5190,4984,4436,3649,2867,2364,2018,1646,1479,1756,2292,2834,3199,3425,3454,3076,2447,1861,1420,1182,1141,1322,1716,2141,2457,2737,2885,3092,3410,3716,4153,4399,4502,5062,6075,6065,5197,4581,3431,1044,-1166,-2752,-4513,-6422,-8349,-9829,-10535,-10457,-9783,-8665,-7299,-5817,-4389,-3129,-2113,-1381
2018-09-19,10:41:15.327,-705,8,657,1259,1855,2348,2781,3145,3473,3904,4370,4621,4687,4450,3825,2699,797,-1411,-3968,-6176,-7736,-9647,-10128,-9652,-9761,-9289,-8166,-6362,-3810,-1170,370,1026,1770,2593,3119,3648,4215,4412,4392,4335,4152,3885,3700,3593,3551,3792,4303,4937,5651,6359,7133,7882,8666,9298,9463,9622,9791,9214,7509,5692,4227,3189,2634,2095,1287,374,-657,-1941,-3346,-5130,-7603,-10340,-12309,-12647,-12645,-12642,-12640,-12619,-11517,-10633,-10493,-10094,-9194,-8088,-6906,-5687,-4570,-3569,-2693,-1786,-999,-367,418,1270,2044,2777,3592,4470,5163,5520,5833,6072,6026,5889,5993,6097,6085,5951,5659,5008,4034,3044,2175,1449,723,388,866,2090,3304,4377,5129,5197,5442,5937,5968,5516,5003,3984
2018-09-19,10:41:16.355,3238,3228,3629,3379,2483,2276,2916,3850,4116,3001,1620,125,-1581,-2644,-2860,-2961,-3493,-4557,-6324,-8361,-9938,-11302,-12416,-12495,-12494,-12494,-12494,-12494,-12494,-12494,-11709,-10429,-9134,-7759,-6614,-5737,-4794,-3728,-2507,-1126,583,2519,4300,5688,6566,7401,7917,7453,6294,5722,5906,6323,6413,6938,6871,6920,7785,7720,7137,6760,6610,6774,7157,7547,7811,7770,7498,7146,6902,6311,5509,4907,4405,3542,2946,3397,4131,3860,2363,1106,321,-295,-856,-1521,-2422,-3278,-4055,-4707,-5192,-5494,-5878,-6613,-7417,-7911,-8418,-8941,-9391,-9664,-10021,-11205,-11617,-10880,-9871,-9154,-8846,-8547,-7688,-6477,-5305,-4505,-3805,-2943,-1938,-1114,-561,-83,251,599,1433,2615,3706,4364,4591,4017,3252,2615,1925,1384
2018-09-19,10:41:17.383,912,787,1501,2611,3800,5851,7814,7345,6944,7368,7874,8236,8605,8999,8938,8361,7456,6502,5426,4479,3933,4039,4175,3534,2750,2104,1578,1312,997,600,459,491,447,441,-10,-941,-2087,-3118,-3696,-3863,-4009,-4180,-4356,-4556,-4440,-4069,-4027,-4043,-4056,-4283,-4429,-4282,-3929,-3893,-4039,-4170,-4529,-5321,-6202,-6532,-6279,-5972,-5961,-6030,-5609,-4444,-2672,-637,1323,3140,4088,3828,3285,2848,2321,1783,1314,980,505,38,-242,-279,-268,-151,66,293,631,1217,1931,2770,3483,3465,2750,2579,3325,3815,3437,3338,3744,4366,5131,5717,6074,6446,6326,5424,4305,2818,1275,236,-324,-654,-1040,-1511,-1815,-1893,-1667,-1299,-620,119,769,1102,240,-1864,-3679,-4340,-4527,-4771
2018-09-19,10:41:18.411,-4697,-4413,-3699,-3278,-3496,-3637,-3526,-3373,-3443,-3438,-3244,-3119,-2903,-2663,-2420,-2195,-2016,-1723,-1442,-1445,-1661,-1865,-1915,-1748,-1449,-978,-123,1086,2579,4209,5568,6338,6756,6882,6630,6143,5569,4906,4523,4890,5034,4018,2947,2373,1979,1780,1604,1446,1534,1832,2208,2673,3023,3071,2874,2385,1622,809,-96,-1080,-1907,-2423,-2722,-3033,-3429,-3885,-4452,-5245,-6031,-6791,-7532,-8469,-9392,-9419,-8658,-7699,-7224,-7102,-7077,-6959,-6389,-5228,-4274,-3357,-2271,-1147,226,1540,2767,3673,4275,4717,4913,4685,4323,4347,4520,4384,3748,2774,1570,475,136,512,1366,2552,4339,6271,7773,8770,9512,10397,11314,11310,9845,8190,7002,6359,5997,5524,4774,3549,1812,-26,-1461,-2224,-2134,-1780
2018-09-19,10:41:19.439,-1741,-1711,-1634,-2110,-2981,-3612,-3940,-3952,-4082,-4942,-6464,-8236,-9764,-11237,-12300,-12416,-12272,-11126,-9430,-7973,-6989,-6891,-6710,-5289,-4213,-3280,-2362,-1715,-1780,-2557,-3721,-4617,-4308,-2719,-1044,284,1276,1982,2308,2683,3663,5204,7076,8533,8492,6919,4935,3357,2557,2232,2582,3094,3951,6133,8491,10294,11791,12459,12465,12473,12477,12477,10870,6628,3698,2049,775,-684,-2267,-3391,-4621,-5072,-5366,-3373,-1194,-1915,-4355,-5455,-5120,-4384,-3660,-3430,-3513,-3311,-2800,-2428,-2169,-2096,-2396,-2925,-3519,-4192,-4879,-5450,-6188,-7120,-8030,-8819,-9344,-9353,-9082,-8491,-7704,-6959,-5738,-4198,-2416,-65,2357,3503,3424,3502,4161,4901,5399,5707,5911,6131,6535,7010,7368,7598,7612,7791,8195,8413,7979,7390
2018-09-19,10:41:20.467,7201,6446,5066,4311,3882,3171,2329,1471,923,691,500,-139,-963,-1198,-1072,-1021,-1051,-1211,-1312,-1317,-1204,-1135,-1341,-1745,-2136,-2588,-3268,-3865,-4208,-4880,-5901,-7044,-8079,-8848,-9190,-9228,-9185,-8792,-8145,-7182,-6039,-4866,-3470,-1263,1546,3669,4361,4466,4664,3880,1573,-828,-2196,-2640,-2295,-1664,-1048,-253,981,2239,3346,4086,4475,5089,5775,5964,5445,4873,4480,4561,5408,5963,5712,5781,6191,6403,6245,5984,5066,4000,3458,3072,2724,2366,2421,3396,4099,3461,2626,1775,87,-1669,-1759,-1428,-3041,-4815,-5358,-4794,-3761,-3268,-3558,-4146,-4879,-5441,-5813,-6383,-7198,-8019,-8728,-9426,-9621,-9147,-8412,-7561,-6201,-4641,-3158,-1955,-1274,-877,-686,-757,-728,-512,-176,400,1263,2538
2018-09-19,10:41:21.495,3982,4789,5099,5286,5331,5187,5490,5966,6121,6591,7306,7166,6253,5815,5933,6155,6087,5555,4846,4317,3641,2758,1975,1835,1798,1021,42,-934,-1205,-842,-810,-1320,-1701,-1832,-1661,-1350,-1065,-453,158,-70,-853,-1333,-1079,-1307,-2145,-2593,-2877,-3702,-4140,-3496,-2480,-2133,-2814,-3533,-4085,-4386,-4523,-4659,-4773,-4933,-5178,-5294,-5291,-5155,-4810,-4382,-3870,-3312,-2746,-2328,-1922,-1371,-695,157,1072,1973,3011,4023,4516,4563,4431,3691,2579,1669,1281,1101,771,-228,-1579,-2735,-3219,-4222,-6421,-6681,-5287,-3664,-1475,1134,3526,5216,6749,9480,11379,11526,10252,8430,7208,6046,5203,4511,3548,2552,1462,179,-644,-1076,-1329,-1314,-688,241,1048,1701,2433,3217,3436,3262,2849,1999
2018-09-19,10:41:22.522,907,-130,-1521,-2723,-3504,-4348,-5273,-6022,-6509,-6676,-6995,-7752,-8632,-9291,-9331,-8842,-8137,-7140,-6017,-4978,-4015,-2728,-542,1663,2796,3695,4881,6025,7170,8129,8240,7651,6887,5983,5026,4056,3128,2302,1701,1305,989,763,641,568,593,852,1425,2222,3145,3914,4422,4672,4705,4801,5018,4955,4297,3189,1800,388,-1014,-1822,-1938,-1479,-922,-651,-1004,-1660,-2216,-2544,-2564,-2583,-2609,-2420,-2203,-2169,-2377,-2601,-2746,-2778,-2911,-3625,-5231,-7425,-9341,-10735,-11472,-11445,-11268,-10831,-9636,-8087,-6614,-5417,-4231,-2553,-921,8,818,1733,2640,3572,4387,5113,6010,6997,7372,7168,6800,6489,6176,5726,5271,4899,4515,4094,3775,3460,3136,2840,2542,2424,2462,2552,2683,2808,3144,3631
2018-09-19,10:41:23.550,4261,4874,5338,5587,5451,4707,3627,2484,1321,243,-464,-880,-1163,-1225,-1110,-1036,-1111,-1282,-1494,-1718,-1867,-1916,-1885,-1773,-1669,-1632,-1636,-1597,-1606,-1789,-2048,-2412,-2936,-3457,-3976,-4770,-6261,-8762,-11562,-12438,-12440,-12441,-12416,-11226,-8722,-6088,-3556,-1324,352,1597,2845,4196,5455,6590,7525,7771,7136,6254,5296,4047,3174,2492,1331,-442,-1782,-1699,-428,1604,4365,7143,8194,7883,7327,6790,6305,5980,5821,5736,5434,4383,3170,2531,2366,2414,2437,2336,2126,1862,1745,1620,1057,239,-512,-1124,-1585,-1944,-2300,-2502,-2498,-2568,-2650,-2666,-2660,-2575,-2581,-2978,-3410,-4087,-5859,-8814,-11151,-12336,-12474,-11631,-9756,-8714,-8403,-7960,-7675,-7676,-7732,-7481,-6655,-5445,-4288,-3262,-2307,-1364
2018-09-19,10:41:24.578,-93,1693,3807,5896,7440,8373,8779,8800,8563,8021,7038,6083,5253,4159,2963,2173,1960,2372,3156,3803,4238,4628,5135,5706,6135,6272,6335,6470,6684,6875,6963,6842,6443,5756,4941,4155,3425,2557,1587,819,157,-310,-659,-1203,-1916,-2536,-2900,-3127,-3210,-3105,-3045,-2957,-2933,-2880,-2645,-2300,-1875,-1786,-1920,-1566,-989,-1379,-2334,-2953,-3369,-3554,-3607,-3762,-4026,-4439,-5033,-5708,-6334,-7028,-8097,-9835,-11698,-12403,-11565,-9226,-5618,-2120,-415,25,252,638,981,1395,1966,2597,3122,3494,3665,3780,3783,3592,3358,3046,2730,2445,2342,2665,3364,4499,5391,5565,5828,6265,6303,5961,5410,4994,4839,4701,4636,4658,4710,4664,4534,4299,4014,3569,2930,2347,1916,1443,865,361
2018-09-19,10:41:25.606,-281,-736,-815,-599,116,524,-463,-1714,-2325,-2581,-2622,-2558,-2626,-2766,-2785,-2670,-2382,-1951,-1934,-2265,-2598,-3033,-3446,-3624,-3550,-3396,-3764,-4731,-6237,-8566,-11225,-12425,-12453,-12459,-12465,-12445,-10747,-8268,-7063,-6882,-6945,-6636,-5728,-4396,-2989,-1392,417,2336,4374,6440,8430,9582,9788,10137,10842,11741,12397,12425,12419,12414,12412,11877,9856,8026,6445,5167,4325,3902,3756,3587,3434,3379,3545,3754,3852,3750,3312,2706,2073,764,-1523,-3110,-3648,-3342,-2228,-974,-578,-772,-1020,-1118,-1180,-1221,-1172,-928,-615,-568,-764,-948,-1032,-1251,-1799,-2362,-2948,-3492,-4088,-4366,-4377,-4580,-4810,-4530,-4699,-5993,-8422,-10530,-11376,-11387,-10734,-9312,-6893,-3515,-146,2115,2645,1469,128,427,2961,5104
2018-09-19,10:41:26.634,5056,4382,3705,2968,2428,2309,2222,2138,2078,1814,1599,1459,1300,1207,1145,1305,1829,2296,2524,2579,2469,2128,1973,2369,2550,1919,1372,1210,1404,2172,3393,4343,4279,3271,1783,180,-1486,-2887,-3567,-3811,-3662,-2927,-1807,-325,1198,2474,3960,5239,5029,4148,3746,3682,3420,2938,2327,1550,805,101,-759,-1528,-2803,-5314,-8482,-10879,-11827,-11624,-10910,-10058,-9278,-8568,-7838,-7357,-6839,-6078,-5521,-4862,-3763,-2562,-1510,-528,404,1045,1828,2867,4020,5491,7083,8305,8993,9083,8823,8417,7855,7051,6241,5919,5517,4005,2436,1400,591,66,-440,-1276,-1864,-1421,-383,552,1006,970,657,342,-115,-431,-464,-206,395,994,1001,461,-55,7,473,1157,1735,1658,1107,511
2018-09-19,10:41:27.662,200,-173,-565,-657,-124,860,1512,1586,1379,1317,1494,1742,1676,1385,1138,1186,1405,1266,801,334,18,-183,-505,-762,-980,-1511,-2124,-2791,-3617,-4473,-5204,-5786,-6534,-7523,-8105,-7790,-6936,-5956,-4598,-2355,-58,364,-122,-118,432,1158,1866,2474,3017,3298,3211,3233,3213,2908,2516,2077,1565,1080,828,566,320,169,204,482,1013,1510,1777,1828,1915,2062,2038,1885,1578,1045,363,-212,-572,-831,-1269,-1840,-2226,-2388,-2453,-2408,-1974,-1195,-545,-79,371,1005,1668,2241,2820,3231,3485,3526,3181,2476,1645,1105,1055,1343,1751,2042,1935,1499,936,188,-621,-1008,-732,-760,-2085,-3666,-4809,-5427,-5708,-6233,-7249,-8114,-8599,-8754,-8851,-9083,-9433,-9592,-9513,-9302
2018-09-19,10:41:28.690,-8671,-7317,-5784,-4347,-2861,-1017,940,2635,4121,5000,5231,5114,4973,4856,4814,4726,4613,4777,5251,5920,6702,7601,8292,8754,9286,9643,9347,8548,7792,6912,5726,4302,3549,3497,2770,1362,-279,-2076,-4103,-5663,-6154,-6504,-6324,-5670,-4548,-3120,-1347,80,1011,1511,1694,1659,1533,1705,2273,2080,1244,982,1166,1641,2226,2645,3385,4287,5055,5660,5849,5552,4926,3944,2957,2150,1318,615,-49,-841,-1726,-2886,-4388,-5957,-7560,-9219,-10572,-11599,-11791,-11074,-9925,-8899,-8212,-7639,-6860,-5654,-3977,-1821,729,2763,3161,3060,3092,3309,3432,3224,2678,2034,1486,890,134,-464,-767,-862,-890,-963,-1065,-910,-639,-524,-339,238,1139,1871,2576,3166,3176,2451,1947,2588,2868,1952
2018-09-19,10:41:29.717,1103,441,-196,-653,-962,-1277,-1220,-727,-74,320,581,1108,1921,2643,3083,3126,2901,2710,2615,2668,3032,3484,3752,3756,3807,3608,3362,3290,3176,2757,2070,1424,823,123,-507,-558,-769,-1567,-3156,-5529,-8045,-10064,-11346,-12173,-12366,-12366,-11985,-10922,-9436,-7811,-6459,-5176,-3888,-2537,-1240,252,2099,4031,5749,7455,9582,11015,9993,7953,5853,3355,1045,342,1355,2104,1917,1803,1804,1931,2293,2723,3030,3070,2578,1630,488,-458,-925,-776,-647,-796,-1119,-1145,-1251,-1556,-1929,-2229,-2441,-2504,-2238,-1686,-1117,-482,10,259,520,972,1630,2179,2265,2082,2083,2164,1993,1912,2041,1924,1829,2218,2889,3443,4068,4372,4231,3946,3578,2909,1950,1327,1361,1926,2553,2965
2018-09-19,10:41:30.745,3083,2803,2923,2528,1310,-305,-2063,-4191,-6024,-6413,-7050,-9128,-11109,-12358,-12492,-11863,-11152,-10336,-9045,-7778,-6722,-5921,-5038,-3854,-2415,-720,973,2545,4023,5889,7818,8105,7336,6362,5293,4313,3454,2780,2352,2097,2172,2310,2231,2084,1954,1895,1772,1576,1389,1348,1307,1306,1385,1439,1534,1595,1560,1288,544,-439,-1279,-1842,-961,-455,-422,-391,-475,-191,444,1325,2063,2645,3057,3131,2921,2593,1867,775,250,213,-712,-2082,-2664,-2653,-2479,-2212,-1786,-1183,-873,-798,-902,-1048,-1138,-1134,-869,-263,518,1355,2144,2751,3052,3265,3446,3312,3013,1992,-484,-3182,-5166,-6719,-7705,-7989,-7660,-6820,-5858,-5185,-4688,-4107,-3339,-2412,-1526,-762,-333,-236,-45,595,1496,2322
2018-09-19,10:41:31.773,2913,2985,2831,2474,1934,1447,1246,1297,1478,1638,1699,1588,1571,1652,1631,1598,1320,563,-346,-267,788,1085,524,485,856,1334,2044,2724,3119,3228,3277,3309,3318,3185,2968,2750,2490,2048,1534,944,493,132,-173,-537,-841,-1239,-1720,-2018,-2127,-2223,-1753,-1135,-1102,-1200,-1217,-1149,-757,-153,776,1620,2281,2696,2979,2978,2732,2363,1917,1458,737,-1368,-4241,-5811,-6067,-6052,-5860,-5938,-6617,-7505,-8206,-8581,-8460,-7426,-6232,-5288,-4406,-3288,-1969,-702,942,3153,4744,5094,4829,4851,5230,5046,4104,3033,2315,1972,1958,2175,2386,2269,1886,1217,503,162,69,133,501,1076,1573,1575,1310,1122,814,240,-93,318,826,1320,2164,2892,3265,3593,3997,4572
2018-09-19,10:41:32.801,5192,5200,4513,3674,2996,2355,1774,1137,306,-488,-1017,-1297,-1211,-1084,-938,-883,-1135,-1337,-1511,-1969,-2489,-2812,-2534,-1768,-1121,-494,-12,515,1296,1883,1473,404,-1382,-4769,-7283,-8208,-8194,-7184,-5693,-4547,-5939,-9402,-11974,-12389,-12295,-10551,-7772,-4836,-1480,1864,4747,6421,6605,6329,7466,9448,12085,12590,12585,12577,10398,6204,4302,3491,2059,830,352,-26,-797,-1713,-2469,-2875,-2789,-2369,-1662,-912,-650,-1350,-2528,-3874,-4868,-4969,-4032,-2935,-1824,-880,-192,254,172,-1119,-2305,-2335,-1698,-1083,-625,168,1658,2721,2521,2146,1755,1302,1485,3065,4484,5030,5273,5345,4998,4355,3711,3176,2713,2377,2185,2035,2062,2240,2427,2789,2743,2522,2301,1841,1295,946,312,-847
2018-09-19,10:41:33.829,-2619,-4544,-6567,-8600,-9638,-9573,-8887,-8288,-7817,-7343,-6460,-5149,-3770,-2460,-1487,-950,-645,-522,-591,-364,410,1335,1920,2062,1835,1210,479,-80,-577,-872,-916,-851,-736,-647,-285,261,805,243,-1593,-3176,-3714,-3538,-2777,-1224,711,2135,2672,3213,3795,2834,3468,4280,4120,3893,3847,4247,4780,4970,5128,5527,5771,5621,5167,4488,3576,2348,1207,858,1482,1915,1590,897,542,702,521,57,-229,36,364,288,130,709,1818,2346,2016,1885,2523,2971,3375,3835,3780,2805,1274,110,-129,-858,-1469,-417,-936,-4889,-9446,-12002,-12454,-12123,-10433,-9713,-9533,-8827,-8368,-8100,-7439,-6628,-6024,-5090,-3076,-140,2944,4920,5222,4363,3298,2565,2519,2750,2394,1659,1461,1730
2018-09-19,10:41:34.857,2368,3075,3431,2982,2658,2636,2735,2539,2109,1529,713,-310,-1267,-2026,-2820,-3127,-3224,-3325,-2863,-1810,-465,666,1405,2176,2710,2827,3023,3391,3826,4015,4189,4473,4491,4155,3697,3366,3138,3137,3246,3195,3074,2796,2807,3641,4034,3342,2874,2459,1745,1075,280,-136,-349,-842,-1175,-844,-837,-2334,-4803,-8005,-11406,-12200,-12205,-12210,-12215,-12205,-11194,-10022,-9741,-9072,-7945,-6575,-5079,-4069,-3382,-2162,-468,1036,2136,2961,3729,4665,5772,6918,8130,8542,7296,5979,5058,4035,2816,1558,996,1181,1452,1540,1213,435,-471,-1017,-1287,-1630,-1836,-1787,-2113,-2720,-3564,-4740,-4765,-3881,-1498,2520,7324,10850,8999,4082,640,-686,-1660,-1952,-1478,-665,-83,410,962,1572,2148,1745
2018-09-19,10:41:35.885,827,884,1415,1707,1754,1779,1754,1839,2144,2780,2685,2965,4901,7217,8275,6404,3855,2753,2279,1879,1278,824,350,-333,-1182,-1515,-1533,-2208,-3476,-4183,-3347,-2202,-2048,-2686,-3199,-3353,-4090,-7089,-10505,-11854,-11328,-9714,-7752,-6916,-6698,-5322,-2318,1404,5207,9760,12481,12510,12501,12514,12521,12525,12547,12559,12584,11364,5144,1282,-459,-1014,-1102,-662,288,528,312,-114,-1213,-2922,-4545,-5502,-6024,-6355,-6429,-6145,-5286,-4371,-3557,-2507,-1254,-33,709,873,931,859,708,818,883,704,507,461,637,730,645,217,44,231,4,-634,-1354,-1720,-1342,-873,-767,-913,-1633,-3521,-6051,-8747,-11057,-12032,-12071,-12076,-12062,-10765,-9152,-8437,-7724,-7701,-9298,-11381,-12149,-12125,-10292,-6846
2018-09-19,10:41:36.912,-2972,1226,5255,9635,12774,12884,12875,12860,12852,12845,12658,10054,8924,10603,11180,8222,4304,2584,3639,4990,5181,5671,4939,3603,2464,1849,1728,1786,1708,1527,1243,888,436,15,-271,-337,-376,-895,-1971,-2710,-2562,-2084,-1248,-735,-242,314,525,476,81,-306,-570,-1008,-1457,-1694,-1240,-1176,-2500,-4145,-4970,-4817,-3827,-2643,-1292,-203,322,1441,2461,3182,3567,3574,3583,3438,3327,3164,2717,1920,875,-346,-1900,-3567,-5299,-7595,-10737,-12391,-12418,-12424,-12430,-12435,-12221,-10832,-9466,-7775,-5481,-2422,1212,4943,8754,11740,12531,12531,12522,12517,10960,8521,7681,7575,7149,6264,5450,4359,2769,1354,135,-1220,-2144,-2839,-3635,-4137,-4459,-4730,-4525,-4047,-4314,-5507,-6547,-7373,-7772,-7658
2018-09-19,10:41:37.940,-7519,-7360,-7248,-6925,-6043,-4388,-2184,65,1955,3422,4487,4957,5418,6506,8066,8981,8797,8042,7207,6657,6336,5920,5682,5772,5986,6117,6326,6853,7531,7908,8192,8432,8168,7162,5963,4374,2346,-590,-4013,-7181,-10226,-12655,-11440,-7226,-3588,-845,885,1564,1568,966,-418,-1284,-1774,-2072,-2074,-2105,-2350,-2553,-2466,-2018,-2373,-3869,-5240,-5635,-5634,-6449,-8005,-10130,-11668,-12234,-12705,-12727,-12734,-12742,-12750,-12759,-12767,-12775,-12785,-12794,-12804,-12778,-5791,3535,9469,12175,12194,12187,12175,12170,12168,12144,12147,12140,12143,12039,10677,9551,8730,7962,7749,7912,8224,8455,8177,7606,6475,4311,2063,1920,2450,1914,1178,1313,2081,3021,4079,5550,7474,9584,10949,10980,10661,10884,11355,10634,7258,2672
2018-09-19,10:41:38.968,-1842,-6122,-9379,-10363,-10621,-10868,-11263,-10926,-10106,-9673,-9910,-10162,-10182,-9604,-8987,-8253,-7339,-6634,-6087,-6090,-7255,-10293,-12524,-12521,-12512,-10748,-6390,-3559,-2308,-2982,-4050,-4486,-4411,-4055,-3492,-2510,-1499,-620,233,1195,2136,3054,4339,6148,7918,9408,10529,11021,10826,10293,9664,8866,7982,7131,6025,4985,4713,4994,4777,3339,1902,1936,2809,2879,2299,1379,377,-332,-122,885,1965,2551,2882,3376,3987,4524,5000,5226,5110,4647,4137,3706,3068,1949,758,-1192,-3966,-6519,-7000,-6255,-5418,-4695,-4092,-4060,-4368,-4784,-5034,-4992,-4827,-4730,-4917,-5540,-6852,-8480,-9435,-9503,-9377,-9332,-9285,-9313,-9071,-8253,-6726,-4773,-2548,-293,1717,3211,3972,4043,3995,4104,3724,2745,2438,2558,2120,1930
2018-09-19,10:41:39.996,2871,3828,3904,3684,3776,3961,3396,2818,2744,2786,2588,2580,3741,5294,6682,7336,7135,6788,6802,6946,6801,6227,5280,4364,4107,4113,3429,2104,890,-238,-1419,-2338,-3084,-4005,-4637,-4803,-4955,-5903,-8067,-10484,-11997,-12209,-11252,-9279,-6862,-4544,-2543,-962,-6,615,1615,3035,3902,3343,2236,974,-265,-1033,-1096,-777,-251,-47,-317,-224,475,627,126,-271,-415,-254,200,667,923,1208,1720,2586,3550,4395,5143,5514,5540,5367,4945,4407,3922,3285,2465,1737,1096,316,-335,-647,-663,-550,-329,-157,-136,-395,-943,-1336,-1384,-1108,-906,-380,522,1380,2116,2298,2123,1934,1899,2032,1940,1499,891,264,-388,-957,-1439,-1811,-2162,-2452,-2579,-2743,-3302,-4085,-5024,-6063
2018-09-19,10:41:41.024,-6342,-5769,-5649,-5822,-5595,-5284,-4827,-4135,-3257,-2209,-1336,-816,-549,-428,-355,-194,61,497,1084,1729,2408,3087,3784,4485,5102,5482,5547,5444,5105,4584,4034,3746,3667,3471,3049,2417,1762,1269,965,761,554,205,-28,-134,-310,-515,-685,-777,-893,-906,-962,-1028,-998,-1036,-1013,-1146,-1118,-1270,-1600,-1730,-1532,-1650,-2102,-2589,-2694,-2294,-2113,-2901,-3676,-4030,-4049,-3878,-3967,-4564,-5651,-7017,-8269,-9100,-9582,-9555,-9083,-8156,-7073,-5827,-4398,-2865,-1151,481,1976,3571,4854,5444,5510,5431,5718,6203,6412,6557,6597,6247,5645,5486,5917,6679,7531,8248,8378,7513,6538,5951,5857,6080,5990,6067,6205,5910,5294,4753,4249,3817,3624,3596,3695,4033,4452,4376,3448,2128
2018-09-19,10:41:42.052,630,-545,-891,-1225,-2362,-3397,-4265,-5000,-5067,-5026,-5396,-5702,-5681,-5678,-5958,-6302,-6049,-5261,-5080,-4434,-3418,-2494,-1699,-1161,-779,-352,-162,-351,-1080,-2181,-3026,-3106,-2581,-1669,-859,-671,-1057,-1955,-3340,-4765,-5854,-6730,-7305,-7688,-7855,-7800,-7427,-6640,-5534,-4221,-2754,-1533,-666,-283,-93,99,433,845,1352,2036,2801,3645,4364,4764,4763,4533,4451,4904,5690,5989,6036,6775,7716,8269,8500,8297,7712,7056,6635,6371,5986,5315,4367,3395,2518,1828,1396,1102,935,810,647,409,256,315,336,136,-147,-393,-616,-880,-1004,-1002,-1147,-1365,-1542,-1899,-2198,-2144,-1887,-1771,-1758,-1847,-1800,-1587,-1567,-1618,-1657,-1824,-2022,-2216,-2491,-2704,-2636,-2464,-2603,-3030,-3436,-3822
2018-09-19,10:41:43.079,-4000,-3966,-3786,-3570,-2936,-1703,-692,-459,-245,143,461,408,-99,-960,-1777,-2235,-2559,-2766,-2946,-3148,-3424,-3776,-4053,-4122,-3969,-3600,-3020,-2322,-1419,-360,614,1277,1657,1724,1660,1394,1079,1014,1067,1100,1161,1491,2324,3340,4340,5251,6044,6739,7425,7972,8411,8645,8685,8581,8340,7981,7224,5806,4085,2584,1340,316,-541,-1480,-2146,-2467,-2596,-2585,-2730,-2828,-2342,-1871,-2286,-2795,-2896,-2720,-2452,-2151,-1893,-1779,-1676,-1653,-1699,-1781,-1851,-1909,-2045,-2265,-2512,-2497,-2654,-3167,-3722,-4319,-5196,-5976,-6027,-5690,-5659,-6038,-6532,-6756,-6754,-6696,-6840,-7021,-6851,-6508,-6019,-5409,-4934,-4583,-4222,-3569,-2458,-982,669,2259,3811,5157,6261,7173,8277,9287,9958,10351,10047,8721
2018-09-19,10:41:44.107,6709,4737,3834,4355,5535,6402,6659,6759,7033,6574,5219,4017,3410,3291,3613,4060,4357,4434,4498,4688,4929,4881,4267,3307,2330,2773,2930,2124,1905,1213,-637,-2052,-2273,-2098,-1851,-1322,-1005,-1035,-984,-890,-690,-386,-265,-18,276,257,105,-104,-573,-1740,-3903,-7078,-10138,-12279,-12560,-12554,-12549,-12543,-12333,-9762,-7094,-5249,-3708,-2233,-1194,-736,252,1885,3552,4760,5420,5523,5396,5456,5381,4519,3229,2222,1634,1372,849,-58,-893,-1438,-2058,-2641,-3045,-3594,-4193,-4379,-4031,-4047,-3985,-2571,-413,893,1623,2770,4077,3637,3737,3303,2548,1690,1073,1155,1865,2882,3780,4556,5170,5596,5790,5606,5093,4386,3536,2711,2191,1835,970,-248,-1264,-2163,-2768,-3005,-2937,-2394
2018-09-19,10:41:45.135,-1631,-1003,-461,-166,25,173,356,523,289,50,584,1238,881,493,761,1291,1602,1096,48,-905,-1703,-2214,-2657,-2839,-3107,-4147,-5704,-6702,-6415,-5122,-3765,-2348,-973,150,1032,1691,2150,2185,1825,1252,479,-438,-1625,-3149,-4614,-5789,-6610,-7314,-7779,-7755,-7500,-6742,-5395,-3305,-847,1426,3374,4938,5820,5523,5285,5164,4611,3716,3279,3348,3808,4465,5021,5418,5667,5780,5835,5726,5457,5549,5689,4694,3144,2039,1204,376,-76,-67,127,354,-75,-1118,-1993,-2599,-2894,-2788,-2235,-1422,-841,-356,290,808,947,715,410,142,-25,-80,-497,-1221,-1281,-1174,-1377,-1812,-2442,-2632,-2663,-2793,-2899,-2981,-2822,-2591,-1996,-1003,64,960,1475,1303,312,-1434,-3263,-4035
2018-09-19,10:41:46.163,-3400,-2098,-1082,-1378,-2409,-3214,-3460,-3413,-3348,-3469,-3921,-4370,-4125,-3981,-4798,-5725,-5920,-5440,-4278,-2640,-533,2003,4804,7265,8368,8099,7061,5704,4728,4363,4374,3914,3704,4420,5361,6243,7000,7229,6834,6169,5314,4543,4017,3435,3031,2748,2249,1882,1575,1110,489,-187,-661,-1000,-1253,-1551,-1741,-1979,-2262,-2433,-2571,-2457,-2143,-1937,-1839,-1806,-1701,-1327,-1019,-839,-474,229,686,673,295,50,268,-8,-1507,-2783,-3299,-3243,-2620,-1816,-1167,-740,-552,-531,-560,-635,-713,-982,-1435,-1950,-2469,-2996,-3517,-4264,-5029,-5649,-6139,-6618,-7039,-6964,-6441,-5696,-4936,-3989,-2726,-1235,266,1601,2866,3884,4278,3987,3400,2694,2135,2174,2634,3233,3772,4264,4670,4809,4636,4281
2018-09-19,10:41:47.191,3549,3029,3061,3055,2768,2405,2272,2569,3085,3689,4216,4760,5406,5707,5232,4405,3321,2179,1374,877,542,215,-28,-90,-184,-373,-718,-1395,-2458,-3493,-3634,-3348,-3356,-3335,-3372,-3878,-4330,-4790,-5492,-5836,-5735,-5159,-4405,-3871,-3415,-2185,-730,453,1481,2088,1787,815,-179,-1266,-2652,-3669,-4259,-4404,-4084,-3596,-3438,-3568,-3657,-3540,-3227,-3133,-3300,-3437,-3270,-2363,-934,403,1546,2401,3354,4565,5299,5277,5119,4910,4844,5013,5089,4772,4188,3237,1597,-806,-2485,-1850,219,3079,5749,6026,4847,3682,2776,2098,1714,1849,2502,3182,3256,3093,2847,2553,2652,3232,3689,3584,2698,2037,1811,1641,1285,835,613,324,141,185,172,-289,-958,-1516,-2379,-3105,-3397,-3588
2018-09-19,10:41:48.219,-4047,-4361,-4495,-4352,-3820,-2875,-1827,-1096,-1019,-1574,-2346,-2443,-2620,-3271,-3431,-2567,-958,595,1515,2011,2308,2373,2366,2280,2115,1771,1430,1292,1416,1714,1650,1000,-46,-1306,-2856,-4600,-6215,-7350,-7655,-7216,-6536,-5790,-5036,-3931,-2574,-1547,-830,-474,-477,-503,-275,344,935,1824,2495,2548,2366,2348,2426,2268,1570,184,-1606,-2921,-2632,-941,584,1489,2590,3547,3468,2434,802,-647,-1222,-1005,-992,-960,-741,-854,-1781,-2339,-1108,975,2719,4171,5333,6389,7335,7655,7158,6232,5331,4758,4401,3834,3253,2929,2274,253,-2853,-4792,-5084,-4488,-3499,-2417,-1710,-1410,-1115,-998,-1035,-1152,-1246,-994,-406,77,117,158,535,1022,1352,1587,1668,1641,1643,1630,1529,1302
2018-09-19,10:41:49.247,852,-74,-1179,-2413,-3129,-3225,-3058,-2899,-3155,-3454,-2971,-2270,-2800,-3914,-4531,-4763,-4749,-4880,-5313,-5898,-6397,-6800,-6837,-6372,-5545,-4404,-2867,-1142,433,1859,3656,6151,8823,9687,8369,6254,4906,3257,1515,737,736,735,418,172,475,1234,1999,2716,3464,4579,6079,7464,8174,8438,8493,8301,8138,7751,7008,6107,5148,4117,3288,3003,2742,1859,186,-1940,-3715,-4664,-4830,-4954,-5239,-5093,-4529,-4647,-5577,-5652,-5023,-4323,-3432,-2394,-1656,-1236,-1015,-991,-998,-1021,-1262,-1856,-2750,-3896,-5387,-6822,-7669,-8069,-8638,-9399,-9619,-9057,-7783,-6060,-4447,-3279,-2179,-935,432,1697,2780,3367,3310,2718,1853,974,217,-538,-1208,-1518,-1445,-1114,-691,-135,378,796,1756,2984,4307,5881
2018-09-19,10:41:50.275,7345,8583,9372,8891,7986,6922,5309,3712,3053,3457,3685,2330,714,-16,-615,-761,-725,-750,-347,323,1203,2131,2954,4055,5328,6322,6381,5173,3714,2533,1690,1123,769,427,-43,-573,-1164,-1928,-2872,-3657,-4034,-4144,-4107,-3870,-3177,-2289,-1602,-981,-454,-263,-99,106,119,229,821,1685,2362,2624,2415,1558,-11,-2114,-4417,-6276,-7287,-7873,-8110,-7909,-7655,-7350,-6821,-5932,-4403,-2600,-1583,-1182,-382,701,2016,3294,3997,3694,2471,988,-644,-2276,-3035,-2270,-719,658,1488,2059,3005,4987,6703,6648,6214,5540,4217,2777,2020,2075,2552,3331,4122,4211,3133,918,-1104,-2324,-2334,-1808,-1897,-2477,-2677,-2484,-2020,-1331,-650,-48,403,931,1515,2105,2531,2871,3106,3251
2018-09-19,10:41:51.302,3548,4205,4526,4072,3283,2155,1073,821,621,-822,-2639,-4438,-5704,-5914,-5696,-5252,-4479,-3963,-3661,-3320,-2928,-2582,-2377,-2223,-2123,-2284,-2548,-2965,-3471,-3829,-3661,-2822,-1824,-950,-470,-302,-243,-219,-33,257,1095,1945,1603,666,-69,-671,-1354,-1433,-893,-35,943,1765,2172,2255,2005,1853,1800,1453,818,473,1011,2527,4511,6450,6963,5495,3634,3407,4297,5204,6196,7478,7462,4900,1941,145,-967,-1737,-2507,-2950,-3088,-3092,-2888,-2141,-883,526,1618,2426,3070,3773,4193,3693,2537,1462,908,465,-796,-2051,-2972,-4051,-5572,-6753,-7019,-6953,-6180,-5018,-4707,-4180,-3311,-2169,-549,953,2023,2831,3418,3604,3375,2807,1958,589,-1705,-4266,-6216,-7610,-8738,-9178,-8922,-8551
2018-09-19,10:41:52.330,-8012,-7239,-6329,-5459,-4538,-3549,-2241,-412,1148,1507,1723,2931,5575,6960,4192,938,56,691,1546,2127,2450,2311,1415,288,-547,-965,-1127,-1326,-1973,-2554,-2471,-2578,-2371,-774,1407,3351,4400,5236,6416,7207,7218,7417,8230,10363,12384,12402,12401,12402,10433,6151,5714,5297,3912,2707,2403,2697,3124,3869,4752,5664,6265,6316,5670,3968,1799,-406,-2429,-4330,-5864,-7211,-8739,-9884,-10736,-11781,-12009,-11227,-10400,-9631,-8906,-7999,-6618,-5257,-4116,-3220,-2623,-2577,-2888,-3178,-3102,-2916,-3348,-4156,-4745,-4915,-4638,-3811,-2626,-1417,-519,-181,-390,-846,-1226,-1594,-1950,-2143,-1871,-1266,-602,479,1816,2755,3052,2882,2708,2736,2847,2987,2858,2315,2037,2793,4559,6896,8353,6436,2880,316
2018-09-19,10:41:53.358,-284,728,2192,3558,4279,5255,8438,9138,5919,3423,402,-1369,-1546,-1677,-1901,-1894,-1934,-2125,-2241,-2067,-1652,-434,1345,1746,318,-2212,-3694,-4275,-4989,-5298,-4972,-4290,-3284,-2295,-1451,-725,26,829,1685,2289,2327,1956,1401,869,417,-78,-534,-1376,-2709,-3142,-2688,-2566,-2116,-1483,-1125,-788,-525,-330,135,655,1108,1513,1843,2040,2080,1609,958,404,-127,-576,-1021,-1683,-2686,-3442,-3814,-4525,-5163,-5072,-4872,-4542,-4055,-3516,-2533,-1241,-146,442,172,-464,-623,-7,1116,2068,2374,2417,2654,3015,3354,3474,3643,3951,4093,3995,3543,3201,4204,6171,6705,5196,2355,275,2229,7929,9788,6164,3071,1563,776,1033,2929,5657,8127,9688,9895,9193,8013,6368,4730,3949
2018-09-19,10:41:54.386,3571,2642,2505,3319,3885,3667,2661,937,-999,-3139,-5609,-7218,-7951,-8812,-9001,-8528,-7973,-7347,-6892,-6487,-5994,-5847,-5499,-5083,-4696,-4132,-3780,-3701,-3613,-3602,-3624,-4242,-5517,-6944,-8232,-9242,-10070,-10567,-10346,-9608,-8765,-7813,-6647,-5315,-4024,-2815,-1655,-241,1397,2845,3793,3718,2628,1631,1528,2144,2931,3325,3344,3104,2711,2415,2263,2065,1909,2073,2717,3936,5831,7330,7197,6116,5247,5001,4780,3957,3456,3816,3915,3340,2923,2842,3289,4099,5062,6078,7321,8568,8997,8447,7647,6786,5801,5107,4744,4182,3430,2552,1581,971,286,-593,-1080,-1392,-1816,-2295,-2994,-3591,-3920,-4146,-4305,-4426,-4722,-5387,-6294,-7191,-8466,-10563,-12586,-12616,-12618,-12622,-12625,-12629,-12634,-12639,-12626,-11055
2018-09-19,10:41:55.414,-8849,-7281,-5792,-4126,-2308,-459,1367,3206,5146,7138,8745,9277,8988,8093,7144,7122,7297,6693,5681,4019,1686,-394,-1083,-927,-1163,-2532,-4737,-6643,-6963,-6009,-3365,1495,7601,7327,4807,2426,2390,4998,6086,5995,6060,6433,7004,7583,8020,8261,8641,9708,10609,10379,9630,8660,7824,6566,4973,3542,2514,1808,1194,800,476,-227,-1029,-1492,-2007,-2706,-3263,-3706,-4157,-4600,-5116,-5577,-6006,-6367,-6749,-7305,-7801,-8750,-10539,-12487,-12601,-12600,-12599,-12598,-12596,-11909,-9334,-7247,-5692,-4314,-3080,-1983,-1212,-635,-19,660,1088,1319,1760,2485,2942,2909,2707,2689,2734,2517,2355,2527,2969,3449,4176,5484,7266,9245,10445,10206,9554,8984,8491,7824,7115,6344,5385,4365,3474,2505,1680,1212
2018-09-19,10:41:56.442,933,708,509,330,340,284,51,-168,-516,-829,-890,-998,-1125,-1169,-1058,-1215,-1413,-1335,-536,539,599,-157,-574,-1077,-1750,-2689,-4218,-5369,-6174,-7457,-9127,-10378,-11260,-11766,-12134,-12546,-12763,-12759,-12041,-10250,-8228,-6260,-4145,-1953,50,1558,2294,2453,2830,3717,4876,5882,6506,7022,7297,7098,6829,6839,6846,6968,7438,8131,8796,9316,9587,9582,9436,9276,9035,8728,8434,7577,6240,4838,3801,3500,3634,3134,2201,1272,438,-358,-939,-684,-394,-1251,-2513,-3446,-4048,-4494,-5064,-6112,-7671,-9504,-12085,-12821,-12818,-12815,-12813,-12811,-12810,-12809,-12809,-12808,-12640,-8083,-3500,-480,1319,2393,3417,4643,5489,5280,4342,3441,3194,3043,2799,2475,2494,3441,4280,4381,4032,3517,3097,3034
2018-09-19,10:41:57.469,3806,4882,5310,4749,5096,5036,5094,5756,6340,6526,6091,5272,4665,4692,4887,5042,5232,5332,5486,5550,6029,6970,7691,7014,5420,4232,3005,1950,1157,517,-161,-847,-1430,-2057,-2765,-3282,-3767,-3962,-4053,-4201,-4231,-4224,-4724,-5318,-5709,-6106,-6436,-6678,-6842,-7038,-7413,-7828,-8473,-9286,-10019,-10401,-10124,-9239,-8423,-7924,-7922,-8069,-7874,-7342,-6715,-5935,-5137,-4314,-3486,-2639,-1963,-1645,-1317,-684,454,1958,3360,4190,4283,4062,3698,3004,2328,2134,2300,1937,1275,1035,1242,1878,3153,4267,4759,5220,6153,7265,8232,8698,8802,8965,9440,10107,10642,10768,10471,9722,8343,6584,5107,4061,2825,1480,391,-443,-924,-1091,-732,-1,942,1910,2751,3246,3116,2604,2012,1415,933,557
2018-09-19,10:41:58.497,299,126,-13,-154,-466,-969,-1657,-2410,-2838,-3072,-3341,-4012,-5321,-7336,-9612,-11772,-12582,-12578,-12575,-12572,-12515,-10586,-7729,-6421,-5639,-4845,-4794,-4751,-4123,-2945,-1293,414,1966,3394,4531,5198,5216,4839,4292,3793,3468,3270,3096,2420,1485,415,-486,-947,-884,-238,786,2155,3749,5378,6665,7174,6873,5935,4834,4185,4240,4561,4286,3347,2156,1294,622,-5,-337,-443,-345,-59,100,111,174,517,965,1238,1505,2201,2954,3491,3878,4004,3558,3242,2862,2030,1130,763,528,-617,-2026,-2883,-3349,-3569,-3937,-4709,-5768,-7018,-8045,-8455,-8344,-8267,-8303,-8153,-8154,-7806,-7129,-6174,-5032,-4083,-3445,-3060,-2823,-2497,-2053,-1754,-1570,-1282,-569,225,935,1296,1308,1248,1289,1523
2018-09-19,10:41:59.525,1736,1904,2412,3367,4287,4977,5407,5491,5284,4844,4214,3381,2636,2075,1577,1455,1590,1629,1888,2280,2622,3098,3414,3380,3103,2798,2859,3633,4306,3938,3550,3737,4162,4603,4923,4941,4722,4156,3741,2835,716,-657,-1323,-1624,-1791,-2216,-2440,-2439,-2570,-2933,-3655,-4736,-5909,-6475,-6187,-5196,-4584,-4787,-5216,-5462,-5356,-4881,-4376,-3836,-3380,-3080,-2872,-2698,-2586,-2545,-2585,-2730,-3151,-3655,-3669,-2928,-1629,-283,777,1595,2111,2330,2031,1752,2108,2818,3558,4364,5230,6265,7299,7909,7782,7076,6129,5573,5228,4057,2519,1754,1398,916,371,2,-79,-92,-315,-698,-963,-857,-598,-534,-411,-97,367,866,1085,1234,1405,1701,1846,1679,1415,1375,1314,1005,306,-691
2018-09-19,10:42:00.553,-1898,-3443,-5683,-8229,-10147,-11475,-12385,-12519,-12523,-12525,-11544,-9079,-6281,-3417,-511,1942,3089,3204,3045,2819,2673,2643,2431,1745,1029,679,464,295,512,901,1124,1089,849,627,824,1891,2448,1904,1341,942,516,-121,-468,400,2235,4528,5671,5399,5122,5288,5566,5469,4841,3927,3160,3274,3855,4120,4216,4238,4394,4722,4607,3820,2891,2134,1741,1440,994,542,47,-434,-912,-1271,-1397,-1384,-1335,-1325,-1522,-1767,-2139,-2452,-2505,-2588,-3481,-5263,-6893,-7479,-7353,-7049,-6738,-6424,-6375,-6459,-6055,-5102,-3477,-1468,54,759,1103,1512,2362,2886,2267,1495,1057,724,394,36,-293,-288,81,582,998,1453,2081,2743,3361,3674,3580,3355,3086,2539,1923,1334,840,745
2018-09-19,10:42:01.581,1185,1488,1659,1577,1374,1130,977,1118,1233,1399,1663,1745,1574,1347,1158,532,-472,-1751,-2810,-3116,-2901,-2989,-4567,-7238,-9369,-10002,-9041,-7061,-4557,-3765,-4332,-4579,-4568,-4551,-4229,-3328,-2403,-1739,-1308,-1164,-1162,-513,979,2383,3716,5630,7318,8797,10366,11738,12614,12705,12706,12695,12703,12703,12710,11591,8568,6338,4667,3103,1413,-845,-3479,-5543,-6491,-6368,-5205,-3571,-2437,-1537,-858,-475,-383,-978,-1415,-1477,-1276,-2225,-6140,-11466,-12388,-12394,-12402,-11304,-8249,-7801,-9252,-10833,-11560,-11665,-12080,-12493,-12510,-12525,-12538,-12554,-12221,-9894,-7668,-5698,-4168,-3107,-2494,-2592,-2450,-1490,735,3940,6621,7893,8625,9731,11176,12163,12216,12205,12197,12189,12185,12173,12171,12166,12154,12158,12155,12169
2018-09-19,10:42:02.609,11935,9307,8072,8061,8299,9409,11610,12268,12285,12236,10436,7308,4532,2264,460,-916,-1219,-324,1007,1988,2164,1494,207,-678,-869,-918,-1439,-2619,-3720,-3625,-2890,-2777,-3293,-4034,-4841,-5250,-5498,-5699,-5395,-5093,-4842,-4767,-5224,-6014,-6961,-7789,-8628,-9565,-10271,-10727,-11347,-11859,-11252,-10391,-9436,-8420,-7103,-5436,-4233,-3834,-3847,-3659,-2870,-1589,-105,1311,2447,3327,3784,3857,3755,3267,2582,1977,1563,1325,971,253,-756,-1794,-3018,-4172,-4059,-2408,-873,129,1406,2537,3113,3907,4544,4513,4088,3845,3889,4553,5329,5467,4490,2850,1584,1108,837,676,715,735,409,-94,-303,-304,32,741,1477,2545,4073,5887,7885,10086,11132,10710,10099,9499,8692,8205,7621,6352,4959,3243
2018-09-19,10:42:03.637,846,-1743,-3975,-5804,-7642,-8977,-9288,-9368,-9189,-7996,-7446,-8144,-8205,-8171,-8056,-8457,-8835,-8833,-8710,-8104,-6759,-4707,-2154,570,2891,4232,4559,4313,3863,3395,2996,2728,2480,2187,1602,631,-166,-58,1006,1979,2623,2789,2965,3295,3563,3851,4118,4336,4155,3842,3455,3146,2649,2071,1768,1496,940,260,97,-792,-2589,-3708,-4130,-4015,-3740,-3383,-3351,-3344,-3143,-2846,-2766,-2851,-2771,-2866,-3153,-3165,-2715,-2718,-2884,-3214,-3254,-3007,-2699,-2140,-1561,-1051,-308,745,1690,2172,1255,-2461,-5883,-6058,-3737,-890,1148,2204,2840,3450,4231,5399,6942,8124,8757,8735,7732,5938,3667,1949,1615,1248,424,211,893,224,-1624,-2368,-912,1799,4215,5920,6930,7567,9058,10517,10926,9001
2018-09-19,10:42:04.664,4657,849,-1531,-3095,-4022,-4177,-4436,-4925,-5220,-4942,-4044,-4202,-5383,-6841,-8030,-8471,-8215,-7563,-6552,-5118,-3386,-1791,-670,-218,-728,-1757,-2519,-2810,-2672,-1839,-752,-174,49,181,177,290,420,336,417,727,884,740,195,-460,-1156,-1444,-825,113,1078,1830,1793,3121,6065,8434,9824,10884,10825,9145,7638,6689,5567,4655,3949,3188,2101,800,-379,-1942,-4764,-7264,-8473,-8435,-7632,-6185,-4013,-1490,914,1479,1103,93,-1322,-2639,-3500,-4384,-5993,-7771,-8917,-9247,-9038,-8976,-9229,-9484,-9271,-8460,-7125,-5514,-4021,-2131,-142,2388,5387,7527,8728,9296,9354,8033,5631,4105,3966,3962,3737,4107,5392,6898,8444,9796,10342,9923,10393,12230,12009,9831,7809,6567,5800,4840,3655,2379
2018-09-19,10:42:05.692,1443,871,92,-1295,-2674,-2928,-3084,-4744,-6346,-6960,-7227,-6847,-5594,-3547,-1111,-193,-1164,-1907,-1243,-979,-1007,-1464,-1966,-2556,-3263,-4088,-4838,-5758,-7693,-11377,-12358,-12359,-12360,-12344,-10207,-7170,-5341,-3527,-1509,-150,546,514,65,-187,-351,-788,-1524,-2242,-2597,-2537,-1419,1580,4685,6912,8611,9732,10186,10156,9639,8484,7259,6469,5935,5667,5954,6561,7045,6914,5972,4170,1853,-479,-2052,-2761,-3487,-4674,-5249,-4539,-3752,-2652,-1615,-1435,-600,684,1130,1054,351,-1145,-2570,-3267,-3614,-4051,-4899,-7286,-10881,-12737,-12745,-12753,-12762,-12770,-12611,-8623,-4964,-3411,-1941,380,2863,4681,5874,6013,5514,5554,6490,7608,8708,9781,10270,9759,8445,6533,4743,3125,2220,2744,4911,5996,5354,4886
2018-09-19,10:42:06.720,4858,5093,5912,6565,6538,5998,5358,4434,2723,275,-1931,-3427,-3415,-2826,-2687,-1640,761,3420,6240,8142,8673,8163,7707,6546,4885,3505,2300,1360,371,-652,-1345,-1876,-2699,-3755,-5270,-7307,-9747,-12095,-12409,-12399,-12390,-12381,-12373,-12365,-12346,-10631,-7124,-5420,-4232,-3178,-2563,-2398,-2559,-2781,-3001,-3098,-2953,-2893,-2847,-2021,-97,1453,2397,3855,6451,8700,8931,8264,7505,7095,7178,7705,8385,8998,9211,8821,7393,6076,5764,6154,5617,2804,-21,-892,-1090,-381,833,1462,1420,855,628,534,110,-452,-1064,-1609,-2335,-3240,-4347,-5401,-5989,-6163,-6144,-6195,-6335,-6392,-6765,-7261,-7506,-8074,-9105,-9617,-9404,-9081,-9160,-9459,-9665,-9214,-7957,-6154,-4200,-2559,-1384,-649,-231,195,666,1030
2018-09-19,10:42:07.748,1268,1699,2229,2625,2729,2907,3247,3446,3855,4254,4002,3457,3282,3760,4251,4322,4164,4432,5549,6738,7777,10122,10828,8810,7110,5158,3387,2603,2573,2940,3084,3537,4465,5615,5994,5535,4726,4312,4214,4147,4040,3853,3767,3692,3195,2648,2073,1479,1352,849,-465,-2052,-2886,-3011,-3157,-3257,-2881,-2557,-3200,-4014,-3450,-1783,-514,-616,-2230,-3672,-4021,-4262,-3585,-4804,-8824,-12999,-13103,-13101,-13100,-13099,-13097,-13097,-13097,-13097,-13097,-13097,-13097,-9293,-1139,5174,10403,11954,11956,11957,11956,11960,11962,11960,11965,11967,11358,9187,7494,6026,4486,2520,727,-483,-697,167,1100,1469,1735,1763,1944,2288,2401,2117,1869,1775,1322,1190,1565,2101,2523,2787,2927,2929,2833,2717,2359,998
2018-09-19,10:42:08.776,-667,-2611,-4112,-4600,-4793,-4741,-4385,-3871,-3184,-2428,-1629,-796,246,1619,2977,3774,3940,3525,2711,1666,222,-1602,-3123,-3241,-1395,654,1207,353,-1834,-4629,-3983,-960,-9,-375,-952,-1617,-2262,-2394,-2149,-1901,-1772,-1936,-2388,-3097,-3888,-4663,-4955,-4641,-4256,-3961,-3869,-3837,-3933,-4260,-4890,-5352,-4594,-3630,-3318,-2974,-2011,-1451,-1319,-1150,-1525,-2598,-3891,-3874,-3036,-2192,-1505,-496,1423,4147,7460,9959,9451,7219,6153,6302,6721,6508,5506,4716,4236,3759,3320,2662,1690,469,-791,-1257,-869,-1572,-2607,-2628,-2007,-1257,-865,-1066,-906,42,1050,1973,2911,3749,4344,4776,5499,6417,6789,6750,6348,5318,3694,2155,651,-249,-650,-906,-943,-1014,-1611,-2750,-4009,-5045,-5757,-5901
2018-09-19,10:42:09.804,-5861,-5837,-6354,-6185,-4735,-3817,-3171,-3368,-4847,-8011,-10530,-10486,-8891,-6878,-5011,-2943,-823,1342,3561,4878,4849,3758,2748,2376,2373,1809,532,1011,2798,4481,5491,6076,5457,4427,4750,5023,5133,5565,5327,4532,5124,5588,4743,3582,2777,2224,1426,350,-334,-399,-378,-485,-639,-987,-1586,-2099,-2191,-2037,-1641,-850,-173,544,1215,1429,1492,1293,666,-186,-840,-1309,-1888,-2462,-2763,-2931,-3094,-3388,-4098,-4781,-5214,-5092,-4839,-5461,-5141,-3904,-4118,-4713,-4781,-5068,-6396,-8222,-8872,-7778,-5737,-3858,-2367,-1144,-215,491,1287,2477,3498,3346,2476,1437,322,-51,864,2514,4299,5436,5881,5924,5388,4365,3665,3892,4769,5861,7090,8169,8529,8364,8078,7322,6418,5674,4630,3347
2018-09-19,10:42:10.832,2198,1507,1118,1207,1520,1635,1456,999,653,468,376,533,1141,1810,2035,1701,890,-96,-1059,-1667,-2233,-2715,-2884,-2715,-2381,-2508,-2787,-2774,-2397,-2124,-2212,-2436,-2587,-2758,-3191,-3876,-4572,-5150,-5505,-5742,-6740,-8542,-9022,-8699,-9111,-9379,-8845,-7784,-6935,-5728,-4367,-3085,-2122,-1125,-456,385,1804,3508,5309,7252,9095,9486,9101,8731,8387,7959,7641,7340,6923,6234,5519,4847,4259,3781,3311,2681,2001,1177,430,-200,-518,-574,-880,-1514,-2399,-3670,-5397,-7467,-9184,-9250,-8361,-7256,-6245,-5588,-4965,-4052,-3890,-4757,-5043,-4079,-2609,-683,1317,2438,2843,3274,3793,3688,2820,2132,1416,340,-470,-821,-1596,-3081,-4409,-5023,-4891,-5016,-5400,-5696,-5571,-4230,-2060,115,1985,3320
2018-09-19,10:42:11.859,4421,5904,8461,12142,12415,12416,12412,12420,12415,12416,11240,8160,5513,3432,2152,496,-1086,-1142,287,1596,1677,872,-105,-910,-1330,-1622,-1706,-1618,-1596,-1076,-136,606,835,630,440,298,-25,-871,-1719,-2524,-3044,-2824,-2209,-1262,-24,1604,1900,676,-72,-219,-1453,-3965,-5631,-6204,-6461,-6587,-6397,-5153,-3541,-1705,-659,-750,-1424,-2165,-3056,-4596,-6693,-8631,-9579,-9409,-8765,-8003,-7055,-5782,-5062,-4951,-3432,-1591,242,1834,2706,3133,3981,6071,9186,11984,12235,10783,9055,7445,5975,4802,3893,3090,2394,1734,1285,1155,989,628,327,-228,-642,-464,-51,539,1046,932,726,1641,1238,602,2706,5485,6367,5569,4380,3327,2594,1949,691,-729,-732,350,1415,2083,1656,-433
2018-09-19,10:42:12.887,-1548,-822,289,1014,1601,1831,951,-1790,-5240,-9080,-12206,-12641,-12645,-12649,-12330,-9071,-6512,-5827,-6471,-7756,-9496,-10572,-9836,-8473,-6928,-5531,-4166,-2666,-1746,-1291,-1386,-1853,-1404,700,3644,5559,6789,8166,9213,9852,9989,10577,11875,12233,12246,12241,12252,11432,9427,8236,7520,6947,6066,4214,2417,1099,63,-725,-1158,-1526,-1977,-2613,-3023,-3337,-3778,-4018,-3834,-3604,-3281,-2824,-1900,-584,675,1364,1791,2095,1853,1006,492,1191,2794,4947,7169,9026,10266,11184,11163,9996,7666,4700,2101,-720,-4905,-7837,-7975,-6738,-4920,-3021,-1807,-1175,-869,-803,-616,19,943,581,-1208,-3005,-4521,-5612,-5953,-5966,-6576,-8595,-11128,-12026,-12022,-12017,-12007,-10985,-9411,-8786,-8181,-7035,-5614,-4819,-4237,-2007
2018-09-19,10:42:13.915,1706,3378,3178,2620,1696,1135,1642,2069,1991,1677,1625,2027,2444,2973,3397,3791,4324,5194,5251,4922,4825,4728,4309,3376,2171,1435,2329,4271,5931,6667,6111,4720,3188,1590,24,-1424,-3293,-4814,-5366,-6228,-6317,-3730,-346,1254,969,983,2064,3309,3523,3522,3324,1943,-291,-1637,-2008,-2526,-2788,-3350,-4331,-5235,-6810,-8205,-7995,-6691,-5629,-5193,-4789,-3974,-2585,-735,733,1432,1623,1475,1530,1991,2192,2287,2561,2864,2283,888,-124,-230,393,1217,1834,2579,3590,4317,4622,4924,5524,6226,6560,6968,7298,6986,6521,6023,4943,2634,-496,-3745,-6350,-6655,-5329,-4066,-2873,-1463,-259,391,734,1033,1359,1751,1923,1964,2107,2377,2677,3339,3684,3188,2294,1181,1007,2122
2018-09-19,10:42:14.943,4322,5507,5737,5741,4833,3165,869,-558,-1061,-1095,-901,-483,-488,-993,-1919,-2754,-2939,-2528,-2416,-2547,-2705,-2611,-1945,-824,477,1566,2466,3028,3286,3468,3592,3564,3110,2244,1287,-264,-2828,-5572,-7777,-9219,-9791,-10291,-10632,-10201,-8294,-5704,-2778,-1122,-1479,-1693,-2312,-3061,-2913,-2323,-1453,-400,232,539,1055,1363,262,-1150,-2169,-2795,-2632,-2578,-3869,-6479,-9949,-9307,-6898,-6624,-7092,-8733,-8898,-7189,-7221,-7851,-6040,-4499,-5604,-6533,-6309,-5529,-4577,-3228,-878,2322,5568,7936,9341,9519,9176,9351,10495,12015,12465,12439,12432,12427,12401,12410,12416,12418,12392,12390,12390,12377,12388,12386,12400,12383,12390,10546,5867,3636,2695,949,-1330,-3715,-6701,-9220,-10534,-11101,-11131,-10896,-10501,-10280
2018-09-19,10:42:15.971,-10374,-10442,-10160,-9060,-7049,-4303,-749,3857,8646,12210,12610,12614,12498,9869,6638,4418,2617,969,-476,-1465,-2399,-3583,-4500,-5289,-6183,-7274,-8413,-9100,-9363,-9403,-9257,-8791,-7915,-6513,-5218,-4193,-3338,-2843,-2476,-3501,-7292,-11155,-12263,-11667,-11149,-10764,-9515,-7733,-5818,-3174,-923,-699,-1019,-1277,-898,396,2574,5188,7095,8302,9526,9938,9003,8152,7645,7791,8794,9047,7964,7352,8035,8871,7800,6024,5324,5872,6039,6088,6092,5955,6068,6659,7324,7722,7311,5825,3783,2013,256,-2257,-5268,-6945,-6379,-3959,-947,1036,1408,1067,685,136,-600,-1582,-2779,-4028,-5070,-6226,-7941,-9356,-9699,-9190,-8423,-7655,-6860,-6051,-5308,-4537,-3746,-2674,-1491,-786,-644,-897,-2039,-3790,-5467,-7515,-9472,-11593
2018-09-19,10:42:16.999,-12435,-12445,-11626,-9586,-7430,-5549,-4131,-2739,-1085,371,1393,2969,4796,6044,5737,5091,5590,5979,4985,4731,4755,5028,4873,4012,2538,2171,3258,3820,5214,7437,8455,9181,9231,8900,8263,7344,6155,5019,4356,4156,4471,5418,6413,6421,4764,2409,983,708,700,965,1403,1724,1609,1114,664,803,964,1012,993,690,-720,-2586,-2992,-839,911,782,116,-461,-838,-942,-1011,-1347,-2001,-2730,-3396,-3809,-3879,-3592,-3308,-3294,-3484,-3742,-3934,-3904,-3842,-3866,-4172,-4287,-4084,-4102,-4284,-4263,-4045,-3806,-3669,-3573,-3410,-3071,-2403,-1651,-1020,-558,-92,357,633,840,1105,1173,793,237,-139,-279,-752,-2014,-4226,-7509,-11625,-12955,-12972,-12989,-13007,-13026,-13044,-13063,-13082,-13032,-9606,-5280
2018-09-19,10:42:18.027,-2229,640,2715,4852,7711,10867,11660,11651,11614,11595,11590,11567,11551,11535,10287,7977,6751,5486,4258,2660,819,-1004,-1582,-310,1615,3502,5649,7776,8609,8064,6955,6243,6003,5829,4818,4740,5674,6804,8242,9128,8445,6950,5956,5516,5158,4851,4195,3282,2266,1634,1728,1917,1554,1138,1258,1738,1801,1268,63,-1463,-2967,-4228,-4994,-5473,-5690,-4856,-3356,-2720,-2991,-3635,-4519,-5682,-7034,-9112,-11878,-12969,-12954,-12940,-12925,-12910,-12897,-12884,-12871,-12858,-12846,-12835,-12824,-12814,-12803,-12793,-12589,-6989,-499,3055,6133,9478,12288,12337,12348,12357,12372,12379,12389,12404,12413,12428,12440,12456,12467,12482,12495,12511,12472,7071,2590,4184,8347,9485,7279,3873,1554,231,-1588,-3387,-3538,-2061,-111,1072
2018-09-19,10:42:19.054,1300,755,-54,-819,-1468,-2143,-3202,-4058,-4007,-3429,-2739,-1971,-1277,-1111,-1330,-1446,-1721,-1969,-1880,-2159,-3094,-3965,-4691,-5370,-5864,-5526,-4673,-3450,-2490,-2539,-4094,-6329,-7843,-8729,-9902,-10835,-11641,-11957,-11964,-11972,-11979,-11728,-10088,-8696,-7732,-6700,-5386,-4018,-2789,-1686,-892,-389,-40,315,832,1478,2240,3113,3977,4563,4871,5259,5817,6484,7080,7781,8711,8694,7186,5214,2817,446,-436,-313,1805,5588,10862,12593,12585,12575,12572,12566,12566,12219,10712,9286,8153,7478,7051,6292,4757,2521,410,-1140,-2360,-3319,-3605,-3135,-2228,-920,449,1095,798,-48,-1081,-1919,-2820,-3976,-4945,-5512,-6446,-7146,-6687,-4916,-2801,-1056,111,277,-679,-2015,-3193,-4434,-5728,-7323,-8893,-9555,-9413,-9224
2018-09-19,10:42:20.082,-9509,-9842,-9955,-9902,-9246,-8339,-7438,-6449,-5366,-4390,-3427,-2027,-862,-622,-443,109,864,1745,2465,2867,3207,3766,4426,4607,4226,3443,2780,3716,5677,7336,10634,11678,9875,8314,7356,6584,6963,8714,10076,10244,9420,8191,7216,6531,5809,5027,4446,4068,3919,4008,3768,2842,1325,-254,-1485,-2233,-2606,-2912,-3334,-3811,-4182,-4450,-4555,-4793,-5327,-5992,-7311,-9308,-11235,-11628,-10182,-7717,-5072,-3514,-3089,-2585,-2408,-2099,-1152,-873,-1505,-1672,-1379,-1146,-896,-834,-1160,-1476,-1600,-1653,-1748,-2044,-2572,-3097,-3476,-3688,-3722,-3209,-1954,-2523,-2944,-2929,-2923,-2946,-2500,-1662,-646,351,1077,1452,1648,1846,2079,2227,2051,1630,1294,1369,2230,3495,4794,6361,7989,9934,11994,12494,11144,9746
2018-09-19,10:42:21.110,8317,7939,8329,7764,6136,4131,3182,3637,4465,4951,5111,5041,4553,3528,2068,806,282,-82,-1157,-1939,-2031,-2066,-2278,-2643,-3441,-4454,-5496,-6358,-6726,-6846,-6825,-6582,-5843,-4220,-2554,-1821,-1924,-2482,-3122,-3681,-4052,-3979,-3491,-2723,-2524,-2930,-3550,-4439,-5553,-6955,-8591,-9777,-10232,-10337,-10262,-9964,-9102,-7644,-5883,-4243,-2865,-1671,-722,-58,588,1329,1915,2400,3113,3833,4264,4466,4754,5212,5473,5713,6153,7024,8568,10207,10352,9950,10366,10573,8359,5006,3743,4715,5862,5323,3039,824,419,1330,2298,3131,4069,4193,3794,3505,3322,3146,3037,2866,2415,1764,1247,847,472,-280,-737,-433,427,1118,869,27,-811,-1715,-2686,-3536,-3836,-3777,-3739,-3416,-2677,-1506,-173,1016
2018-09-19,10:42:22.138,1077,654,442,434,63,-871,-1552,-2429,-4038,-6090,-8173,-9762,-11780,-12746,-12751,-12753,-12757,-12761,-12766,-12771,-12776,-12095,-7828,-4737,-2908,-1388,464,2105,3039,3939,4607,5395,6390,7101,7178,7337,8350,10132,11923,12145,12140,12135,12126,12132,11911,7659,3008,950,-450,-1684,-2418,-3713,-5701,-7529,-10233,-12550,-11377,-7900,-5156,-3782,-3203,-2209,-790,346,1071,1798,2914,4303,5385,6305,7781,9798,11274,12089,12106,11517,10414,9412,8385,7552,6455,5404,4627,3639,280,-3746,-6667,-6949,-4738,-2680,-870,1450,2843,2676,2063,1061,-337,-1313,-2140,-3874,-6163,-8296,-10357,-12623,-12734,-12730,-12727,-12725,-12723,-12721,-12720,-12719,-12719,-12678,-10074,-6561,-4332,-2513,-915,708,2510,4285,6409,10012,12315,12334,12290,10143
2018-09-19,10:42:23.166,8713,9355,8247,6028,4153,2693,753,-1686,-3736,-3496,-2783,-1813,130,2347,3505,3276,2768,2469,2083,1542,1353,2149,3653,4317,4076,3906,3654,3363,3356,3237,2761,1909,890,79,-520,-1237,-2011,-2907,-3807,-4410,-4599,-4468,-4245,-4067,-3924,-3713,-3434,-3175,-2851,-2427,-1911,-1480,-940,-358,71,475,1239,2141,2892,3334,3437,3270,2938,2597,2327,2219,2262,2381,2691,3156,3458,3485,3317,3020,2698,2421,2151,1821,1346,767,252,-158,-583,-1043,-1656,-2046,-1799,-1641,-2293,-2931,-3246,-3368,-3323,-3211,-3180,-3199,-3213,-3224,-3312,-3376,-3323,-3207,-3150,-3169,-3154,-2941,-2598,-2204,-1844,-1522,-1209,-1025,-946,-731,-450,-242,-91,37,136,291,473,640,809,967,1051,1144,1263,1369
2018-09-19,10:42:24.194,1515,1514,1462,1393,1380,1336,1258,1163,1121,1102,1112,1125,1086,969,882,931,940,927,959,1080,1184,1168,1651,2105,1578,968,942,1192,1483,1650,1574,1363,1069,763,487,239,-48,-308,-648,-1039,-1413,-1595,-1506,-1595,-2153,-2872,-3463,-3700,-3205,-2195,-965,149,875,1222,1424,1576,1700,1720,1776,1978,2351,2831,3386,4067,4380,4218,3910,3713,3747,3634,3435,3108,2407,1453,685,267,202,312,-40,-444,-750,-703,-692,-944,-889,-1008,-1354,-2138,-4072,-6396,-8109,-9288,-9713,-9482,-9589,-10098,-10924,-12305,-12459,-12469,-12480,-12491,-12501,-12512,-12520,-9253,-5133,-2599,-785,637,2016,3794,5927,7701,10264,12382,12392,12380,12373,12356,12351,12341,12341,12299,7125,-4010,-5627,-2550
2018-09-19,10:42:25.222,-1059,-1191,-1437,-817,1048,3073,5101,6949,8580,9699,10375,10927,11165,11103,10658,9646,8447,7682,7385,7121,6274,4814,3343,2384,1305,-1000,-3676,-5789,-6532,-5997,-5479,-5387,-5631,-5969,-6398,-7180,-7736,-8401,-9776,-12172,-13041,-13044,-13047,-13051,-13055,-13061,-13067,-13072,-13079,-13085,-13092,-13098,-12608,-7512,-2508,1763,3743,3836,4724,6230,7660,8654,7994,6844,7652,8705,10098,11806,11851,11768,8564,2342,-1752,-2938,-2185,-1065,560,1218,1850,4122,7712,11453,11849,11852,11858,11864,11882,11877,11885,11899,11910,11918,11616,9959,8701,7555,6005,4258,2705,1467,495,-103,-769,-1919,-3606,-5265,-6556,-7785,-8793,-9609,-10229,-10220,-9916,-9823,-10353,-11211,-11283,-10188,-9295,-9127,-9493,-10642,-12489,-12845,-12845,-12846,-12847,-12849
2018-09-19,10:42:26.249,-12807,-12807,-12809,-12812,-12748,-9163,-5378,-3247,-1795,-777,126,1192,2198,3005,3800,4405,4636,4572,4137,3236,2272,1592,1556,3072,5549,8753,10442,10199,10979,11533,10979,10893,11147,10889,10053,9091,8528,8637,9126,9527,9496,9299,9372,9673,9628,8887,8209,7802,7097,6085,4636,3047,1481,-35,-1430,-2601,-3657,-4614,-5370,-5764,-5642,-5304,-4633,-3654,-2839,-2033,-1589,-2125,-3516,-5015,-6083,-6635,-7176,-7553,-7353,-6843,-6341,-6084,-6055,-6180,-5909,-5240,-4574,-4289,-4432,-4412,-4379,-4536,-4639,-4228,-4000,-4671,-5183,-5190,-4772,-3994,-3172,-2498,-1952,-1659,-1471,-1148,-641,-319,-49,72,-679,-1651,-1727,-325,2760,6860,11116,12612,11792,11052,10364,9456,8095,6439,4744,3737,3773,4134,4146,3479,2551,2129
2018-09-19,10:42:27.277,2289,2512,1981,1131,340,-481,-1493,-2328,-2955,-3245,-3340,-3068,-2271,-1164,264,2564,5198,5539,4096,2436,1164,261,-479,-1305,-1610,-1093,-932,-2257,-3640,-4329,-4586,-4597,-4622,-4987,-5555,-5775,-5650,-5452,-5563,-5771,-5810,-5867,-5748,-5284,-4634,-3906,-3298,-2759,-2268,-1815,-1489,-1544,-1882,-2099,-2189,-2095,-1921,-1548,-1072,-507,21,371,485,327,-234,-832,-1133,-1874,-2174,-1765,493,4834,9253,11277,12246,12326,12312,12321,12322,12335,12319,12322,12322,11763,10790,9999,8880,7331,5685,4332,3508,2632,920,-767,-2034,-2683,-2675,-2451,-2278,-1905,-1450,-1064,-970,-1268,-1746,-2174,-2804,-3604,-4257,-4732,-5188,-5357,-5359,-5562,-5751,-5648,-5175,-4648,-4582,-5172,-6230,-7713,-9330,-10197,-10030,-9140,-7889,-6378
2018-09-19,10:42:28.305,-4857,-3720,-3019,-2871,-3201,-3761,-4070,-4200,-4312,-4218,-3770,-3270,-2759,-2116,-1351,-408,765,2103,3517,4850,5812,6578,7273,7631,7577,7199,7943,8845,8356,7403,7071,6921,6427,4976,2275,-548,-2721,-3669,-3183,-1759,-52,1645,2800,3037,3016,3146,3323,3633,3986,4610,5459,6421,7259,7540,7130,6670,6434,5835,4947,3746,2367,1049,-255,-1863,-3692,-5031,-5753,-6120,-6722,-7481,-8273,-8966,-9741,-11308,-12545,-12550,-12556,-12560,-12565,-12571,-12407,-11112,-10159,-9785,-9310,-8248,-6944,-5608,-4471,-3863,-3137,-2149,-1997,-2429,-2118,-1091,287,1582,2399,3072,4312,5746,7026,8205,9338,10269,11138,11855,12199,12215,12210,12212,12203,12199,9637,5365,3285,1996,750,652,2432,4339,6434,8026,5771,1884,-275,-537
2018-09-19,10:42:29.333,18,426,713,976,1423,2094,2991,4038,4112,3760,3683,4049,4422,4028,4043,4396,5054,5970,6338,6100,5704,4629,2786,330,-2031,-3709,-4747,-5058,-5446,-6432,-7286,-8339,-9711,-10759,-11108,-11085,-11982,-12478,-12474,-12472,-12469,-12466,-12464,-12463,-12463,-12463,-12465,-12454,-10863,-7397,-5247,-3542,-1790,-313,816,2010,3444,5165,5980,5554,5645,6377,6992,7365,7842,7891,7123,6053,4573,2722,1910,1913,1884,2121,3056,3558,3933,4496,4004,1284,-1298,-2963,-3641,-3382,-3249,-3867,-4004,-2368,504,3599,7133,11230,12419,12426,12409,12424,12428,12448,12434,12432,12446,12423,10442,7589,6094,4971,3824,2642,1332,-111,-1945,-4323,-6850,-8914,-10235,-10702,-10578,-10649,-11015,-11580,-12210,-12363,-11523,-9801,-8865,-9341,-10235,-10894
2018-09-19,10:42:30.361,-10723,-10378,-10443,-10586,-10451,-9718,-8524,-7364,-6452,-5588,-4592,-3525,-2295,-1005,77,1261,2696,4227,5814,7746,9810,10951,10550,8983,6674,3710,968,-594,-162,2190,4170,5256,5362,5194,5935,6910,7636,7681,6359,4278,2465,1040,-142,-806,-828,-611,-430,-199,418,1494,2960,4423,5296,5586,5410,4689,3467,2072,694,-388,-574,334,1370,1672,1654,1624,1544,1624,1837,1937,1995,1901,1548,1165,808,326,-189,-735,-986,-830,-574,-528,-615,-742,-1056,-1535,-2182,-2916,-3450,-3622,-4020,-4758,-5093,-5054,-5549,-6157,-6230,-6109,-6048,-6173,-6424,-6447,-6102,-5289,-4104,-2811,-1700,-969,-659,-520,-254,104,479,783,783,338,-847,-1968,-1342,238,513,173,300,860,2032,2611,2284,1945
2018-09-19,10:42:31.389,1895,1755,1176,542,24,-385,-493,0,903,1933,2828,3445,3901,4094,3922,3491,3075,2899,2988,3262,3369,3106,2822,2681,2590,2479,2142,1897,2287,2470,903,-644,-1468,-1950,-1879,-1549,-836,225,1146,1583,1839,1773,1311,735,144,-631,-1373,-1879,-2224,-2401,-2349,-1884,-1623,-2052,-2681,-3373,-4032,-4460,-4632,-4731,-4836,-5067,-5453,-6018,-6724,-7420,-7740,-7371,-6569,-5497,-4401,-3502,-2921,-2656,-2493,-2245,-1646,-669,446,1444,2253,3050,4159,6290,8173,8480,8160,7594,7189,7047,6373,5599,5500,4911,3483,2599,1742,1753,3393,4354,5113,6009,7080,7541,7260,6651,5901,5061,4275,3420,2670,2221,1933,1745,1609,1460,974,172,-673,-1234,-1711,-2173,-2596,-2923,-3210,-3572,-3958,-4431
2018-09-19,10:42:32.416,-4964,-5373,-5720,-5877,-5902,-5744,-5602,-5287,-4802,-4485,-4339,-4041,-3786,-3807,-4003,-4089,-4126,-4145,-4210,-4320,-4394,-4474,-4513,-4288,-3785,-3134,-2477,-1559,-674,-642,-906,-825,-533,-42,587,1156,1515,1788,1668,1283,934,1012,1279,1118,1398,2597,3059,2917,3482,4057,4507,4838,4578,3823,3536,4335,5986,7448,8035,8387,8960,9478,9185,7673,5455,3150,1559,832,295,-83,-169,-764,-1794,-2415,-2667,-2788,-2570,-2009,-1159,134,1547,1468,260,-895,-1716,-2265,-2689,-2967,-3279,-3869,-4324,-4253,-4637,-5758,-6416,-6523,-6285,-5689,-5169,-5015,-5280,-5828,-6536,-7256,-7894,-8221,-8046,-7485,-6711,-5647,-4211,-2625,-1332,-429,303,993,1656,2305,2884,3519,4462,5667,6934,8372,9984,11374,11930,11662
2018-09-19,10:42:33.444,10956,9991,9126,8468,7971,7312,6366,5447,4745,4190,3834,3777,3737,3541,3554,3526,2933,1938,841,-91,-981,-1850,-2414,-2648,-2825,-2937,-2729,-2992,-4476,-5853,-6890,-7528,-7522,-7177,-6637,-5853,-5166,-4643,-4074,-3403,-2710,-2073,-1518,-1101,-822,-629,-553,-613,-621,-524,-460,-424,-287,-189,-158,-106,8,249,519,711,766,858,1122,1454,1684,1779,1669,1422,1182,929,601,279,62,79,106,19,-130,-275,-352,-270,-42,233,483,692,826,837,754,558,410,781,1144,505,-212,-515,-610,-587,-660,-874,-1024,-1082,-1085,-1017,-990,-974,-901,-804,-806,-875,-919,-976,-1020,-971,-797,-648,-552,-456,-413,-341,-232,-170,-150,-97,-61,40,177,282,403,543
2018-09-19,10:42:34.472,700,870,1004,1075,1095,1065,1111,1173,1198,1226,1239,1181,1133,1135,1119,1085,1014,885,801,778,703,620,442,225,479,1121,953,87,-361,-505,-441,-243,-127,-74,-59,-115,-161,-212,-277,-316,-318,-365,-440,-473,-508,-510,-417,-317,-291,-275,-285,-295,-237,-177,-150,-136,-141,-146,-93,-38,-13,-11,6,48,74,68,26,-7,-29,-16,26,40,60,79,71,72,57,33,12,-31,-92,-147,-130,-143,-175,-173,-171,-302,-391,95,755,435,-304,-605,-595,-380,-116,-17,-17,-28,-18,10,12,25,49,28,-16,-39,-37,4,34,46,56,59,61,53,68,113,139,107,67,63,75,81,105,149,176,194
2018-09-19,10:42:35.500,185,156,165,210,211,209,235,300,339,323,305,325,338,286,214,145,84,43,-10,-41,-50,-94,-78,-62,-128,-322,-395,142,602,92,-461,-652,-665,-458,-247,-184,-195,-198,-184,-152,-141,-163,-170,-207,-204,-180,-144,-113,-99,-60,-10,6,-12,-36,-58,-65,-47,-54,-112,-139,-122,-113,-143,-186,-162,-129,-117,-121,-122,-113,-88,-41,9,65,120,139,127,156,145,109,27,-15,-38,-72,-92,-104,-102,-111,-102,-61,-53,-179,-252,271,942,584,-143,-403,-374,-165,50,96,64,87,137,131,122,178,194,149,84,39,53,97,147,181,178,176,197,209,190,169,165,177,164,119,64,4
2018-09-19,10:42:36.528,-18,16,-3,-44,-86,-101,-109,-90,-96,-104,-90,-77,-48,-41,-68,-116,-147,-94,-8,20,-11,-62,-67,-65,-56,-38,-22,-23,20,57,52,-98,-275,131,862,658,-111,-460,-481,-300,-52,61,54,67,87,100,110,72,33,7,-29,-46,-54,-21,2,18,30,4,-4,10,24,-4,-39,-59,-68,-85,-106,-133,-148,-133,-129,-111,-89,-96,-110,-149,-182,-188,-142,-134,-148,-136,-119,-131,-137,-130,-108,-73,-53,-21,-8,10,85,145,219,283,334,357,379,418,437,451,457,397,185,112,724,1259,634,-98,-319,-285,-65,142,159,102,85,84,66,50,13,-16,-68,-132,-162,-151,-117,-84
2018-09-19,10:42:37.556,39,74,91,75,85,79,82,65,24,-44,-98,-164,-232,-238,-235,-243,-236,-196,-171,-178,-171,-108,-54,-36,-21,49,71,61,67,77,79,120,160,156,126,142,209,244,247,215,194,154,146,163,179,184,178,151,127,82,-73,-194,298,889,451,-198,-443,-431,-221,19,149,175,184,180,182,201,168,148,139,114,117,218,377,583,717,906,1147,1247,1441,1652,1738,1837,1914,1878,1749,1696,1796,1389,757,201,-324,-769,-1074,-1264,-1523,-2135,-3049,-4054,-5152,-5974,-6244,-6228,-6149,-5844,-5375,-4906,-4480,-3963,-3442,-3024,-2737,-2530,-2500,-2622,-2709,-2495,-1857,-992,-123,927,2284,3579,4179,4177,4077,4067,4420,4606
2018-09-19,10:42:38.584,3873,3314,2492,937,-710,-2003,-2847,-3432,-4935,-6876,-7781,-7668,-7108,-5986,-1556,4430,8439,10278,10736,10284,9437,8678,8226,8338,8908,8982,8542,8016,8342,8781,8922,9305,10056,10048,8924,7152,5256,3345,840,-2119,-4697,-6330,-7325,-8194,-8156,-7691,-7971,-8605,-9083,-9531,-10423,-11807,-12614,-12352,-11605,-11132,-10451,-9410,-8426,-7215,-5566,-3705,-1901,-245,1031,1666,1868,2408,3479,4003,3221,2698,3215,4409,5876,6776,5999,4313,2890,1245,-1310,-4955,-7484,-2546,5866,11376,12434,12437,11801,9258,7768,6978,5864,4722,3944,3481,3053,2463,1918,1664,1643,1743,1885,2074,2590,3094,3836,4965,5109,3477,1324,-760,-2506,-3808,-5041,-6500,-8300,-9947,-10059,-9508,-9312,-9116,-9787,-10408,-10211,-9679,-9424,-9604
2018-09-19,10:42:39.611,-10072,-10515,-10154,-8718,-6731,-4715,-2854,-1408,-566,-57,400,263,-344,-386,122,777,1305,1424,1123,782,430,-297,-1386,-2206,-1532,-168,44,-529,-643,1363,4472,7262,9206,9787,9272,8527,7615,6643,5721,5161,5006,5177,5622,6289,7055,7751,8060,7827,7067,6134,5383,4448,3217,2483,2296,1823,887,-87,-665,-837,-945,-1287,-1517,-1531,-1543,-1601,-1695,-1846,-2028,-2207,-2368,-2477,-2598,-2733,-2796,-2805,-2885,-3148,-3403,-3095,-2825,-3628,-4509,-4836,-4793,-4479,-4197,-4026,-3899,-3693,-3461,-3259,-2989,-2611,-2251,-1941,-1614,-1271,-949,-591,-222,162,503,838,1126,1347,1480,1620,1770,1856,1906,1926,1896,1865,1795,1646,1520,1445,1381,1327,1317,1327,1289,1264,1262,1237,1273,1297
2018-09-19,10:42:40.639,1250,1249,1226,1228,1245,1244,1223,1169,1152,1187,1288,1408,1472,1420,1312,1134,950,781,498,147,299,867,544,-699,-1651,-2289,-2612,-2662,-2681,-2615,-2471,-2356,-2199,-1981,-1717,-1353,-980,-654,-438,-423,-629,-903,-1096,-1185,-1185,-1133,-1010,-861,-722,-653,-557,-416,-257,-161,-107,-209,-314,-374,-400,-505,-801,-1588,-2668,-3629,-4426,-4890,-4969,-4814,-4438,-3849,-3181,-2541,-2066,-1681,-1134,-459,-31,229,474,739,994,1344,1704,2141,2728,3303,3830,4313,4675,4780,4846,5322,5785,5473,4910,4786,4909,5159,5410,5501,5239,4831,4465,4081,3661,3394,3145,2791,2313,1782,1275,795,455,183,-23,-311,-575,-809,-1129,-1423,-1699,-1892,-1947,-1943,-1876,-1795,-1665,-1540
2018-09-19,10:42:41.667,-1196,-949,-708,-495,-283,-118,11,87,143,338,637,975,1139,1152,1148,980,762,610,322,-20,-563,-1284,-1940,-2505,-2945,-3166,-3337,-3637,-3842,-3995,-4211,-4309,-4160,-3328,-2072,-1713,-2231,-2812,-3278,-3473,-3447,-3331,-3164,-3051,-3066,-3151,-3168,-2857,-2212,-1485,-756,-387,-290,72,565,926,810,885,1348,2106,3128,4284,5298,5979,6712,5819,3867,1936,413,-329,-291,41,448,840,746,-60,-464,390,1293,1774,2127,2203,1730,929,146,-556,-1175,-1763,-2391,-3150,-3928,-4513,-5196,-6287,-7645,-9001,-10099,-10764,-11802,-12387,-11175,-9188,-8226,-7982,-7340,-6149,-4473,-2673,-1134,1017,3323,3939,3953,4065,3856,3794,3870,3813,4007,4297,5254,6393,7094,7587,8120,8444,8173,8218
2018-09-19,10:42:42.695,8511,8406,7663,7865,8175,8273,7824,7494,7618,7799,7372,6780,6433,5729,5244,5124,4732,4214,3842,3283,1996,123,-1700,-4201,-9214,-13354,-13355,-13354,-13355,-13354,-13354,-13353,-13352,-11588,-1352,6236,6989,5469,5252,6046,6520,6512,6047,4592,3221,2376,1626,1270,1354,1543,1796,2005,2031,1674,973,141,-569,-1100,-1678,-2252,-1728,650,2407,1399,-1532,-3679,-6306,-10726,-10912,-5291,177,1515,-585,-3057,-3421,-943,1870,3760,7718,9927,9003,7614,6179,4864,3419,1652,1079,1212,1722,1589,87,-2639,-6106,-9026,-10525,-11062,-11016,-10429,-11234,-13072,-13072,-13070,-13069,-13068,-13067,-13067,-13044,-1807,8668,10814,10096,8114,6726,7355,8959,9388,8309,6734,5720,5489,5298,4855,4497,4937,6433,8039,8418,7970
2018-09-19,10:42:43.723,7737,7605,7163,6473,5805,5514,5229,4392,2916,795,-1837,-2707,-2691,-4356,-5649,-4466,-2127,-2605,-6778,-7927,-7697,-11491,-12805,-10731,-3300,5186,10987,10517,8441,6651,5837,4831,3628,3104,3052,3673,3723,2722,1280,-567,-2317,-3170,-2922,-2602,-2706,-2302,-3170,-6615,-8216,-8491,-11742,-12515,-10011,-1737,3883,3251,1207,397,326,1245,1502,545,-299,-543,-484,-620,-1057,-1450,-1643,-1524,-1100,-392,502,1009,1074,879,849,961,1359,2405,2224,465,-2448,-5821,-7779,-8382,-9747,-9553,-5407,-503,1720,1825,2021,3090,5040,6819,7210,5913,4048,2466,933,-104,-251,396,1455,3755,6146,7421,7867,7780,6834,4654,1740,-651,-1804,-2711,-2735,-1936,-456,2697,6392,7292,5805,4432,1681,-1645,-2716,-1853
2018-09-19,10:42:44.751,156,2133,1991,1442,2002,1408,573,588,1351,1468,428,-787,-1644,-2085,-2452,-2811,-2948,-3177,-3537,-3769,-4117,-4463,-4397,-3703,-2601,-1756,-1582,-2026,-3045,-3624,-2443,1602,6067,4951,-428,-6040,-8901,-8792,-6475,-2192,2490,4361,3668,3076,2186,-270,-1636,-976,-297,-510,-887,-1041,-1261,-788,-213,-531,-1253,-1564,-2202,-4055,-7783,-11059,-12491,-12522,-12540,-12418,-10271,-8522,-7959,-7910,-8303,-8760,-8898,-7311,-3783,1428,7746,12223,12245,10989,2578,2100,4772,6330,6610,5670,6310,8215,9100,10351,12007,12044,12044,12035,12024,11542,10358,9102,8129,7275,6398,5717,4429,2708,1184,56,-848,-1837,-2067,-1620,-790,-208,1402,6565,11633,9271,-784,-10939,-13001,-12994,-12986,-12062,-2736,3022,2022,-375,-1518,-1113
2018-09-19,10:42:45.779,339,2485,3943,3457,1617,837,2458,3951,3123,1430,961,677,-898,-2554,-3344,-4447,-4643,-3538,-2397,-1571,-1065,-888,-758,-1175,-2298,-2543,-3,3897,4701,1400,-691,-5205,-11638,-11661,-5159,453,1479,1031,1271,1893,3873,6155,6019,4243,2306,732,145,895,1057,-202,-1887,-3519,-5116,-6281,-6551,-6070,-5164,-4088,-3078,-2606,-3301,-4268,-4474,-4087,-3318,-2153,-22,4067,9815,11932,4992,-4347,-11456,-12300,-11918,-2534,3319,2769,2326,2319,2456,1616,1660,2611,2956,2852,2219,1892,2297,2505,3015,4604,6365,6707,4851,1072,-1920,-2943,-2646,-1598,-633,-620,-2111,-3636,-4314,-4715,-5353,-6425,-7943,-8439,-7869,-7262,-5135,-1702,1014,-5582,-9662,-399,11405,11721,7769,4375,3095,5084,11719,12518,12523,12512
2018-09-19,10:42:46.806,12536,12445,7679,3935,2475,1021,-580,-1665,-1981,-1837,-1759,-2057,-2502,-3071,-3602,-3722,-3569,-3320,-2569,-541,2262,4331,3935,3629,1359,-9669,-12473,-12471,-6232,10666,10114,-1490,-11589,-11106,-2422,3508,4210,4930,4604,2989,2618,2560,2186,2259,2568,2006,1159,-630,-3751,-6566,-7419,-6134,-4484,-3500,-3163,-3321,-3576,-3386,-3143,-3522,-4535,-4713,-4097,-2494,-539,1690,6300,11877,12680,12687,12681,12683,12691,12334,9466,6926,4627,2473,1181,448,-662,-2152,-3852,-4894,-5784,-7098,-7927,-8045,-7690,-7449,-7298,-6965,-6156,-5283,-4049,-3045,-2867,-2999,-1872,937,4813,7930,6723,1995,-1554,-573,2085,3035,2874,1468,-2307,-5129,-6622,-5544,-531,4824,6742,5035,2131,-195,-1123,-1027,-1454,-2496,-3752,-4734,-5290,-6164
2018-09-19,10:42:47.834,-6622,-5680,-4019,-3104,-3321,-3655,-2792,-1942,-2020,-2525,-2508,-2024,-1756,-509,1769,4644,7894,9971,11516,8471,941,-5966,-3643,2329,6759,4824,263,-807,4712,12190,12526,12518,12016,6013,1634,571,4,-1134,-2502,-3627,-3751,-3012,-2478,-2557,-2759,-2645,-2260,-2264,-2945,-3366,-2138,928,6148,10039,8597,3496,-8240,-12548,-12549,-12549,-12471,-7741,-4226,-6358,-9367,-9037,-4118,1487,4226,5281,5852,5887,5684,5760,6744,7726,7395,5710,3524,2258,1454,801,-552,-1708,-2288,-2978,-3725,-4739,-5029,-4195,-2789,-1909,-1649,-1209,1103,2700,2050,-761,1361,6161,7034,6654,9174,11375,10638,8413,5824,4318,4020,2820,59,-3386,-5909,-6972,-7444,-7624,-7934,-8356,-7756,-6120,-4423,-3002,-1961,-1278,-987,-236,1554,4463
2018-09-19,10:42:48.862,8321,12230,12580,10492,3816,1693,3160,1703,-598,-554,-1643,-5575,-9225,-8336,-2553,1914,2702,2308,1419,-633,-3245,-5953,-7591,-7874,-7308,-5233,-3351,-3967,-4792,-4566,-4467,-4463,-3947,-3519,-3609,-4212,-4253,-4117,-4977,-4381,-1371,504,-1672,-2652,-912,1304,797,-3627,-6351,903,11647,12432,12357,8517,6091,9715,12394,12398,12394,12391,12383,10778,3134,-981,-2647,-4765,-6390,-6520,-5553,-4178,-3175,-3731,-4598,-4557,-3045,-1496,-258,1016,2321,5041,10651,12362,12364,10995,-5346,-12690,-12689,-12689,-8374,2746,-948,-12087,-12683,-12683,-12681,-10621,2448,8445,7999,6839,5171,4206,4532,4524,4187,3328,2201,1300,719,234,1569,2518,2333,2234,1302,193,-261,-877,-2056,-3034,-1745,4018,7339,2076,-8407,-12314,-5881,4013
2018-09-19,10:42:49.890,6926,10431,12520,12542,12144,7517,5407,5590,4574,3162,2202,1674,570,-1213,-3061,-5177,-6874,-7712,-8272,-8625,-8369,-8064,-7596,-7157,-7490,-7170,-5088,-1014,4677,9821,7870,1844,-552,-1105,-2727,-2585,605,2136,-1645,-6243,-5529,-48,4175,5489,5273,3787,1949,1123,493,-1685,-3872,-4426,-4283,-4062,-5403,-6236,-5447,-3943,-2862,-2383,-2032,-1628,-1458,-1359,-1062,-1175,-1760,-1732,-949,-598,-1575,-2829,-6401,-6877,861,12375,12693,11964,4517,3530,5225,5981,6034,5175,4438,4143,3935,3125,2171,1258,140,-679,-910,-1423,-2024,-2777,-4301,-4892,-4097,-3266,-3160,-3417,-3550,-3259,-1734,1615,6834,12273,12624,8550,-5500,-12451,-12452,-12455,-7400,2065,4855,4143,3318,2970,2246,2042,1100,1200,2252,2184,1491,1829
