2018-09-21,13:56:40.194,947,470,337,324,272,161,37,-8,-24,-36,-40,-47,-69,-64,-63,-85,-77,-44,-17,20,38,31,-28,-55,-43,-31,-32,-2,3,-5,-41,-57,-65,-78,-95,-120,-169,-212,-329,-388,125,1500,2513,1710,74,-839,-988,-914,-746,-523,-362,-336,-440,-659,-1011,-1099,-694,-276,-215,18,219,238,199,100,-73,-425,-1003,-1459,-1489,-1112,-394,112,373,508,613,814,922,962,916,822,824,819,704,503,420,535,778,1012,973,546,109,-223,-493,-410,-25,170,138,99,-49,-195,-252,-396,-672,-680,14,1127,1158,55,-895,-928,-496,152,625,651,304,-167,-411,-418,-356,-261,-203,-279,-389,-405,-400,-404,-369,-289
2018-09-21,13:56:41.221,-169,-53,-142,2,47,-204,-114,-18,-72,-39,51,97,-138,-28,23,6,-77,116,176,-52,-29,130,157,-97,189,161,113,47,11,117,32,7,90,48,-84,118,41,-5,56,32,47,35,-107,29,86,192,173,116,21,-48,-47,-166,-11,6,13,20,-44,-107,11,-32,-217,-300,386,1900,2244,1027,73,-213,-337,-461,-470,-569,-559,-449,-473,-429,-170,-220,-180,-98,-259,-238,-201,-79,-25,-188,-199,28,-18,-100,-1,75,39,55,125,151,42,166,231,163,124,70,-116,35,3,-74,-9,-88,-37,-71,-107,-125,-120,18,38,52,-57,-49,-64,-41,-46,-46,-87,-128,-35,-5,94,22
2018-09-21,13:56:42.249,-22,9,-114,-18,-10,-7,67,14,-97,7,15,-8,-2,-11,7,-60,41,39,47,75,141,92,66,126,20,-2,51,-88,4,-29,-13,40,-14,-15,-13,-84,-428,-137,1183,2517,2147,867,33,-364,-501,-546,-519,-515,-470,-473,-430,-321,-230,-325,-224,-203,-206,-185,-175,-145,-205,-118,-51,-48,-32,-66,46,58,44,97,154,197,184,145,131,179,136,31,-100,-27,27,-62,-141,-42,-18,-89,-10,-27,-106,-42,-62,4,11,-43,-53,-14,4,1,-8,7,19,0,2,37,35,46,42,36,37,24,23,29,22,10,12,0,-16,-30,-56,-30,-38,-46,-30,-33,-6,85,99,51
2018-09-21,13:56:43.277,24,19,-23,-64,-52,-63,-89,-124,-136,-116,-96,-85,-63,-67,-256,-127,620,1159,951,115,-194,-295,-227,-178,-525,-446,159,235,90,27,74,62,40,-40,-163,-860,-1056,493,726,433,233,49,95,108,55,-174,-229,-161,43,677,566,283,160,236,25,-216,-252,-245,-668,-55,30,-196,-263,-251,-331,-463,-287,-193,-13,-11,-58,-264,-496,127,-48,-240,87,137,164,36,18,-46,-113,65,179,47,53,91,2,56,65,-164,-150,140,45,145,309,266,205,206,97,-9,127,-132,-15,224,171,35,-28,-42,-125,-390,-183,205,265,119,258,535,493,-101,-985,-801,-275,192,235,73,144,111
2018-09-21,13:56:44.305,-64,-328,203,217,309,127,246,134,-70,18,-115,254,197,202,234,176,96,126,17,3,566,507,260,-164,-50,229,345,198,-80,-225,-416,-935,-281,26,-308,-328,-260,-209,-389,-329,-304,-325,-204,130,10,-138,-29,-45,-136,-125,100,119,74,-171,84,93,101,126,41,-104,120,168,-5,-127,-29,251,115,12,161,137,-21,-54,-191,-50,410,153,160,277,163,24,-9,-166,-261,12,111,-105,89,61,15,-14,-313,-213,365,513,459,74,-599,-798,-366,-8,-64,-106,-25,225,20,-12,210,109,-158,-150,-176,-8,309,244,50,46,85,71,93,176,177,152,-2,-213,323,729,450,360
2018-09-21,13:56:45.333,342,238,185,124,-57,-291,-260,-458,-840,-25,167,-115,-231,-238,-184,-287,-251,-450,-142,-91,128,21,-94,-43,-21,-3,-303,-169,21,-243,80,264,90,-39,-53,43,53,9,-26,-183,-176,10,9,-38,200,118,56,29,19,18,-18,44,46,136,123,35,-248,-33,93,74,83,65,21,-6,-326,-38,205,179,62,36,249,509,475,-256,-526,-423,-290,-298,211,74,103,247,188,146,127,107,91,44,-155,89,146,163,229,177,156,124,127,-79,84,310,393,344,344,286,329,199,-36,113,453,160,-277,-106,-156,-300,-372,-508,-323,-160,-253,-274,-274,-316,-359,-467,-133,-112,11,4
2018-09-21,13:56:46.361,-56,-77,-162,-220,-54,-142,-234,89,161,60,1,-12,36,20,-33,-253,-70,118,139,-33,-39,62,66,-1,-43,53,49,1,-48,-144,-53,102,-31,-8,122,-54,-378,168,165,85,32,-15,-17,-34,-150,-93,-70,-302,20,213,-46,-34,380,468,358,-498,-714,-467,-46,191,123,63,42,55,44,84,10,-48,141,132,33,-87,43,-157,172,77,393,271,206,153,35,12,258,497,419,354,372,342,296,216,105,-66,-74,-257,-362,-291,-383,-302,-107,-169,-251,-246,-213,-168,-527,-352,-200,102,126,-44,-102,-79,-38,-138,-265,-38,-52,-303,158,299,111,16,24,15,31,1,2,-63
2018-09-21,13:56:47.389,-162,-112,-386,124,176,184,125,73,42,34,38,-208,-394,174,48,60,381,278,145,91,20,-199,-55,-158,1,151,199,10,-108,69,75,-242,-217,-19,681,736,89,-498,-555,-339,-21,-338,-259,115,276,240,177,72,16,-112,-144,-79,268,283,69,3,158,7,-221,297,411,129,89,39,288,253,160,348,377,176,172,191,-147,158,-14,-429,-161,-257,-490,-202,-299,-755,-4,-171,-193,-83,-132,-188,-270,-466,-122,40,-112,-211,15,0,-51,-56,-49,-43,-34,-30,-33,-26,-9,-2,-1,-4,-2,10,34,24,39,49,50,59,80,93,111,120,114,98,130,187,227,228,197,186
2018-09-21,13:56:48.416,119,104,120,133,132,125,113,96,92,102,98,37,-60,277,945,1338,638,-154,-415,-313,-215,-211,-172,-154,-122,-119,-97,-89,-86,-90,-94,-87,-66,-102,-126,-121,-133,-124,-106,-146,-145,-150,-111,-104,-86,-56,-19,8,24,19,0,-31,-84,-132,-205,-238,-323,-211,-73,-111,-154,-100,-33,-21,-30,-99,-663,-826,27,583,493,267,148,97,83,90,68,105,125,136,125,104,103,91,105,107,96,90,78,70,57,50,62,52,54,106,150,163,123,73,49,-9,-23,-24,-49,-34,-17,-22,-17,-29,-28,-56,-224,-76,636,1311,994,167,-247,-351,-302,-288,-302,-294,-274,-228,-212,-191
2018-09-21,13:56:49.444,-172,-162,-139,-127,-112,-115,-128,-110,-87,-69,-69,-43,-28,-14,0,-13,34,75,103,117,103,99,81,60,16,-59,-117,-188,-195,-197,-197,-187,-156,-149,-139,-122,-131,-103,-99,-87,-80,-51,-42,-5,-17,-52,-19,-12,-25,39,37,-6,-143,-28,29,-13,-9,19,-21,-22,-58,-74,45,81,76,78,93,111,154,164,121,76,-7,29,109,31,-1,-15,-8,-23,-11,0,6,-32,-197,-110,552,1389,1312,481,-63,-277,-256,-253,-215,-178,-165,-180,-164,-139,-118,-68,-58,-31,-23,18,7,21,30,35,3,-2,38,88,114,138,170,168,187,189,200,203,151,118,67,-3,-80,-124
2018-09-21,13:56:50.472,-148,-182,-169,-172,-193,-221,-154,-180,-116,-119,-161,-100,-93,-116,-133,-80,-53,31,-14,25,-31,-108,46,37,42,36,46,-13,6,11,8,34,-14,48,32,36,58,58,64,106,142,140,61,-5,35,35,-11,13,-2,-18,-19,-34,-43,-21,-72,-37,-239,7,838,1394,845,80,-221,-287,-250,-205,-193,-207,-204,-138,-139,-112,-196,-147,-153,-62,-81,-80,-70,-79,-75,-87,-72,-57,-71,-22,35,53,86,129,145,143,135,166,156,126,46,-20,-75,-149,-191,-136,-145,-128,-125,-124,-113,-129,-143,-94,-98,-92,-70,-37,-33,-33,-57,-39,-5,16,0,-27,-50,-5,16,17,19,19
2018-09-21,13:56:51.500,23,32,12,11,11,24,4,0,22,109,147,118,79,74,19,-29,-24,-15,-19,-23,-20,-5,-14,9,-16,-81,-274,-32,854,1569,1025,206,-209,-281,-266,-343,-250,-196,-215,-210,-160,-150,-158,-128,-74,-129,-92,-36,-49,-87,-38,10,4,12,26,62,79,73,86,154,206,207,186,185,153,110,31,-33,-117,-109,-140,-156,-160,-174,-153,-183,-237,-121,-28,-67,-69,-33,-61,-58,-59,-64,-13,-20,-37,-2,-22,28,13,0,15,-7,10,0,-8,-40,-36,72,43,39,29,19,62,129,113,97,45,-5,-50,-34,-36,6,-27,-30,-8,-12,-49,-44,-7,-185,-74,674,1505,1216
2018-09-21,13:56:52.528,256,-147,-263,-288,-330,-259,-204,-208,-191,-172,-170,-130,-141,-136,-94,-52,-46,-11,-18,-33,13,2,1,-43,33,111,94,146,185,188,229,184,158,162,63,42,-10,-48,-109,-191,-182,-164,-157,-149,-139,-137,-125,-113,-107,-118,-108,-54,-27,-68,-75,-19,13,-9,-7,7,-29,1,-5,70,63,45,69,24,-15,98,73,16,-22,46,100,125,104,66,-15,120,-5,-10,5,-31,-47,-59,-65,-40,-72,-64,-22,-78,-240,116,1078,1451,712,44,-275,-212,-214,-232,-302,-225,-131,-178,-157,-163,-129,-94,-76,-49,-74,-48,-64,-33,-8,11,-24,-1,66,58,32,123,148,223,250,257
2018-09-21,13:56:53.556,225,156,132,90,-32,-124,-153,-151,-185,-250,-185,-212,-209,-149,-116,-160,-162,-154,-133,-115,-120,-122,-103,-63,-61,-33,-51,-22,-18,-5,9,33,32,42,35,53,86,85,62,23,42,68,76,119,158,118,78,18,-26,-41,-28,-37,-36,-28,-54,-51,-15,1,-6,-56,-240,-63,753,1478,1076,181,-195,-302,-273,-263,-255,-231,-207,-182,-166,-146,-143,-138,-119,-103,-76,-57,-45,-33,-33,-30,-11,20,35,49,71,91,129,167,192,209,221,210,175,133,64,-29,-114,-151,-173,-195,-186,-164,-157,-132,-121,-128,-125,-112,-110,-126,-82,-48,-41,-23,-6,1,16,31,43,26,22,28
2018-09-21,13:56:54.584,8,7,23,44,-4,-77,-32,92,136,113,131,171,66,-283,-141,239,238,167,126,89,55,35,23,12,45,40,10,-215,-277,589,1708,1654,570,-46,-292,-303,-316,-312,-285,-250,-217,-183,-163,-166,-164,-114,-130,-96,-74,-79,-80,-46,-34,-47,-26,-11,-10,31,39,94,140,187,215,184,154,143,77,-14,-91,-151,-219,-268,-290,-268,-270,-267,-237,-222,-203,-162,-154,-160,-149,-136,-122,-120,-121,-136,-72,-61,-60,-58,-37,-57,-27,-37,14,18,2,-2,9,-6,-2,0,0,0,33,130,167,158,134,109,49,15,21,29,21,16,13,21,40,51,32,-60,-269,160,1241,1970
2018-09-21,13:56:55.611,1167,273,-157,-285,-303,-314,-299,-284,-257,-214,-186,-167,-135,-110,-86,-77,-85,-46,-18,-11,-11,23,5,10,26,71,87,78,112,204,213,183,211,213,130,44,0,-85,-183,-170,-163,-160,-179,-206,-197,-175,-186,-153,-108,-170,-148,-112,-115,-113,-86,-93,-110,-82,-60,-34,-33,-66,-52,-14,-46,-18,75,47,-11,-26,8,54,-23,-38,37,14,57,138,121,12,57,103,0,-74,-61,-65,8,6,-24,-42,-21,11,-17,-115,-304,148,1269,2038,1277,350,-180,-346,-363,-358,-362,-299,-263,-227,-201,-176,-143,-108,-69,-69,-51,-26,-1,5,28,42,56,79,106,133,151,158,206,243
2018-09-21,13:56:56.639,246,263,252,235,202,121,36,-57,-104,-131,-153,-148,-162,-160,-150,-142,-128,-112,-113,-105,-93,-77,-71,-51,-61,-67,-66,-63,-64,-59,-37,-28,-16,0,-6,3,4,-3,-7,0,0,-8,-15,-11,-6,4,17,10,7,80,125,129,83,76,22,-41,-45,-34,-32,-22,-17,-10,-10,-4,-6,-58,-268,-142,746,1786,1627,613,-101,-371,-413,-452,-465,-394,-306,-261,-240,-228,-218,-212,-189,-160,-143,-126,-115,-104,-76,-67,-57,-26,-10,-1,40,70,101,129,154,171,173,195,179,118,45,-40,-106,-164,-188,-183,-193,-195,-187,-157,-132,-114,-110,-100,-90,-83,-75,-64,-66,-60,-54,-58
2018-09-21,13:56:57.667,-42,-21,-14,-13,14,32,16,17,16,11,23,32,22,19,11,32,13,16,15,9,20,17,48,105,129,94,72,46,-10,-55,-39,-32,-22,-23,-26,-34,-36,-39,-43,-149,-147,420,1208,1306,500,-59,-273,-258,-272,-268,-239,-203,-196,-168,-151,-142,-132,-120,-107,-88,-65,-50,-32,-17,-6,5,4,47,76,102,134,151,171,186,221,229,216,204,180,110,18,-36,-91,-120,-146,-161,-142,-138,-134,-117,-113,-110,-95,-82,-76,-73,-75,-68,-62,-63,-56,-34,-30,-22,-14,-16,-7,-4,0,7,5,19,25,31,16,13,34,35,22,64,102,75,52,67,42,2,-6,-18
2018-09-21,13:56:58.695,-17,-66,-66,2,39,7,-3,-62,-245,71,901,1442,820,50,-261,-287,-250,-258,-259,-255,-230,-187,-161,-160,-144,-188,-119,-23,-20,-30,-31,-16,-12,-71,-267,-119,193,247,179,174,180,197,207,183,170,165,169,113,30,-51,-88,-107,-125,-148,-158,-152,-174,-172,-128,-121,-109,-94,-99,-92,-83,-78,-64,-44,-18,0,9,17,22,27,26,28,42,44,44,40,20,26,46,56,30,5,-7,0,-1,5,18,34,52,26,-81,43,158,93,0,-20,-38,-50,-57,-78,-188,-131,32,60,-26,-244,-60,738,1469,1066,188,-251,-356,-331,-406,-334,-190,-179,-188,-167,-163,-163,-151,-148
2018-09-21,13:56:59.723,-108,-67,-80,-201,-51,62,-89,-149,87,170,131,-15,-275,140,458,392,302,257,209,164,116,45,-34,-84,-137,-167,-183,-190,-180,-182,-160,-148,-148,-221,-188,-75,-45,-49,-42,-41,-51,-49,-44,-156,-139,-83,27,136,99,50,25,20,25,14,27,-4,-455,-472,325,451,226,115,76,59,84,111,103,68,57,17,-34,-50,-47,-38,-29,-35,-50,-45,-36,-37,-63,-229,36,809,1335,770,-40,-308,-304,-255,-297,-250,-117,-95,-116,-117,-89,-81,-88,-191,-141,52,69,34,18,9,30,37,45,51,72,92,115,138,164,169,178,181,162,134,88,13,-62,-106,-175,-254,-186,-107
2018-09-21,13:57:00.751,-118,-130,-141,-146,-139,-131,-123,-112,-86,-72,-68,-47,-34,-34,-25,-14,-3,-26,-35,10,33,29,17,1,1,-5,2,1,-1,5,19,1,28,102,125,94,65,44,5,-20,-28,-34,-34,-43,-33,-41,-64,-13,35,-28,-195,177,1004,1471,730,33,-276,-280,-245,-232,-220,-204,-196,-181,-135,-118,-103,-85,-91,-100,-82,-58,-27,-18,3,7,10,16,22,34,59,85,123,147,157,153,154,133,103,65,21,-34,-98,-129,-134,-134,-136,-139,-136,-134,-122,-103,-93,-90,-95,-86,-84,-69,-59,-37,-30,-21,-8,-1,13,10,3,12,7,15,20,15,16,22,4,0,4,-1
2018-09-21,13:57:01.779,-1,-2,35,100,117,84,72,36,-7,-25,-19,-20,-42,-35,-16,-11,-27,-42,-50,-190,-145,546,1432,1371,401,-167,-325,-288,-289,-277,-259,-256,-234,-192,-157,-146,-140,-119,-111,-98,-88,-61,-38,-41,-31,-7,4,1,42,81,101,116,147,158,167,157,165,154,123,63,0,-57,-95,-126,-150,-149,-139,-139,-137,-124,-114,-105,-95,-92,-90,-77,-67,-46,-45,-28,-23,-20,-13,-11,-2,9,1,4,11,15,15,7,-2,-5,5,13,11,3,2,4,-2,58,113,120,76,60,32,-11,-16,-13,-4,-3,-15,-21,-14,-8,-15,-90,-302,-4,982,1793,1197,178,-284,-368,-351,-366
2018-09-21,13:57:02.807,-340,-324,-281,-263,-243,-206,-180,-162,-160,-126,-111,-93,-87,-63,-38,-12,13,24,19,56,76,88,123,154,158,152,146,138,113,80,13,-36,-84,-119,-144,-158,-163,-164,-154,-147,-138,-126,-119,-102,-81,-61,-33,-14,0,0,7,4,23,16,9,30,43,38,32,36,30,24,19,13,4,24,33,43,99,134,118,85,50,3,-25,-47,-32,-33,-27,-30,-16,2,-19,-38,-173,-223,420,1399,1559,581,-72,-293,-317,-329,-320,-292,-280,-262,-222,-191,-168,-154,-125,-119,-109,-135,-77,1,20,15,11,-1,8,2,27,72,88,120,143,143,123,93,101,103,52,5,-60,-104
2018-09-21,13:57:03.834,-143,-145,-225,-238,-113,-50,-63,-81,-94,-98,-84,-76,-54,-40,-16,3,16,18,-4,-10,-1,-4,-7,-5,-1,13,15,0,21,27,37,20,33,87,132,126,88,74,29,-6,-12,-19,-35,-33,-41,-37,-35,-35,-24,-73,-301,59,1066,1805,1053,90,-307,-295,-278,-299,-305,-273,-260,-230,-200,-185,-169,-143,-131,-136,-136,-60,-17,-21,-21,-2,25,48,-5,10,52,146,236,244,246,226,207,183,158,78,-16,-74,-145,-190,-170,-168,-177,-167,-180,-172,-164,-148,-150,-135,-120,-97,-90,-52,-40,-46,-31,-15,-15,-9,-28,-26,-23,-22,-20,-17,-18,-9,-5,-13,-12,-13,19,89
2018-09-21,13:57:04.862,123,100,83,53,-5,-45,-27,-16,-8,-10,-18,-19,-11,-19,-26,-157,-211,442,1374,1509,453,-193,-370,-305,-267,-259,-235,-174,-146,-146,-127,-112,-99,-117,-252,-248,-24,128,116,76,50,53,54,67,93,118,143,179,208,239,253,241,222,183,127,36,-98,-220,-176,-145,-165,-190,-208,-210,-201,-196,-177,-160,-166,-156,-109,-91,-68,-68,-82,-85,-14,10,6,-61,-196,-51,112,113,52,24,7,17,-2,-4,47,83,92,73,33,-35,-46,-22,-2,0,-18,-23,-24,-28,-87,-131,-199,-242,113,892,1571,1131,118,-296,-319,-243,-234,-241,-216,-189,-149,-150,-134,-111,-96,-65,-36,-35
2018-09-21,13:57:05.890,-30,-27,-45,-14,33,47,68,107,126,146,182,213,238,246,214,177,233,228,104,10,-61,-235,-315,-142,-115,-243,-210,-134,-148,-161,-141,-135,-129,-149,-167,-109,-65,-58,-39,-19,-7,-6,-22,-38,-22,-18,-15,-28,-115,-42,118,113,65,31,9,2,30,103,115,66,65,52,15,-36,-81,-69,-138,-59,84,87,27,-4,-167,-272,375,1333,1540,544,-204,-521,-277,-180,-294,-224,-168,-234,-174,-106,-117,-132,-113,-176,-284,-241,12,152,101,50,39,44,66,92,97,70,29,179,324,324,279,244,205,133,42,-63,-186,-289,-196,-185,-228,-205,-197,-239,-239,-102,-93,-128,-127,-181
2018-09-21,13:57:06.918,-285,-181,8,66,5,-23,-31,-28,-20,-37,-50,-56,-126,22,84,44,12,12,2,-5,-1,-1,18,-46,-150,219,308,163,105,37,-12,-117,-107,-63,0,30,1,-20,-29,-34,-125,-191,319,1128,1345,358,-196,-295,-234,-217,-233,-224,-207,-178,-138,-103,-92,-88,-133,-123,14,57,23,13,28,41,23,-50,73,188,191,202,231,266,290,244,193,323,339,215,106,-6,-101,-171,-224,-272,-228,-198,-204,-185,-158,-159,-184,-210,-138,-55,-95,-116,-109,-86,-75,-98,-100,-40,7,9,-5,-2,-6,-13,-7,-9,-25,-19,-23,-37,-50,-18,3,52,98,71,-219,-141,224,160,41,5
2018-09-21,13:57:07.946,-6,-5,-16,-44,-16,20,8,-59,-310,22,1003,1632,952,8,-336,-302,-246,-233,-227,-237,-387,-340,-6,11,-76,-69,-51,-55,-53,-51,-100,-176,-125,-177,83,297,238,174,173,205,230,256,272,283,241,153,165,142,13,-123,-127,-155,-204,-233,-203,-193,-177,-167,-167,-176,-281,-367,-62,37,-27,-71,-84,-78,-40,-22,-42,-26,-10,-23,-21,0,14,-9,-25,-28,-16,-2,-10,7,60,32,69,114,47,-32,-54,-44,-16,-31,-57,-187,-262,21,155,85,-77,-192,393,1316,1543,547,-196,-475,-304,-159,-179,-207,-186,-181,-161,-141,-117,-105,-89,-87,-78,-48,-34,-33,-34,-23,-13,-53
2018-09-21,13:57:08.974,24,140,159,143,172,214,233,228,219,113,160,229,124,-23,-131,-192,-217,-235,-256,-253,-296,-233,-92,-95,-117,-137,-127,-116,-101,-110,-97,-95,-81,-69,-27,-18,-17,-11,-8,1,14,5,3,10,15,4,16,18,8,17,73,118,81,-39,93,160,89,60,23,2,-9,-31,-17,-8,-11,28,35,-115,-128,551,1429,1427,347,-243,-386,-395,-291,-118,-106,-138,-138,-127,-104,-95,-91,-126,-122,-89,-25,21,28,28,-18,-303,-60,300,272,205,196,200,219,251,251,236,212,129,-58,-63,-8,-98,-97,-129,-177,-203,-204,-193,-171,-155,-209,-279,-132,-55,-93,-109,-127,-112,-95,-135
2018-09-21,13:57:10.001,-99,-2,-7,-44,-22,2,-51,-44,-9,-61,-87,64,107,35,2,7,19,9,5,31,58,126,108,46,-5,-56,-67,-49,-55,-76,-72,-47,-36,-40,-33,-77,-225,69,755,1312,921,152,-264,-278,-253,-259,-244,-219,-198,-167,-151,-137,-125,-105,-97,-93,-84,-64,-42,-62,-82,16,89,79,66,84,105,115,160,236,264,245,244,217,185,117,17,-72,-119,-150,-183,-215,-241,-158,-110,-123,-128,-111,-119,-115,-117,-130,-125,-96,-91,-106,-100,-76,-59,-39,-62,-56,0,8,-23,-7,0,3,-5,0,0,-30,-34,17,40,25,9,51,105,105,73,62,31,-22,-20,-25,-12,-7
2018-09-21,13:57:11.041,3,-4,12,3,-20,-34,-165,123,982,1717,1167,169,-260,-295,-252,-256,-231,-213,-192,-146,-123,-121,-112,-90,-90,-92,-82,0,28,41,42,46,38,59,74,106,75,53,195,306,304,281,258,242,194,68,-48,-4,0,-74,-134,-156,-178,-177,-157,-131,-163,-139,-76,-58,-61,-77,-75,-75,-172,-260,-31,89,56,36,30,22,17,-23,0,26,17,14,8,0,-8,5,1,-42,-21,62,107,86,52,34,-4,-32,-56,-50,-86,-163,-114,-178,-126,77,69,-102,-223,326,1154,1297,353,-209,-351,-330,-297,-319,-372,-402,-339,-346,-308,-193,-147,-159,-144,-114,-83,-160,-112,23,31,0
2018-09-21,13:57:12.057,75,35,42,61,116,153,140,172,185,196,196,180,168,106,2,-84,-164,-225,-229,-238,-257,-271,-223,-262,-300,-157,-127,-164,-102,-78,-96,-158,-66,46,44,28,17,19,20,17,6,-85,-8,-21,-244,0,187,99,12,-19,16,36,108,122,134,133,117,86,58,33,30,33,9,-16,-40,-79,-37,46,-82,-356,79,1379,2263,1385,227,-280,-382,-385,-379,-367,-335,-291,-279,-268,-251,-196,-329,-388,-42,54,-2,-57,-49,-36,-52,-6,97,129,161,195,246,205,181,358,370,278,225,191,128,28,-77,-154,-207,-241,-270,-248,-237,-220,-215,-194,-161,-166,-381,-213,62,77,1,-3
2018-09-21,13:57:13.085,4,21,27,30,-33,-115,24,132,113,92,69,50,3,1,6,27,86,116,168,156,119,81,71,80,88,78,99,116,111,107,121,143,109,-90,74,717,1527,1415,423,-67,-145,-127,-173,-195,-186,-173,-150,-109,-125,-117,-117,-84,-85,-101,-83,-66,-70,-56,-46,-48,-55,-41,-10,16,45,66,59,111,114,1,59,171,84,-51,-139,-213,-243,-267,-282,-285,-274,-266,-232,-240,-254,-242,-242,-254,-241,-224,-229,-219,-200,-183,-170,-163,-166,-127,-117,-109,-99,-86,-53,-27,-16,-35,-3,33,36,-17,-43,-76,-119,-121,-115,-107,-115,-115,-111,-118,-126,-136,-172,-324,-24,896,1715,1189
2018-09-21,13:57:14.113,202,-315,-375,-342,-359,-346,-318,-299,-276,-232,-186,-153,-150,-139,-114,-133,-127,-111,-111,-92,-84,-75,-62,-50,-17,31,62,100,140,186,183,161,169,144,90,20,-44,-67,-89,-91,-88,-68,-54,-55,-46,-35,-28,-17,-29,-25,-10,-15,12,20,57,105,134,170,192,195,199,210,230,246,265,287,308,344,365,368,348,320,280,230,199,183,173,142,140,137,128,134,107,32,-168,104,1044,1775,1169,275,-131,-211,-209,-227,-226,-210,-172,-167,-163,-145,-137,-158,-134,-132,-94,-93,-76,-68,-66,-41,-39,-40,-17,-3,20,39,51,66,103,79,67,57,30,-23,-74,-97,-136,-144
2018-09-21,13:57:15.141,-145,-143,-141,-152,-149,-143,-142,-108,-96,-98,-97,-97,-97,-84,-53,-49,-49,-38,-28,-9,-6,-33,-22,-15,-16,-17,-5,-11,-15,-19,1,68,77,36,-3,-23,-32,-71,-78,-79,-80,-81,-73,-91,-97,-107,-109,-134,-312,-92,780,1513,929,64,-278,-328,-262,-265,-287,-278,-263,-236,-216,-176,-131,-112,-105,-92,-82,-70,-61,-50,-66,-26,9,17,9,9,55,59,67,76,100,110,99,76,35,-13,-62,-111,-145,-172,-173,-170,-188,-170,-139,-136,-151,-133,-119,-100,-96,-79,-48,-4,35,42,50,63,75,103,93,60,54,98,112,100,81,70,51,31,21,22,17,18,77,138
2018-09-21,13:57:16.169,156,121,82,36,0,-22,-22,-23,-35,-33,-24,-13,-14,-5,-95,-275,195,1250,1821,984,120,-276,-339,-364,-375,-366,-446,-379,-245,-182,-160,-146,-138,-136,-130,-120,-101,-77,-88,-94,-94,-46,-17,0,1,35,95,137,152,148,156,150,124,121,110,77,17,-24,-7,0,-15,-27,-20,-23,-33,-26,-21,-13,-8,-2,29,23,3,-19,-10,-2,16,-6,-22,-33,-57,-38,-11,-15,-35,-73,-67,-46,-38,-45,-63,-73,-75,-40,16,52,7,-9,-13,-53,-100,-94,-76,-65,-44,-44,-60,-43,-55,-59,-215,-149,579,1410,1223,271,-127,-220,-208,-204,-192,-180,-167,-151,-128,-121,-106,-108
2018-09-21,13:57:17.196,-89,-81,-46,-37,-38,-40,-15,-11,-23,-8,24,55,82,85,95,110,116,130,119,92,59,26,-38,-79,-119,-134,-129,-143,-154,-138,-151,-149,-107,-86,-94,-73,-45,-25,-10,9,25,26,40,43,48,29,25,23,24,36,51,21,23,19,31,30,22,2,23,54,93,80,44,5,-35,-52,-45,-62,-57,-34,-34,-31,-22,-17,-47,-203,-75,703,1550,1245,376,-137,-270,-232,-215,-209,-195,-179,-169,-158,-162,-146,-138,-119,-103,-91,-58,-58,-50,-46,-39,-12,0,0,-9,5,49,75,87,94,117,121,103,83,55,6,-19,-57,-105,-123,-126,-133,-131,-107,-94,-84,-68,-68
2018-09-21,13:57:18.224,-79,-77,-47,-19,-24,-7,17,24,26,28,44,51,68,57,32,54,64,56,50,30,7,7,41,47,10,65,157,173,133,65,1,-37,-47,-68,51,128,52,-15,-8,-40,-51,-60,-251,-104,699,1633,1465,343,-275,-475,-430,-424,-443,-340,-227,-225,-215,-195,-190,-150,-86,-28,-17,0,-14,-80,-88,30,63,39,20,1,-26,2,93,107,98,209,207,127,138,79,0,-82,-142,-168,-180,-275,-338,-330,-306,-340,-363,-350,-305,-288,-274,-214,-207,-222,-221,-225,-156,-128,-193,-95,-10,-42,-103,-118,-158,-163,-111,-132,-186,-105,-78,-113,-127,-106,-97,-98,-57,38,40,10,23,3
2018-09-21,13:57:19.252,-54,-64,-70,-38,-54,-54,-49,-48,-20,-1,-94,-226,248,1155,1607,773,5,-199,-138,-55,-39,-8,26,58,86,122,154,154,169,226,233,230,225,223,233,252,262,267,264,290,305,309,318,343,354,349,332,319,283,232,162,82,9,-27,-69,-109,-111,-121,-115,-83,-62,-59,-37,-29,-50,-52,-60,-82,-89,-72,-47,-37,-44,-48,-39,-58,-68,-52,-46,-49,-41,-15,-22,-65,-61,-56,-19,46,63,29,3,-32,-80,-95,-83,-75,-85,-77,-82,-85,-96,-100,-118,-272,-200,513,1185,793,-171,-421,-416,-332,-307,-302,-278,-313,-351,-297,-231,-217,-160,-144,-155,-163,-145,-112,-102,-100
2018-09-21,13:57:20.280,-141,-111,0,51,79,98,108,125,162,177,153,-43,-69,237,288,135,-10,-84,-121,-142,-134,-128,-168,-139,-65,-74,-33,-30,-18,-7,-5,-32,-201,-56,158,177,129,80,63,53,61,58,29,15,-7,-34,13,28,58,67,38,24,25,50,102,119,77,37,-7,-66,-66,-53,-38,-57,-67,-52,-20,-29,-6,-81,-237,135,940,1397,749,-85,-480,-264,-154,-199,-218,-199,-208,-206,-173,-133,-90,-67,-72,-60,-51,-56,-66,-32,6,28,33,78,87,63,62,117,33,196,325,274,225,203,147,71,27,-40,-127,-185,-161,-151,-158,-147,-147,-135,-113,-115,-105,-99,-112,-102,-103,-97
2018-09-21,13:57:21.308,-70,-59,-51,-37,-18,-37,-34,-21,-8,-16,-28,-23,-32,-46,-63,-53,-33,-34,-106,-337,-31,242,190,103,80,46,-19,-39,-39,-61,-72,-63,-48,-21,-8,-15,-18,-136,-247,228,1184,1379,354,-263,-357,-299,-261,-255,-241,-232,-238,-185,-113,-89,-78,-78,-63,-59,-50,-28,-31,-14,-12,-16,-5,-52,-185,-34,285,299,240,222,215,207,172,150,87,8,-98,-167,-206,-233,-254,-266,-297,-433,-316,-143,-70,-48,-53,-74,-83,-82,-57,-45,-39,-7,-106,-76,131,136,70,60,52,57,60,69,53,50,60,68,96,161,180,158,134,125,95,91,80,76,75,73,61,-77,-195,136
2018-09-21,13:57:22.336,307,108,61,694,1461,1315,315,-87,-126,-46,-16,-10,23,12,-13,-1,92,154,194,204,177,144,91,-107,52,338,342,268,236,222,217,202,185,216,308,304,307,264,316,278,158,94,-10,-99,-163,-268,-281,-252,-354,-47,70,-31,-79,-98,-110,-120,-239,-175,-39,-117,-130,-19,-22,-77,-233,-298,-86,-79,-31,-21,-94,-99,-62,-77,-141,-178,-156,-163,-178,-155,-123,-183,-393,-21,63,-112,-211,-257,-274,-311,-344,-279,-273,-297,-317,-431,-536,-61,803,1123,192,-482,-661,-592,-553,-579,-692,-615,-541,-577,-497,-447,-461,-463,-443,-421,-377,-345,-300,-282,-260,-234,-203,-162,-135,-108,-79,-50
2018-09-21,13:57:23.364,-46,-13,-2,15,0,-30,-67,-157,-226,-244,-271,-313,-335,-343,-312,-301,-289,-313,-202,1,14,-5,6,40,56,86,107,109,112,121,94,174,256,272,250,237,236,258,260,203,270,387,385,320,280,305,355,371,357,324,334,281,270,352,385,342,297,274,287,228,173,271,223,330,998,1712,1554,637,136,-2,27,49,-166,-160,262,280,202,204,213,240,253,256,225,109,128,371,384,309,272,235,214,229,259,285,304,342,342,310,272,249,223,121,34,-59,-138,-166,-221,-284,-323,-332,-344,-350,-317,-323,-338,-332,-355,-527,-457,-139,-58,-170,-207,-197,-163,-155,-199,-145
2018-09-21,13:57:24.391,-160,-393,-299,97,96,-1,-36,-50,-41,-50,-70,-135,-147,11,40,39,51,54,29,-120,-504,-62,318,150,-18,-62,-68,-83,-60,-86,-66,-110,-268,74,869,1324,738,87,-341,-358,-296,-289,-275,-228,-206,-267,-216,-139,-129,-143,-140,-134,-123,-119,-110,-139,-133,-105,-91,-16,24,24,33,-60,-60,-61,-134,375,445,251,182,168,125,48,-6,-57,-70,-58,-51,-18,17,75,115,124,111,103,121,149,165,196,208,198,210,232,232,231,257,256,226,195,213,240,246,266,252,220,201,194,189,145,107,78,59,61,47,66,124,122,61,5,-16,-69,-92,-101,-128,-175,-210,-237
2018-09-21,13:57:25.419,-168,-166,-166,-186,-389,-320,515,1603,1528,514,-344,-631,-678,-698,-697,-666,-633,-607,-603,-571,-518,-496,-471,-452,-385,-339,-309,-278,-270,-225,-181,-152,-138,-127,-102,-76,-23,6,37,33,-3,-3,-4,-3,-36,-108,-167,-170,-158,-160,-181,-184,-167,-172,-165,-158,-143,-135,-120,-127,-132,-108,-103,-97,-82,-72,-38,-1,19,26,0,-24,-39,-33,-20,9,33,48,60,59,6,-31,29,67,52,45,23,-6,6,5,-6,51,149,181,150,108,73,22,3,0,16,46,42,21,30,32,33,-50,-266,162,1217,1885,1106,146,-273,-329,-303,-279,-259,-219,-183,-139,-98,-87,-117,-104,-75,-59
2018-09-21,13:57:26.447,-12,0,-44,-48,29,70,81,80,79,63,83,109,132,188,223,226,211,199,177,118,33,-28,-98,-93,-64,-54,-87,-101,-84,-73,-85,-91,-53,-27,-22,-2,9,-17,-45,-35,-1,6,18,19,5,-5,18,42,63,52,18,0,26,5,-1,-7,-52,-87,-8,40,-18,-30,6,-7,-63,32,192,166,31,-325,-634,-489,166,514,282,94,22,-51,-110,-235,-399,-202,206,1244,661,-209,-366,-310,-193,-289,-524,-105,122,-21,-203,29,108,0,-56,-19,4,34,92,106,98,116,111,121,125,136,160,185,217,240,253,211,196,205,161,81,7,-34,-98,-170,-154,-149,-169,-148
2018-09-21,13:57:27.475,-159,-170,-118,-97,-65,-102,-99,-58,-46,-28,-5,20,12,18,20,5,10,21,32,32,0,0,19,21,0,-5,0,7,-20,0,54,48,0,-10,39,83,80,55,38,7,-2,-18,-56,-96,-90,-63,-39,-29,-21,-63,-230,52,900,1586,1005,145,-279,-335,-304,-307,-277,-276,-267,-242,-208,-183,-163,-144,-137,-114,-98,-86,-75,-35,8,23,30,17,3,14,24,44,78,98,107,119,100,73,79,58,16,3,-7,-44,-74,-93,-95,-96,-92,-89,-70,-56,-78,-85,-85,-66,-55,-51,-44,-50,-52,-16,20,40,29,18,26,39,66,60,43,50,57,28,21,42,15,11
2018-09-21,13:57:28.503,35,25,16,74,140,134,93,67,22,-54,-71,-56,-51,-46,-41,-58,-67,-52,-55,-199,-188,476,1361,1433,494,-178,-399,-320,-307,-307,-288,-280,-267,-262,-244,-219,-191,-188,-174,-150,-128,-121,-68,-33,-27,-11,23,51,81,85,91,104,136,146,158,186,195,178,131,90,42,-22,-68,-102,-104,-86,-101,-108,-112,-86,-88,-102,-106,-99,-93,-73,-57,-41,-37,-29,-23,-28,7,12,13,16,27,8,4,4,-6,-15,-21,-29,-24,-1,1,-8,-2,15,59,134,198,152,121,80,8,-23,-10,1,21,8,6,16,41,33,13,-178,-118,656,1568,1370,382,-135,-277,-267,-292,-277
2018-09-21,13:57:29.531,-252,-231,-220,-207,-162,-175,-158,-116,-108,-109,-84,-74,-54,-48,-39,-11,-8,7,6,3,20,51,68,96,114,85,71,53,30,-9,-59,-112,-141,-167,-179,-176,-154,-123,-88,-84,-95,-121,-112,-93,-89,-60,-49,-43,-52,-51,-41,-28,-27,-16,-8,13,32,14,-15,-8,2,13,-5,-18,-8,-14,-27,-23,-8,1,6,-25,-27,37,105,101,58,9,-46,-73,-80,-94,-89,-70,-84,-87,-71,-88,-130,-342,-56,974,1864,1316,308,-263,-391,-395,-415,-394,-362,-329,-302,-257,-216,-185,-173,-161,-149,-136,-121,-90,-62,-52,-44,-27,-34,-15,28,52,77,106,135,150,112,132,117,81
2018-09-21,13:57:30.559,75,33,11,-30,-19,6,24,44,26,-6,-55,-110,-138,-136,-71,7,53,72,81,105,111,67,-8,-2,46,106,146,133,98,60,46,40,-1,-94,-176,-134,11,208,404,361,230,182,210,277,233,196,242,202,157,155,142,118,100,109,98,49,-9,-37,-15,-406,-695,864,2621,2360,884,40,-289,-370,-411,-440,-457,-436,-400,-388,-391,-378,-428,-531,-302,-131,-86,-86,-97,-97,-76,-61,-87,-182,-194,-9,186,175,109,115,136,139,146,127,86,17,-46,-99,-177,-215,-221,-229,-241,-243,-251,-244,-243,-250,-245,-235,-231,-242,-255,-255,-216,-203,-188,-168,-161,-165,-174,-249,-560,-367
2018-09-21,13:57:31.586,50,57,-49,-126,-149,-143,-125,-46,34,43,60,-67,-268,88,307,191,75,24,-3,-5,-8,8,21,26,-112,-104,602,1343,1053,-58,-310,-222,-130,-47,-17,-1,-12,-45,-58,-20,124,155,110,78,87,71,40,6,-85,-154,65,216,192,183,200,231,234,200,134,173,169,163,173,32,-84,-144,-245,-330,-342,-315,-306,-266,-235,-217,-178,-158,-206,-51,79,109,200,180,107,66,82,98,-70,-82,205,198,187,231,247,205,100,-36,-46,-52,-92,11,126,171,164,157,65,33,62,59,126,171,174,144,116,113,139,141,19,-113,363,1219,1389,360,-329,-351,-289,-208,-194,-180
2018-09-21,13:57:32.614,-176,-163,-136,-131,-119,-105,-90,-100,-211,-193,-97,-231,-215,-130,-286,-281,-202,-110,-101,-53,50,37,12,53,85,85,77,35,-99,-221,-322,-390,-425,-460,-490,-469,-427,-414,-397,-384,-370,-333,-307,-299,-241,-171,-131,-152,-138,24,79,28,-42,20,28,-50,36,98,30,90,138,143,223,254,214,199,156,70,39,16,-4,-46,98,188,141,100,91,68,-102,-47,571,1365,1252,199,-214,-265,-210,-194,-203,-193,-181,-157,-183,-145,-6,94,18,-22,126,129,-26,-25,-19,-205,-18,151,161,162,245,289,293,290,290,310,334,330,310,270,207,117,30,-28,-70,-114,-135,-156,-154,-151
2018-09-21,13:57:33.642,-105,-63,-73,-83,-71,-54,-69,-96,-108,-92,-51,-8,40,69,88,121,81,-41,-189,38,87,-103,-130,-39,43,97,89,88,52,44,58,36,31,26,-52,-3,5,-43,-62,-104,-313,-111,813,1575,1075,58,-380,-501,-432,-375,-305,-292,-283,-235,-201,-215,-247,-233,-217,-142,-23,85,116,64,34,27,-3,-49,5,104,69,110,251,243,225,187,169,136,60,17,-32,-157,-257,-269,-271,-195,-184,-238,-237,-117,-91,-122,-90,-72,-29,-57,-122,-145,-135,-123,-117,1,111,55,4,-64,-218,-142,74,87,71,125,99,101,90,45,-77,-19,12,-27,-23,14,42,49,26,33,53,23
2018-09-21,13:57:34.670,-165,-20,804,1549,1172,137,-198,-266,-222,-174,-267,-218,-180,-305,-227,58,161,99,92,91,42,-83,-246,-137,-7,80,-4,-3,52,32,13,33,20,52,202,227,134,95,174,123,-58,-224,-329,-421,-323,-226,-283,-326,-337,-328,-344,-304,-252,-230,-248,-228,-192,-202,-177,10,80,63,40,5,-26,120,212,178,69,-72,-117,19,17,69,146,190,135,54,27,-28,-93,-119,-122,-105,-106,-104,-33,6,-4,1,-99,-226,336,1398,1837,835,1,-136,-165,-215,-247,-225,-234,-226,-189,-137,-85,-158,-282,142,270,129,11,-54,-29,-45,-100,-124,-132,-50,97,139,221,308,294,283,298,308
2018-09-21,13:57:35.698,233,140,-14,-52,-99,-173,-231,-265,-265,-241,-214,-189,-178,-160,-129,-119,-110,-107,-96,-113,-182,-115,-10,-7,-20,-42,120,176,89,0,-47,-38,-35,-52,-138,-81,114,200,195,184,158,111,56,11,-3,-8,0,-16,-10,-3,-11,-15,-159,-221,430,1310,1409,445,-98,-265,-246,-192,-173,-147,-179,-341,-329,-14,30,31,7,-87,-192,-133,-81,22,-161,49,332,262,180,180,220,262,302,316,318,314,296,252,165,56,-49,-119,-174,-210,-226,-240,-264,-283,-289,-283,-256,-245,-220,-203,-167,-114,-65,-19,-2,-11,-37,-66,-15,41,62,36,17,14,11,-13,-48,-61,-80,-94,-61,-34
2018-09-21,13:57:36.726,-8,0,14,29,25,25,25,47,48,37,35,26,11,-3,-56,-271,-158,696,1554,1251,125,-343,-483,-449,-399,-348,-294,-208,-136,-79,-81,-117,-146,-172,-183,-167,-150,-137,-101,-58,-30,6,57,99,144,184,224,260,285,286,255,174,104,54,-33,-144,-239,-322,-366,-380,-383,-348,-328,-293,-244,-197,-158,-136,-110,-92,-66,-59,-59,-60,-57,-33,0,7,20,25,45,53,41,32,10,-13,-16,7,96,181,194,171,143,120,91,101,142,162,154,120,46,-36,-93,-125,-153,-336,-401,385,1483,1529,461,-121,-318,-322,-283,-230,-175,-134,-108,-118,-139,-160,-156,-156,-155,-139,-137,-144
2018-09-21,13:57:37.754,-162,-156,-125,-77,-14,39,84,133,190,237,262,284,283,277,261,241,197,112,15,-62,-94,-108,-107,-94,-81,-70,-65,-37,-32,-32,-22,-33,-33,-45,-39,-13,0,-8,1,6,-17,-64,-119,-148,-163,-168,-157,-139,-120,-56,32,64,76,76,82,71,60,43,48,44,25,4,3,18,13,-5,-70,-242,119,1020,1512,740,-61,-281,-311,-256,-253,-233,-185,-168,-167,-176,-151,-147,-146,-132,-110,-84,-65,-57,-46,-18,28,40,66,99,136,183,221,268,295,274,277,266,225,175,111,29,-59,-125,-164,-190,-184,-156,-157,-163,-169,-179,-176,-154,-125,-121,-121,-117,-117,-117,-111,-105
2018-09-21,13:57:38.781,-86,-61,-35,-21,-21,-16,-2,6,5,1,2,10,16,48,114,147,137,88,37,-60,-47,57,102,69,70,58,-17,-243,-146,190,212,30,361,1185,1822,1182,206,-289,-558,-728,-415,-30,57,-22,-144,-206,-207,-198,-174,-170,-175,-190,-195,-209,-133,-26,-50,-70,23,64,65,101,155,206,231,233,243,241,192,149,85,0,-88,-166,-191,-203,-201,-215,-234,-226,-201,-166,-136,-136,-114,-100,-110,-122,-106,-93,-108,-97,-71,-66,-73,-63,-114,-196,-25,92,42,-122,-121,-73,-35,50,24,-22,-1,39,21,-35,-15,38,37,16,11,-25,-70,-36,58,79,39,-4,-111,-245,200,1039
2018-09-21,13:57:39.809,1279,324,-330,-427,-367,-298,-261,-195,-144,-121,-69,-16,21,49,74,80,84,12,-27,76,124,109,84,62,35,6,-23,-1,46,17,63,196,248,221,201,172,118,73,19,-63,-140,-178,-202,-218,-203,-176,-193,-223,-298,-454,-343,-187,-136,-175,-209,-208,-178,-126,-75,-11,42,83,119,127,151,138,104,75,55,41,28,21,5,-9,17,105,172,179,170,190,180,148,128,120,109,100,70,40,12,1,4,-61,-195,249,1205,1724,885,53,-232,-256,-186,-133,-75,-6,-27,-91,-154,-188,-208,-214,-235,-253,-281,-309,-286,-245,-181,-79,6,90,168,223,275,316,321,262,196,133
2018-09-21,13:57:40.837,83,29,-30,-99,-192,-290,-379,-405,-402,-394,-373,-331,-275,-227,-176,-120,-59,-2,26,52,68,77,75,44,19,22,44,99,143,187,233,249,233,211,190,166,131,103,85,59,41,15,7,71,121,147,138,109,44,-47,-100,-110,-87,-58,-44,-57,-47,-31,-50,-165,-323,116,1056,1475,669,-87,-257,-289,-279,-291,-332,-361,-357,-352,-346,-324,-294,-264,-261,-251,-211,-169,-93,4,94,160,190,210,211,209,201,190,194,202,208,178,148,158,176,128,48,-62,-160,-223,-240,-195,-122,-47,14,57,83,83,58,-13,-78,-132,-180,-210,-204,-182,-152,-96,-18,57,128,171,181,200
2018-09-21,13:57:41.865,221,209,184,137,83,23,-17,-22,4,8,-36,-91,-131,-208,-238,-243,-223,-197,-166,-145,-107,-50,-15,-10,-142,-365,180,1414,1916,890,47,-337,-467,-453,-397,-358,-359,-327,-286,-236,-173,-97,-32,2,0,-26,-53,-80,-95,-115,-136,-134,-104,-55,19,93,144,216,292,339,341,318,267,190,85,-54,-192,-284,-356,-393,-394,-396,-382,-359,-347,-334,-295,-258,-218,-185,-166,-172,-147,-121,-93,-72,-41,-6,10,30,80,106,118,158,179,184,183,197,199,200,234,307,353,343,283,237,165,122,85,61,63,74,99,110,111,135,134,59,-123,122,1007,1646,1001,44,-262,-342,-318,-307
2018-09-21,13:57:42.893,-300,-288,-265,-222,-213,-198,-190,-177,-165,-134,-128,-118,-79,-64,-49,-25,-2,46,37,19,57,103,151,162,177,190,160,135,116,33,-69,-153,-228,-272,-282,-301,-314,-275,-233,-220,-197,-167,-151,-145,-126,-81,-55,-36,-14,-7,17,33,59,85,89,107,126,125,106,111,109,93,94,117,155,181,243,270,238,188,144,94,12,40,159,162,106,69,60,80,76,53,-32,-237,101,1025,1685,1015,88,-293,-373,-311,-295,-289,-274,-251,-265,-266,-247,-227,-222,-216,-193,-182,-173,-166,-160,-135,-101,-71,-48,-37,-7,37,86,115,159,185,187,182,159,123,47,-58,-159,-240,-289,-341
2018-09-21,13:57:43.921,-328,-324,-339,-340,-339,-308,-297,-290,-270,-241,-223,-202,-155,-132,-122,-86,-53,-20,7,53,102,81,80,104,119,99,122,141,137,187,278,315,274,251,218,169,123,113,125,127,84,30,20,16,-3,-61,-260,-58,822,1609,1099,35,-281,-348,-278,-273,-283,-193,-114,-94,-113,-109,-101,-96,-71,-48,-29,-21,-38,-17,7,-6,0,27,42,49,72,89,88,133,158,150,137,128,104,56,-26,-120,-191,-227,-227,-216,-179,-137,-105,-82,-85,-57,-65,-109,-96,-82,-74,-86,-117,-114,-73,-114,-139,-93,-70,-87,-114,-106,-98,-119,-124,-119,-125,-121,-94,-95,-99,-26,19,-26,-62,-73
2018-09-21,13:57:44.949,-107,-145,-129,-105,-105,-101,-110,-131,-140,-103,-75,-118,-374,-174,844,1809,1370,318,-155,-336,-315,-264,-199,-144,-124,-118,-121,-125,-126,-130,-141,-172,-191,-169,-145,-123,-112,-101,-83,-82,-27,55,117,162,226,298,338,354,346,321,286,217,135,78,23,-32,-59,-40,-18,-9,-3,-15,-18,-5,-2,-16,-37,-58,-96,-105,-89,-42,4,39,67,89,81,16,-29,-64,-151,-215,-190,-133,-116,-27,70,181,243,259,259,263,240,164,104,44,-5,-47,-82,-99,-134,-127,-128,-125,-282,-259,489,1361,1271,203,-266,-304,-264,-222,-189,-148,-93,-69,-99,-195,-111,-81,-222,111,306,188,86,48
2018-09-21,13:57:45.976,38,58,90,114,134,140,136,141,143,138,140,157,172,176,165,160,118,35,-54,-148,-217,-248,-286,-295,-293,-290,-300,-317,-338,-259,-175,-135,-169,-210,-126,-4,86,158,156,104,26,-94,-155,-126,-153,-113,-74,-56,-71,-82,-76,-9,35,78,92,142,195,207,253,275,239,177,115,72,11,-34,-66,-117,-303,-217,595,1461,1272,115,-360,-462,-421,-351,-287,-235,-183,-194,-218,-219,-136,-167,-222,-161,-213,-271,-210,-33,71,90,113,170,184,176,195,228,223,180,165,166,150,80,-14,-96,-168,-255,-334,-382,-398,-397,-384,-332,-250,-203,-182,-167,-158,-108,-19,37,77,111,118,89
2018-09-21,13:57:47.004,-33,40,176,220,210,245,261,236,223,201,154,77,58,68,39,0,-21,-49,-103,-118,-122,-130,-138,-154,-186,-182,-178,-132,-78,-189,-171,571,1378,1116,-50,-535,-528,-272,15,63,3,-59,-141,-226,-296,-258,-190,-193,-202,-171,-137,-96,-73,-55,-51,-47,-27,55,209,364,490,566,608,594,558,500,419,323,229,115,6,-74,-148,-199,-241,-296,-316,-296,-232,-125,-1,91,82,-2,-96,-154,-186,-188,-202,-232,-248,-225,-181,-115,-20,86,148,182,210,237,202,100,52,20,-35,-108,-166,-221,-291,-321,-314,-328,-318,-268,-204,-133,-55,17,48,-42,-153,407,1387,1643,688,20,-148,-189
2018-09-21,13:57:48.032,-193,-203,-181,-153,-163,-181,-151,-85,-38,-2,34,68,65,71,93,119,150,179,213,224,241,277,306,352,381,374,340,269,232,198,159,119,11,-71,-76,-115,-66,-84,-189,-286,-404,-548,-543,-457,-420,-384,-337,-303,-228,-161,-145,-114,-57,18,73,131,166,161,140,100,56,17,22,73,122,153,157,136,91,18,-25,-67,-86,-91,-70,-1,64,96,58,-13,-241,-323,286,1090,1026,8,-470,-521,-398,-264,-146,-39,16,12,-38,-81,-85,-80,-99,-127,-168,-195,-197,-221,-236,-228,-234,-201,-152,-83,-11,49,120,198,266,310,334,335,297,257,195,103,17,-65,-151,-163,-137,-147
2018-09-21,13:57:49.060,-147,-193,-223,-238,-234,-224,-229,-213,-170,-120,-71,-37,8,82,134,154,139,108,79,74,68,65,68,59,25,39,60,87,86,106,109,71,18,-5,-23,-56,-125,-210,-264,-298,-309,-312,-441,-449,201,1024,1034,90,-373,-403,-315,-173,-98,-62,-67,-80,-92,-109,-109,-78,-50,-17,16,27,24,12,13,43,88,118,144,191,224,252,263,270,262,264,249,221,176,94,5,-85,-186,-239,-232,-193,-128,-32,58,132,169,161,132,73,16,-15,-59,-116,-148,-158,-158,-140,-113,-75,-32,-8,6,25,29,16,28,39,36,69,131,166,153,108,90,29,-44,-109,-194,-265,-218,-136
2018-09-21,13:57:50.088,-78,-58,-65,-64,-125,-342,-38,1067,2092,1674,668,101,-206,-309,-338,-354,-374,-389,-383,-359,-347,-315,-247,-162,-79,0,60,85,31,-35,-68,-70,-106,-145,-151,-119,-66,0,71,111,118,108,133,151,146,112,76,21,-19,-45,-52,-75,-96,-102,-65,-38,-51,-74,-96,-113,-122,-109,-78,-28,27,80,110,90,36,-1,-32,-45,-62,-67,-69,-84,-30,105,180,223,253,268,252,237,216,165,126,84,48,0,-46,-54,-69,-172,-383,-20,996,1614,892,97,-97,-152,-150,-136,-97,-45,-3,19,53,73,71,61,24,-9,-33,-60,-89,-106,-107,-106,-96,-81,-50,-19,15,60,114,161
2018-09-21,13:57:51.116,210,230,208,147,96,5,-93,-193,-275,-325,-377,-415,-421,-402,-374,-328,-289,-268,-243,-198,-197,-200,-176,-129,-67,-7,21,13,-15,-56,-84,-116,-149,-160,-171,-185,-194,-139,-43,18,28,-5,-32,-79,-110,-127,-172,-194,-216,-236,-238,-222,-175,-155,-239,-476,-63,1035,1702,938,24,-327,-421,-376,-314,-291,-301,-331,-343,-353,-370,-383,-396,-366,-306,-238,-130,-24,46,114,186,250,268,243,214,177,156,172,188,185,169,145,106,48,-54,-144,-197,-229,-252,-257,-231,-170,-99,-2,85,150,178,194,209,196,175,141,110,91,86,125,158,169,180,201,209,217,232,244,261,344,412,415
2018-09-21,13:57:52.144,362,301,243,179,126,83,58,18,-11,-55,-96,-99,-79,-79,-205,-180,533,1441,1423,399,-112,-226,-279,-325,-371,-375,-362,-340,-315,-304,-287,-261,-267,-232,-167,-104,-18,45,85,125,157,198,220,248,263,274,309,353,368,377,376,350,297,230,127,21,-58,-77,-51,-8,28,23,-16,-61,-98,-130,-178,-225,-304,-254,-206,-220,-186,-123,-69,-30,7,39,69,74,42,10,3,-10,-32,-9,26,31,-18,-88,-142,-210,-224,-243,-253,-239,-223,-175,-143,-120,-94,-53,-130,-278,231,1180,1497,566,-88,-299,-321,-297,-294,-293,-284,-278,-259,-237,-220,-199,-179,-144,-99,-53,-22,20,99,148
2018-09-21,13:57:53.171,173,163,137,84,48,53,94,125,123,95,68,48,24,-55,-54,-85,-118,25,58,15,-5,-17,-35,-146,-310,-254,-262,-313,-142,-108,-174,-263,-289,-268,-238,-203,-156,-110,-60,-45,-52,-41,-12,-6,-27,-9,-4,-26,36,98,110,83,78,21,10,35,24,-12,-53,-45,-21,25,107,168,170,-9,75,796,1519,1161,142,-295,-444,-376,-303,-199,-91,-10,69,135,170,166,138,67,9,-16,-37,-55,-68,-69,-88,-102,-101,-90,-80,-46,-22,27,92,133,170,202,224,233,231,206,135,61,6,-36,-60,-55,-30,-20,-14,-35,-64,-79,-81,-91,-83,-59,-28,-18,9,40,40,37
2018-09-21,13:57:54.199,33,-4,-49,-108,-100,-80,-94,-107,-117,-127,-75,11,64,58,62,56,0,-24,0,30,51,24,3,-38,-90,-88,-75,-171,-315,172,1025,1260,346,-300,-385,-335,-240,-191,-158,-151,-191,-107,-19,-27,-73,-94,-99,-83,-53,-44,-22,4,29,20,8,7,6,60,151,227,310,373,383,325,242,171,87,-25,-155,-226,-264,-257,-210,-146,-79,-39,-3,26,64,50,11,1,-6,-19,-34,-48,-53,-75,-68,-55,-69,-72,-47,-41,-13,11,32,38,50,63,151,176,138,79,18,-56,-121,-163,-174,-191,-210,-211,-208,-193,-171,-150,-186,-404,-305,521,1379,1113,137,-235,-368,-297,-224,-189
2018-09-21,13:57:55.227,-145,-140,-146,-157,-157,-159,-182,-216,-229,-214,-177,-88,-3,69,126,196,242,273,282,254,208,175,183,187,189,181,134,87,34,-11,-30,-58,-88,-109,-99,-69,-76,-70,-72,-89,-109,-117,-110,-137,-153,-158,-149,-122,-83,-66,-87,-99,-73,-26,34,114,160,151,95,23,-39,-50,-61,-56,-45,-20,10,30,70,116,176,213,232,202,122,75,29,-62,-271,-468,20,958,1178,267,-361,-526,-552,-501,-423,-346,-269,-182,-104,-55,-3,58,100,116,123,109,68,49,46,23,7,0,14,39,61,82,116,135,138,146,136,128,142,153,173,158,110,55,5,-26,-40,-57,-72,-105
2018-09-21,13:57:56.255,-142,-185,-219,-248,-245,-200,-140,-54,79,184,235,241,155,78,59,-44,-194,-257,-137,-60,-62,-28,-17,-44,-104,-215,-241,-199,-138,-131,-119,-86,-63,-57,-30,-14,-11,5,-59,-263,58,1012,1718,1089,119,-266,-389,-355,-347,-337,-316,-302,-283,-234,-151,-82,-24,35,57,73,88,93,107,77,39,7,-24,-34,-19,11,54,107,173,233,274,312,338,358,342,278,191,127,78,-7,-85,-151,-191,-217,-256,-283,-285,-276,-262,-223,-203,-168,-122,-94,-75,-38,-14,1,28,35,31,30,38,31,30,51,124,165,155,117,64,-9,-66,-81,-73,-76,-92,-88,-97,-84,-36,30,62,-119
2018-09-21,13:57:57.283,-80,684,1998,1770,700,149,-115,-215,-257,-245,-249,-229,-199,-194,-184,-154,-140,-152,-186,-220,-242,-274,-302,-307,-302,-258,-218,-159,-79,-8,74,175,217,170,139,205,234,208,156,68,-26,-76,-133,-213,-256,-181,-115,-118,-238,-326,-248,-147,-27,-26,-80,-106,-119,-116,-78,-45,-20,-18,-32,-43,-42,-33,-21,-26,-53,-53,6,85,120,109,80,72,-29,-134,4,147,107,92,112,103,42,-55,-28,-48,-282,-46,866,1603,1188,132,-251,-430,-626,-493,-132,-67,-139,-153,-168,-148,-147,-129,-105,-108,-118,-55,-24,4,-33,-42,132,184,174,164,152,106,178,265,113,166,487,504,318,4
2018-09-21,13:57:58.311,112,220,81,-51,-183,-159,-93,-353,-449,71,50,-331,-177,88,24,-81,-165,-193,-93,-181,-445,-88,-72,13,-62,-67,165,37,-53,-61,-3,34,13,-34,-73,-118,-162,-186,-166,-157,-144,-119,-72,-83,-101,-51,-7,-188,-277,-23,516,591,-481,-942,-857,-566,-350,-377,-511,-435,-45,133,136,166,255,329,388,385,302,332,355,524,571,511,426,376,386,396,304,218,366,657,745,628,598,502,371,218,26,-297,-237,-83,-227,-259,-238,-273,-286,-279,-277,-227,-199,-218,-332,-256,49,33,-18,-43,-40,-43,-48,-76,-83,-124,-213,-116,-92,-45,111,115,49,-47,-162,-22,31,-43,-139,-3
2018-09-21,13:57:59.339,25,-37,-133,-146,68,71,-150,-139,332,1025,1293,348,-211,-291,-571,-88,122,-72,-116,-58,-66,-129,-113,-62,-144,-527,-20,288,127,7,0,31,54,69,63,-51,64,310,309,304,324,311,307,287,275,210,85,18,-92,-176,-222,-230,-252,-263,-253,-244,-227,-173,-150,-123,-100,-92,-86,-85,-88,-105,-120,-128,-117,-87,-87,-71,-68,-44,-7,27,98,166,183,159,99,11,-123,-171,-214,-249,-246,-249,-259,-265,-291,-299,-265,-266,-286,181,961,1316,547,-263,-389,-309,-205,-238,-301,-328,-352,-364,-372,-369,-341,-311,-310,-311,-312,-298,-243,-152,-40,62,156,238,307,363,406,446,461,455
2018-09-21,13:58:00.366,410,310,261,271,215,156,55,-81,-163,-203,-241,-250,-199,-190,-136,-80,-92,-71,-14,6,11,32,66,77,78,85,105,130,123,88,62,-20,-80,-56,-104,-126,-20,8,123,221,223,174,156,235,266,146,37,202,293,223,134,55,-68,178,866,1307,660,-274,-466,-357,-166,-102,-103,-98,-92,-88,-76,-56,-54,-63,-81,-91,-89,-71,-61,-37,-17,0,41,77,91,105,112,125,156,166,165,171,204,253,280,258,190,114,18,-106,-211,-283,-325,-326,-305,-262,-184,-106,-42,13,58,38,-7,-47,-88,-138,-184,-216,-217,-233,-236,-236,-244,-247,-244,-190,-98,-53,-55,-39,-27,-51
2018-09-21,13:58:01.394,-61,-43,5,65,88,68,36,4,-7,-41,-226,-483,-54,1028,1554,773,68,-93,-149,-156,-155,-127,-71,-19,27,85,139,193,210,198,158,95,37,-12,-54,-92,-103,-121,-126,-79,108,222,209,345,419,283,107,-52,-142,-205,-343,-379,-501,-505,-433,-453,-462,-417,-310,-210,-155,-42,71,139,179,203,184,127,72,18,-23,-29,-36,-22,-15,-43,-104,-152,-155,-92,72,212,305,318,260,160,61,-45,-152,-211,-234,-227,-187,-132,-83,-25,-2,-121,100,1038,1934,1554,443,-8,-214,-289,-353,-400,-449,-482,-496,-482,-448,-428,-391,-322,-245,-167,-108,-16,73,142,172,194,225,230,234,214
2018-09-21,13:58:02.422,225,253,227,197,153,112,58,10,-48,-125,-181,-203,-209,-215,-198,-154,-87,-2,78,133,154,152,135,106,49,-4,-40,-43,-24,-19,17,-65,-44,105,187,246,293,303,327,265,23,15,144,34,-201,-335,-367,-375,-374,-397,-445,-463,-450,-386,-293,-165,-206,-207,474,1437,1661,752,133,-48,-82,-73,-103,-133,-139,-140,-151,-169,-170,-183,-189,-156,-141,-110,-74,-31,14,28,42,39,19,-7,-9,12,47,92,132,176,225,291,301,283,238,169,66,-44,-146,-210,-277,-328,-360,-391,-392,-392,-374,-355,-318,-279,-214,-134,-59,10,59,97,137,151,130,120,132,129,146,190,206,189
2018-09-21,13:58:03.450,162,127,81,36,-16,-41,-85,-109,-84,-63,-22,4,26,4,-220,-169,599,1402,1101,91,-276,-352,-294,-252,-240,-205,-214,-277,-248,-78,57,58,18,53,112,137,160,110,-1,134,438,412,220,118,60,33,53,75,83,49,23,-50,-24,-53,-100,-142,-161,-171,-166,-161,-129,-130,-94,-34,-35,-19,-2,16,-45,-151,-68,-27,-15,13,14,-72,-219,8,143,239,253,157,18,-12,-50,-138,-68,2,-125,-230,-195,-127,-100,-54,23,76,80,59,65,60,-52,-264,60,930,1530,827,-100,-393,-436,-461,-408,-318,-310,-321,-340,-257,-121,-120,-108,-48,-87,-336,-130,235,260,168,115,110
2018-09-21,13:58:04.478,122,125,137,165,205,228,185,59,275,361,305,259,144,3,-107,-164,-214,-246,-239,-255,-281,-365,-634,-334,-59,-112,-173,-161,-126,-101,-60,-18,-22,-85,-189,-189,276,388,236,127,108,139,33,-125,-114,114,153,-20,-140,-172,-161,-154,-145,-170,-156,-180,-274,14,-64,-88,619,1492,1436,442,-83,-222,-225,-219,-219,-216,-205,-184,-170,-141,-130,-125,-173,-133,-12,15,10,30,71,120,186,245,289,311,222,386,360,192,558,648,437,239,104,0,-114,-217,-321,-360,-309,-268,-195,-169,-158,-66,-28,-111,-98,-78,-160,-46,-30,-131,-205,-234,-261,-280,-285,-290,-268,-224,-199,-152,-51,24
2018-09-21,13:58:05.506,78,10,-9,32,195,277,210,128,62,8,-6,-43,-149,-111,82,-45,-230,367,1377,1496,397,-304,-425,-399,-365,-253,-141,-89,-112,-112,-114,-147,-213,-202,-99,58,104,79,67,77,77,81,70,68,80,85,103,139,176,219,248,272,296,306,253,-113,-87,215,115,35,-18,-114,-271,-329,-232,-396,-503,-157,-93,-162,-152,-129,-98,-74,-39,-4,18,37,25,0,-21,-52,-70,-54,14,34,23,-41,-106,-175,-239,-226,-181,-143,-133,-170,-67,185,212,62,45,0,101,781,1693,1383,193,-369,-601,-485,-332,-316,-291,-225,-219,-218,-74,151,153,70,40,11,-19,-46,-66,-107,-135,-134
2018-09-21,13:58:06.533,-191,-179,-56,-26,-35,110,190,192,187,199,194,166,127,148,181,125,53,-7,-47,-62,-78,-163,-226,-130,-82,-166,-139,-60,-69,-114,-173,108,224,172,110,55,9,-37,-86,-84,-50,-49,-85,-105,-124,-146,-137,-104,-72,-44,-81,-251,-91,114,87,41,-159,-279,107,1015,1613,870,12,-336,-435,-260,-108,-5,-38,-165,-158,-180,-323,-284,-184,-101,-211,-27,67,19,-13,-15,-2,7,2,22,46,71,137,189,232,255,248,208,174,145,71,-12,-90,-167,-208,-233,-262,-369,-312,-306,-295,-96,-14,160,271,266,226,85,47,187,178,80,-139,-120,30,6,-13,32,121,167,201,228
2018-09-21,13:58:07.561,245,192,115,58,-26,-24,-76,-112,-138,-207,-175,-162,-258,-451,-152,746,1452,957,-6,-326,-408,-494,-323,-130,7,62,36,27,2,-33,-29,-158,-242,33,206,122,17,-85,-24,75,48,-39,-33,117,162,146,153,167,162,152,139,76,17,-60,-127,-116,-158,-212,-168,-162,-184,-196,-178,-187,-478,-326,154,162,43,31,60,61,40,-26,-284,-144,212,117,-24,-22,-2,-44,-166,-446,-408,83,171,-5,-87,-90,-85,-76,-72,-86,-56,-34,-246,-169,681,1627,1476,378,-183,-414,-412,-378,-523,-778,-390,-275,-105,-14,-30,-171,-292,-667,-895,-36,402,248,54,-409,-210,451,279,129,296,335
2018-09-21,13:58:08.589,333,314,319,-608,12,769,553,294,147,34,0,-22,-53,-90,-115,-227,-366,-225,-147,-187,-191,-222,-134,-33,-42,-115,-257,-71,102,63,43,88,126,195,254,286,185,19,86,95,-90,-31,14,-49,-155,-74,-160,-6,191,84,-199,-132,654,1336,981,-36,-336,-325,-285,-318,-304,224,512,419,315,22,-22,277,-143,116,512,10,-154,401,450,252,128,-155,-382,-208,769,827,456,309,268,219,117,-89,-41,-473,-562,-39,-214,-531,-667,-563,-584,-586,-695,-573,-213,-247,-272,-284,-249,-210,-176,-232,-175,-56,13,95,81,60,72,111,195,253,274,264,258,218,67,-6,342,328,230,203
2018-09-21,13:58:09.617,231,229,261,295,291,90,232,854,1123,1428,629,-8,-227,-197,-181,-207,-202,-213,-219,-171,-128,-119,-111,-86,-77,-95,15,-27,-192,31,100,43,19,6,34,73,112,156,205,218,206,197,181,156,94,-24,-129,-194,-331,-449,-231,-154,-240,-267,-272,-299,-298,-269,-247,-266,-264,-151,-325,-279,43,41,-86,-135,-154,-145,-98,-92,-116,-153,-202,-281,-315,-327,-321,-320,-401,-432,-307,-313,-356,-357,-414,-587,-218,646,1148,662,-173,-454,-479,-424,-410,-392,-360,-319,-297,-246,-209,-194,-194,-257,-374,-298,-132,-56,-114,-113,-49,-21,-28,49,114,168,242,257,290,325,335,327,287,261,190,108
2018-09-21,13:58:10.645,3,-46,-111,-187,-101,-24,-27,-33,-47,-74,-55,-40,-28,-83,-60,115,169,182,142,102,53,-54,-39,149,173,148,93,28,33,45,30,65,197,244,240,226,191,144,117,79,-65,-259,122,1032,1524,811,-56,-252,-261,-206,-150,-132,-106,-50,-18,24,47,93,142,159,207,249,257,243,261,256,269,283,313,314,224,165,391,499,465,414,367,317,271,177,99,-9,-209,-211,-74,-63,-66,-83,-110,-133,-154,-155,-118,-76,-24,-12,-35,-38,-59,-27,-40,8,19,0,-18,-65,-107,35,76,66,-32,-160,-315,-274,-249,-303,-314,-186,-165,-152,-233,-366,-276,-203,-97,662,1498,1241
2018-09-21,13:58:11.673,82,-416,-522,-510,-510,-441,-451,-500,-398,-365,-390,-358,-290,-247,-250,-232,-154,-99,-70,-20,-12,-17,-24,22,29,37,65,112,140,130,19,21,200,226,206,131,-3,-27,17,18,33,52,42,-11,-49,-77,-129,-62,-22,-62,-87,-83,-20,-12,30,-30,6,116,151,148,187,197,189,197,232,204,164,182,204,142,28,154,194,91,63,115,-1,-268,231,1330,1707,727,-53,-330,-363,-264,-191,-133,-63,-12,25,38,10,-25,-31,-39,-59,-53,-36,1,33,45,40,52,41,37,106,202,250,247,270,230,167,93,14,-94,-230,-357,-435,-497,-546,-586,-647,-383,-300,-341,-358,-339
2018-09-21,13:58:12.701,-287,-225,-87,-4,58,101,118,136,122,121,67,-2,-48,-80,-8,34,88,69,39,2,-67,-100,-97,-47,30,121,226,345,349,268,155,-127,47,752,1218,477,-507,-646,-553,-373,-297,-293,-238,-229,-218,-168,-123,48,82,-4,-104,-200,-257,-268,-321,-291,-188,-167,-188,-159,-132,-93,-12,48,99,179,153,-12,235,412,256,122,20,-28,-119,-214,-300,-358,-50,48,-37,-73,-84,-80,-58,-3,7,9,70,126,176,222,252,275,256,260,277,261,223,168,144,111,36,49,54,56,21,-18,-83,-82,-17,-229,-111,75,395,1109,1506,606,-326,-586,-587,-544,-587,-532,-397,-295,-287,-251
2018-09-21,13:58:13.729,-213,-237,-191,-65,-35,127,235,252,225,218,223,185,130,107,167,176,169,186,213,243,248,220,149,38,-49,-149,-228,-246,-187,-164,-181,-191,-215,-273,-395,-429,-333,-233,-283,-312,-298,-274,-337,-324,-7,142,146,138,120,117,109,117,131,112,48,-11,-45,-89,-93,-118,-142,-107,-93,-87,-66,-69,-35,-38,-222,60,992,1630,1067,112,-205,-287,-237,-166,-197,-191,-181,-166,-159,-213,-264,-110,-44,-71,-76,-44,-31,-30,-28,37,101,144,203,245,283,331,348,314,293,279,228,195,155,97,21,-82,-162,-111,-116,-149,-161,-168,-168,-140,-121,-92,-46,-40,-69,-156,-242,-316,-355,-339
2018-09-21,13:58:14.756,-290,-286,-310,-245,-171,-135,-34,38,8,-12,76,104,122,190,209,210,207,194,204,175,132,91,-90,-251,352,1366,1616,588,-88,-243,-265,-278,-295,-296,-250,-145,-6,96,134,138,135,136,131,76,-3,-66,-124,-219,-216,-175,-198,-113,-50,23,67,91,154,212,205,203,128,69,-2,-89,-180,-260,-326,-355,-383,-364,-354,-356,-344,-341,-336,-343,-331,-286,-203,-165,-109,-73,-73,-7,53,96,113,123,186,245,248,213,158,99,11,-47,-41,-14,28,63,49,72,145,225,264,100,175,912,1569,1182,195,-154,-215,-143,-100,-120,-121,-105,-107,-117,-121,-118,-103,-87,-32,-8,26,62
2018-09-21,13:58:15.784,78,110,127,107,84,64,27,7,2,-14,-21,-18,-9,-2,-1,-20,-87,-199,-278,-304,-292,-230,-158,-51,-14,-1,-32,-73,-131,-167,-183,-180,-163,-164,-138,-71,-34,-33,-50,-62,-41,4,37,128,210,234,202,130,92,-1,-104,-374,-309,-141,-101,-165,-260,-292,-250,-229,-333,20,979,1721,1184,227,-135,-230,-246,-319,-407,-485,-482,-408,-392,-319,-257,-218,-208,-184,-148,-119,-92,-53,32,89,145,216,269,310,390,442,446,430,422,393,344,264,192,113,41,-24,-103,-163,-196,-202,-151,-76,0,53,100,131,139,132,104,96,115,128,138,189,190,152,106,16,-39,-86,-120,-40
2018-09-21,13:58:16.812,37,73,87,85,57,-37,-83,-104,-141,-154,-182,-252,-286,-363,-350,-390,-527,-122,743,1101,213,-502,-582,-452,-260,-107,6,63,98,103,96,67,27,-12,-73,-89,-66,-14,27,53,67,20,12,141,212,243,274,296,322,304,268,201,48,-61,-49,-119,-272,-441,-507,-520,-466,-394,-280,-113,57,204,271,236,149,46,-36,-127,-221,-283,-383,-421,-416,-398,-350,-279,-211,-113,34,50,15,26,89,82,57,60,92,165,241,264,235,203,171,122,-4,-164,431,1564,1916,909,150,-149,-239,-277,-311,-317,-283,-240,-189,-145,-79,-14,42,67,58,40,11,-10,-4,13,34,71,71,57
2018-09-21,13:58:17.840,63,155,214,234,337,548,554,385,143,-180,-317,-375,-544,-505,-432,-486,-519,-485,-423,-368,-344,-354,-374,-361,-293,-201,-108,-27,41,66,123,113,109,115,86,60,34,46,126,189,197,152,84,3,-93,-145,-168,-144,-94,-46,41,120,175,201,85,-91,367,1170,1305,250,-434,-563,-470,-327,-249,-165,-74,2,51,48,27,-10,-70,-133,-170,-174,-172,-171,-188,-229,-250,-230,-211,-187,-124,-34,74,194,278,361,439,466,493,490,444,370,298,216,158,137,117,64,10,-32,-59,-92,-99,-101,-92,-69,-48,-24,-6,10,14,7,6,11,6,-19,25,87,122,113,85,64,-6,-69
2018-09-21,13:58:18.868,-106,-98,-92,-124,-123,-95,-58,8,1,-182,-149,559,1389,1205,231,-329,-510,-478,-445,-442,-432,-435,-453,-465,-456,-405,-300,-205,-103,-33,32,103,162,186,198,206,203,216,220,226,245,258,240,195,158,95,4,-94,-138,-203,-486,-419,125,254,81,-51,-191,-333,-429,-473,-480,-447,-371,-267,-169,-71,33,132,226,291,259,179,58,-17,0,53,57,49,10,-43,-72,-141,-159,-175,-163,-123,-107,-95,-63,-33,-39,-89,-352,-58,987,1949,1607,490,-37,-263,-295,-283,-262,-298,-290,-246,-158,-123,-128,-131,-104,-66,-22,2,5,-19,-53,5,97,143,165,156,139,134,103,165,243,251
2018-09-21,13:58:19.896,249,251,217,143,31,-8,96,103,-47,-91,-66,-8,-56,-184,-275,-300,-326,-344,-356,-329,-210,-95,-74,-84,-112,-142,-139,-104,-24,109,231,304,296,247,169,78,23,-21,-51,-69,-84,-85,-108,-116,-108,-153,-298,-12,785,1272,579,-466,-456,-86,-59,-143,-154,-225,-318,-314,-355,-198,11,29,7,30,79,180,255,232,183,147,117,91,36,-6,-13,-18,3,-10,-31,-40,-32,-23,-45,-90,-118,-134,-172,-173,-178,-189,-224,-206,-20,81,91,75,68,52,4,32,-49,46,174,161,81,9,-41,-53,-35,42,188,324,387,391,387,378,270,183,175,167,148,85,9,-31,-73,-106
2018-09-21,13:58:20.923,-156,-415,-282,591,1403,980,23,-273,-353,-278,-200,-175,-246,-328,-284,-287,-300,-293,-298,-333,-337,-308,-287,-279,-223,-186,-151,-147,-104,-47,35,109,177,255,284,300,302,283,263,216,150,80,13,-67,-136,-183,-211,-247,-286,-286,-250,-181,-60,52,134,192,103,-24,49,65,-17,-152,-413,-307,-90,-88,-13,163,276,333,345,261,138,53,-13,-66,-95,-131,-167,-197,-209,-226,-286,-422,-98,733,1252,641,-135,-276,-256,-203,-159,-131,-76,-34,-8,9,30,24,10,21,35,55,90,100,126,150,162,128,82,53,47,97,147,177,186,150,112,79,24,-45,-127,-200,-244,-266,-258,-221
2018-09-21,13:58:21.951,-204,-184,-171,-178,-200,-213,-184,-169,-142,-114,-102,-125,-158,-189,-221,-253,-276,-303,-326,-248,-155,-103,-81,-77,-47,-55,-58,-59,-50,-23,7,81,166,251,309,321,152,245,933,1602,1285,265,-97,-121,7,92,111,95,64,73,90,157,273,307,258,185,108,4,-78,-114,-121,-119,-104,-126,-151,-100,21,201,317,390,444,512,418,250,109,-34,-153,-265,-339,-380,-404,-422,-433,-417,-409,-407,-360,-316,-289,-243,-215,-180,-138,-86,-62,-45,-19,-4,8,3,38,109,106,89,70,80,39,29,36,43,65,89,101,123,130,128,93,-67,-164,397,1288,1459,479,-187,-434,-503,-450,-408
2018-09-21,13:58:22.979,-323,-261,-208,-160,-134,-140,-58,-145,-210,2,129,42,-92,-175,-210,-230,-221,-221,-264,-124,117,192,185,184,176,177,167,160,116,45,-5,-38,-62,-79,-80,-49,-40,-39,-31,-12,-14,-11,-4,-24,-37,-35,-53,-59,-51,-14,29,76,135,166,144,79,9,-45,-109,-138,-161,-200,-332,-320,-109,46,138,188,186,-33,-10,627,1231,871,-96,-383,-421,-381,-378,-390,-362,-334,-309,-277,-215,-167,-111,-65,-37,-2,39,77,115,146,186,204,223,238,237,255,275,295,304,290,263,233,173,75,-20,-71,-118,-143,-157,-167,-182,-190,-189,-197,-200,-200,-195,-176,-155,-106,-54,-21,-5,-4
2018-09-21,13:58:24.007,-37,-43,-83,-154,45,246,281,194,79,-30,-188,-358,-361,-272,-255,-260,-264,-240,-206,-183,-201,-354,-151,606,1203,695,-135,-262,-163,9,90,86,72,65,59,56,57,59,57,61,56,9,-84,-121,-21,25,112,185,199,191,103,175,218,159,57,22,38,11,-33,-76,-133,-205,-208,-186,-164,-160,-170,-205,-220,-215,-193,-180,-178,-179,-194,-202,-196,-178,-147,-116,-107,-102,-86,27,100,229,310,271,179,110,32,-51,-131,8,229,269,229,194,201,210,191,-30,98,1057,2021,1538,494,50,-110,-103,-74,-49,-3,66,104,105,79,28,4,-67,-159,76,185,115,71,71,61,-15
2018-09-21,13:58:25.035,-17,89,304,442,389,314,229,161,118,62,-17,-254,-302,-115,-178,-301,-339,-362,-361,-341,-309,-265,-228,-212,-181,-139,-84,-54,-48,-39,-54,-59,-72,-87,-88,-80,-22,28,16,-28,-64,-109,-151,-156,-161,-171,-161,-171,-183,-218,-268,-331,-416,-587,-328,487,971,354,-421,-494,-378,-236,-182,-169,-207,-271,-309,-326,-328,-327,-339,-381,-416,-434,-449,-477,-464,-421,-376,-335,-290,-265,-227,-177,-130,-65,-7,28,51,98,118,92,28,-27,-64,-72,-70,-70,-69,-75,-76,-52,-50,-78,-50,-16,43,88,78,96,130,121,116,101,79,134,195,201,205,207,185,152,172,183,214,217,210,217
2018-09-21,13:58:26.063,236,287,287,200,-8,142,884,1451,917,8,-289,-363,-326,-296,-228,-145,-71,-42,-11,59,109,139,185,281,342,403,434,407,387,424,447,471,488,499,535,586,640,641,597,533,454,414,355,231,110,26,-69,-143,-188,-201,-197,-209,-220,-231,-208,-181,-168,-177,-171,-118,-76,-27,-32,-60,-101,-135,-109,-110,-176,-272,-344,-427,-465,-472,-470,-415,-362,-310,-238,-169,-136,-159,-290,-325,269,1144,1292,526,86,-48,-100,-103,-116,-127,-95,-54,-50,-92,-131,-143,-147,-148,-159,-191,-166,-89,-26,7,12,0,13,66,119,152,200,250,259,233,201,154,97,12,-70,-131,-149,-153,-127,-79
2018-09-21,13:58:27.091,-76,-107,-199,-267,-327,-395,-461,-467,-454,-441,-405,-363,-305,-268,-234,-208,-106,-32,-82,-123,-72,81,225,291,280,261,222,189,143,113,108,90,72,-37,-17,545,1164,961,28,-350,-376,-277,-191,-167,-208,-237,-257,-282,-270,-272,-288,-304,-309,-207,-73,61,170,291,416,508,509,444,338,265,227,183,119,15,-51,-83,-108,-141,-163,-184,-221,-212,-200,-194,-184,-166,-140,-113,-56,-1,30,72,104,147,185,185,162,158,189,224,243,228,227,237,164,85,41,46,49,56,47,14,-30,-47,-25,25,76,142,146,-66,46,862,1644,1167,128,-306,-439,-381,-302,-198,-57,42,73,89
2018-09-21,13:58:28.119,49,-74,-179,-244,-302,-357,-396,-414,-403,-369,-335,-287,-236,-184,-128,-103,-159,-182,-101,41,195,307,348,311,213,68,-69,-128,-125,-116,-129,-114,-104,-121,-148,-174,-195,-209,-214,-169,-80,-3,63,114,95,12,-91,-156,-184,-205,-159,-120,-97,-26,58,146,238,352,481,435,241,52,-79,-173,-224,-256,-367,-545,-169,713,1108,297,-427,-557,-554,-500,-456,-410,-373,-346,-292,-190,-58,65,165,226,273,304,300,287,263,266,273,258,257,265,264,268,291,317,307,286,209,115,-22,-161,-235,-276,-290,-253,-195,-103,-32,4,16,10,18,6,-32,-34,35,134,243,304,293,251,185,60
2018-09-21,13:58:29.146,-72,-165,-209,-231,-253,-282,-314,-326,-336,-302,-237,-177,-140,-156,-252,-289,-164,20,160,101,321,1066,1643,1086,105,-179,-204,-86,-12,34,39,-1,-41,-76,-122,-134,-131,-96,-48,-16,6,-5,-47,-91,-135,-144,-105,-34,-17,-68,-51,24,101,180,278,363,388,276,105,-54,-193,-269,-321,-366,-380,-369,-354,-362,-363,-337,-315,-299,-283,-236,-207,-202,-180,-150,-76,25,151,250,335,451,494,465,420,371,305,232,193,136,70,-23,-159,-315,-395,-386,-283,-308,-398,331,1558,1972,1009,349,61,-72,-102,-99,-73,-46,-40,-59,-68,-71,-84,-90,-86,-20,32,79,113,93,14,-76,-159,-250
2018-09-21,13:58:30.174,-334,-408,-434,-417,-377,-331,-287,-246,-213,-181,-174,-225,-374,-480,-423,-248,-43,112,196,160,82,27,-18,-21,45,115,160,185,185,157,117,94,102,110,159,264,301,264,154,29,-68,-152,-199,-190,-151,-109,-96,-127,-183,-174,-121,-80,1,623,1479,1584,603,3,-121,-150,-153,-186,-193,-209,-231,-241,-236,-210,-213,-226,-217,-219,-214,-190,-132,-99,-74,-40,11,98,191,267,337,371,380,366,323,271,198,115,7,-72,-100,-88,-55,-33,-31,-37,-63,-48,-21,5,18,24,11,-27,-63,-101,-141,-171,-211,-241,-231,-224,-171,-72,0,40,76,133,143,146,101,-13,-127,-213,-293,-358
2018-09-21,13:58:31.202,-416,-453,-465,-589,-565,81,801,682,-211,-521,-569,-582,-502,-332,-123,69,196,248,245,239,215,184,149,151,166,168,155,123,107,84,88,123,163,208,234,233,220,185,119,59,4,-61,-147,-243,-321,-320,-243,-134,10,173,296,259,153,41,-42,-101,-140,-164,-150,-137,-137,-153,-172,-184,-188,-190,-143,-48,25,38,6,-22,-49,-106,-127,-116,-82,-25,62,129,191,210,214,95,17,712,1831,2084,1088,358,-2,-155,-293,-397,-436,-453,-436,-399,-373,-370,-366,-332,-254,-126,33,183,269,310,300,240,186,161,141,146,178,187,242,376,499,473,362,207,15,-207,-420,-601,-736,-799
2018-09-21,13:58:32.230,-794,-753,-703,-618,-526,-451,-411,-366,-361,-482,-609,-478,-191,68,264,363,416,441,388,300,293,307,320,334,321,257,201,125,40,-30,-64,-43,-21,0,-1,-60,-233,-33,607,892,196,-604,-605,-387,-111,82,247,418,514,419,233,74,-28,-74,-98,-110,-126,-153,-180,-191,-206,-201,-187,-174,-152,-111,-53,-12,12,37,63,84,97,118,111,135,182,179,145,124,131,130,131,112,107,103,79,43,-9,-45,-38,-11,6,2,-35,-103,-136,-146,-126,-48,52,115,142,141,117,76,48,42,22,12,8,37,78,148,231,201,57,360,1140,1488,719,-190,-464,-570,-601,-610,-602,-578
2018-09-21,13:58:33.258,-553,-511,-454,-410,-363,-348,-441,-541,-472,-279,-63,151,315,388,414,380,300,249,246,253,279,291,263,199,113,12,-81,-157,-196,-175,-148,-144,-198,-265,-324,-377,-398,-404,-421,-439,-418,-338,-195,-54,51,159,256,335,301,206,106,73,94,87,32,-13,-45,-119,-190,-230,-246,-261,-252,-213,-190,-173,-138,-143,-310,-30,972,1854,1400,514,118,-34,-60,-100,-157,-192,-216,-229,-190,-128,-112,-155,-217,-238,-190,-78,61,138,98,17,-73,-138,-95,28,198,382,521,583,603,541,430,320,213,107,21,-34,-21,63,212,331,360,280,118,-47,-211,-353,-459,-535,-575,-568,-549,-500,-450,-386
2018-09-21,13:58:34.286,-319,-259,-229,-220,-236,-354,-339,-183,27,187,258,292,278,232,145,66,47,77,98,114,33,-71,331,1000,1048,90,-413,-403,-296,-200,-185,-215,-262,-276,-278,-271,-245,-200,-187,-213,-224,-166,-32,146,296,353,318,250,181,126,93,68,52,34,7,-29,-68,-80,-110,-141,-173,-194,-214,-200,-172,-140,-85,-33,-13,14,59,111,167,216,245,273,289,291,315,339,354,353,317,277,324,356,292,223,160,92,14,-25,-73,-127,-142,-125,-85,-57,-10,23,-91,-214,309,1125,1209,232,-285,-366,-310,-243,-197,-142,-93,-54,-36,-41,-75,-124,-184,-240,-291,-317,-314,-307,-268,-231,-209,-171
2018-09-21,13:58:35.314,-135,-83,-69,-86,-53,11,84,151,206,217,201,142,66,1,-55,-111,-143,-148,-136,-134,-128,-127,-105,-77,-50,-11,40,78,116,172,196,150,76,13,-67,-140,-160,-172,-204,-271,-385,-469,-470,-372,-218,-61,81,232,394,484,375,200,-13,-326,-58,829,1428,728,-170,-482,-555,-512,-474,-434,-369,-323,-312,-299,-279,-245,-179,-97,-27,43,114,149,186,211,216,197,165,159,190,202,203,199,155,77,23,15,50,71,79,63,24,-25,-86,-96,-83,-55,-38,-35,-40,-67,-106,-141,-161,-183,-172,-146,-116,-52,43,129,210,313,425,469,403,235,83,-35,-114,-181,-217,-211,-196,-189
2018-09-21,13:58:36.341,-189,-176,-162,-159,-316,-344,279,1034,1010,154,-167,-153,-105,-48,-61,-91,-106,-112,-110,-121,-164,-187,-193,-171,-124,-91,-84,-103,-140,-142,-79,19,116,162,202,232,219,179,129,58,-11,-54,-98,-151,-244,-304,-295,-237,-142,-47,38,63,24,-1,-29,-62,-85,-99,-114,-106,-95,-99,-106,-119,-140,-150,-132,-73,-11,11,10,2,-9,-36,-35,0,51,91,152,207,235,224,172,84,-124,287,1378,2074,1349,473,26,-181,-281,-340,-376,-392,-390,-379,-362,-369,-388,-367,-299,-203,-56,102,226,329,403,425,380,340,334,332,325,328,354,417,516,593,600,552,406,175,-77,-303,-475,-581
2018-09-21,13:58:37.369,-627,-642,-643,-608,-570,-520,-451,-430,-423,-479,-491,-355,-112,117,260,326,291,214,214,207,157,103,46,-9,-51,-66,-52,-54,-61,-52,-74,-91,-108,-102,-145,-130,378,1054,1066,150,-437,-460,-360,-226,-168,-130,-112,-135,-161,-194,-171,-118,-53,45,130,179,197,182,179,155,130,110,90,89,91,92,79,69,52,57,47,25,-19,-79,-116,-142,-117,-67,-14,9,18,0,-52,-97,-142,-207,-276,-334,-353,-331,-243,-112,22,123,173,184,222,325,448,475,391,257,150,14,-85,-139,-200,-262,-308,-315,-291,-242,-149,-72,-143,88,908,1586,1081,0,-412,-523,-512,-507,-490,-455,-406,-355
2018-09-21,13:58:38.397,-299,-264,-239,-229,-248,-213,-98,53,174,265,302,316,314,325,333,320,299,297,294,276,241,178,113,77,72,42,-14,-76,-139,-254,-386,-466,-463,-382,-156,153,344,329,174,10,-118,-217,-274,-246,-180,-141,-122,-82,3,179,407,467,367,222,71,-70,-168,-285,-382,-428,-461,-459,-438,-403,-378,-432,-551,-148,776,1247,496,-226,-300,-195,-80,-21,37,66,77,69,66,65,42,19,-2,0,0,-15,-41,-23,-16,6,35,63,93,156,267,368,423,411,360,332,320,309,270,195,110,20,-23,-40,-48,-25,37,51,15,-29,-102,-205,-331,-450,-552,-625,-647,-615,-555,-480,-377,-260
2018-09-21,13:58:39.425,-128,-24,-24,-144,-209,-50,203,422,534,492,375,274,222,182,151,92,-23,177,719,923,330,-305,-313,-214,-105,-86,-99,-82,-60,-37,10,26,12,-24,-72,-98,-126,-146,-170,-185,-148,-48,72,198,338,433,519,628,538,342,190,99,24,-83,-199,-308,-419,-528,-612,-655,-652,-643,-616,-561,-468,-345,-239,-135,-41,45,119,169,230,291,337,373,377,396,414,403,352,297,265,205,159,152,131,130,125,102,96,101,75,10,-133,68,707,1032,530,11,-10,-39,-39,-49,-55,-50,-73,-104,-132,-147,-154,-165,-165,-136,-93,-63,-43,-49,-79,-159,-270,-358,-400,-417,-402,-382,-347,-307
2018-09-21,13:58:40.453,-253,-193,-148,-110,-137,-205,-185,-17,213,328,296,201,97,7,-41,-60,-80,-95,-112,-97,-73,-55,-17,3,20,8,4,-10,0,78,153,180,152,94,23,-50,-87,-96,-92,-75,-47,20,104,169,171,55,-51,348,1034,1183,362,-186,-373,-446,-489,-534,-534,-536,-519,-504,-469,-420,-346,-263,-165,-65,20,90,146,211,275,336,403,428,446,456,455,456,438,397,346,305,243,139,30,-28,-41,-68,-98,-119,-132,-125,-94,-10,76,101,87,62,39,0,-45,-82,-91,-102,-109,-123,-135,-120,-55,76,224,321,305,188,20,-191,-438,-579,-557,-589,-624,-542,-461,-402,-341,-312,-372,44
2018-09-21,13:58:41.481,800,1105,287,-327,-401,-289,-156,-101,-61,-35,4,33,62,89,109,133,172,223,280,301,299,290,269,242,227,243,284,361,431,503,516,481,420,366,305,207,121,58,12,5,26,71,84,26,-60,-154,-250,-327,-373,-414,-446,-487,-535,-566,-572,-569,-539,-482,-414,-357,-288,-211,-94,18,90,143,211,249,241,249,263,293,331,353,367,362,356,326,169,-147,203,1286,1923,1102,292,-86,-265,-374,-460,-504,-481,-412,-310,-221,-151,-123,-111,-132,-154,-139,-126,-117,-75,12,115,218,333,432,466,420,304,157,11,-137,-259,-351,-447,-534,-600,-649,-666,-635,-585,-542,-504,-536,-665,-636
2018-09-21,13:58:42.509,-416,-116,141,336,458,476,358,235,149,71,10,-9,19,49,50,57,45,-3,-59,-101,-117,-88,-27,0,-4,-29,-40,-35,-38,-69,-93,-146,-82,574,1431,1581,703,145,-28,-117,-188,-275,-345,-403,-440,-475,-504,-512,-495,-471,-443,-409,-361,-297,-220,-157,-103,-57,-4,95,236,385,507,578,599,594,597,598,565,495,403,305,185,57,-98,-252,-386,-433,-410,-308,-193,-96,-10,72,135,156,160,163,152,137,129,115,81,46,9,-30,3,55,92,186,297,394,434,424,378,256,19,-216,-415,-574,-682,-723,-809,-935,-494,380,832,170,-496,-750,-828,-597,-305,-37,184,333,411,450
2018-09-21,13:58:43.536,355,218,189,208,217,215,223,236,200,137,76,17,-19,-31,9,87,195,274,293,260,169,65,-27,-128,-252,-366,-385,-292,-146,0,154,310,375,280,124,-17,-123,-203,-264,-298,-316,-353,-391,-420,-432,-438,-417,-399,-306,-196,-121,-95,-65,-49,-79,-20,85,192,280,327,345,389,462,504,392,176,571,1528,1910,908,51,-312,-430,-447,-408,-347,-323,-271,-166,-77,-3,62,98,87,87,93,109,110,92,76,74,78,69,84,105,146,229,314,370,373,306,177,-34,-287,-505,-688,-780,-835,-817,-755,-710,-658,-574,-522,-569,-576,-452,-230,-12,161,277,346,378,370,329,242,170,136
2018-09-21,13:58:44.564,125,191,278,347,326,237,132,9,-97,-181,-212,-195,-65,191,462,575,435,142,-126,192,849,895,-188,-850,-805,-563,-267,-33,167,358,470,391,248,102,-36,-136,-186,-218,-260,-316,-402,-481,-519,-504,-440,-381,-309,-218,-125,-45,34,74,72,49,50,42,16,4,19,82,175,223,176,85,-9,-55,-77,-98,-89,-40,9,69,120,170,260,366,462,479,445,389,318,304,285,218,130,60,-16,-98,-145,-164,-179,-161,-77,25,139,237,294,187,6,429,1227,1396,282,-450,-660,-654,-572,-508,-447,-471,-557,-590,-559,-468,-324,-139,35,156,231,283,315,327,308,302,291,307,365,457
2018-09-21,13:58:45.592,481,379,210,44,-118,-279,-372,-416,-410,-358,-238,-47,136,268,304,177,-20,-189,-294,-336,-344,-314,-252,-158,-19,121,283,401,384,317,229,128,23,5,39,22,-45,-94,-178,-280,-338,-364,-376,-342,-304,-297,-295,-270,-212,-194,-365,-187,713,1490,956,35,-259,-378,-402,-401,-384,-336,-273,-228,-199,-174,-136,-109,-98,-68,-24,21,65,124,171,124,123,195,307,387,456,403,334,291,213,207,324,427,368,162,-35,-123,-124,6,32,46,142,80,-3,-75,-152,-195,-231,-276,-214,-221,-250,-163,-157,-248,-350,-445,-582,-572,-388,-131,97,300,454,465,389,324,179,57,-21,-50,68,102
2018-09-21,13:58:46.620,47,1,-136,-471,-172,854,1588,966,332,250,378,537,421,183,-71,-376,-379,-406,-595,-630,-626,-692,-704,-622,-454,-271,-61,204,450,523,455,347,232,131,72,63,73,29,-84,-152,-191,-283,-375,-439,-452,-446,-405,-316,-267,-256,-217,-137,-74,-14,38,72,41,50,25,-3,-33,-69,-96,-114,-152,-147,-85,-47,3,70,152,221,290,394,475,501,486,430,363,300,239,180,44,-154,254,1114,1392,461,-269,-378,-356,-183,-93,-46,-25,-40,-108,-185,-245,-190,-209,-278,-334,-354,-359,-345,-338,-327,-301,-235,-167,-173,-193,-185,-98,52,240,374,433,457,405,297,195,69,-32,-135,-207,-300
2018-09-21,13:58:47.648,-393,-440,-458,-439,-397,-311,-142,27,231,474,602,546,439,303,102,-15,-145,-191,-119,-47,-23,-26,-62,-65,-72,-23,16,48,70,88,115,103,88,67,4,-222,-118,600,1254,754,-164,-513,-574,-470,-428,-416,-330,-263,-170,-82,11,98,159,213,254,272,256,192,141,96,47,26,28,54,82,115,121,95,-17,-255,-242,-42,136,263,364,437,441,416,369,275,205,142,25,-12,-69,-104,-147,-238,-289,-302,-265,-183,-70,16,48,52,26,-20,-80,-159,-203,-223,-266,-288,-305,-350,-373,-351,-325,-303,-287,-290,-289,-261,-223,-212,-270,92,1017,1576,938,86,-95,-119,-63,-58,-61,-80
2018-09-21,13:58:48.676,-146,-206,-232,-180,-106,-5,112,217,317,370,355,238,52,-107,-196,-223,-209,-165,-114,-63,-9,16,75,130,149,127,90,66,32,-7,-41,-77,-141,-189,-227,-251,-297,-328,-313,-278,-221,-167,-107,-124,-110,-20,38,118,168,208,225,284,408,435,376,254,156,73,12,5,34,30,40,40,16,-33,-119,-207,-415,-483,170,1117,1235,351,44,40,173,286,313,269,228,174,108,82,13,-58,-128,-203,-256,-278,-349,-284,10,156,201,217,236,185,130,101,51,160,214,123,-13,-134,-286,-424,-536,-586,-685,-741,-704,-587,-392,-177,-36,60,182,278,319,368,384,382,348,292,282,237
2018-09-21,13:58:49.704,276,277,201,27,-111,-149,-100,-16,0,97,288,349,327,243,108,-86,-301,-318,-337,-365,-498,-707,-953,-626,405,1226,769,134,39,2,-60,-67,-43,-131,-235,-255,-241,-258,-262,-282,-307,-310,-263,-228,-149,-108,-40,5,34,78,131,215,273,323,382,386,340,264,182,46,-111,-236,-393,-364,-314,-352,-414,-456,-495,-525,-524,-477,-409,-321,-206,-83,146,269,301,282,268,248,179,109,45,34,43,27,-16,-49,-46,-91,-66,-44,-136,4,228,252,129,-47,-165,-182,-548,-544,473,1340,965,-36,-371,-400,-297,-207,-134,-51,18,61,15,7,54,85,115,161,223,242,246,235,174,66
2018-09-21,13:58:50.732,-9,-55,4,152,352,515,717,813,772,672,554,383,177,-108,-281,-361,-449,-432,-418,-459,-522,-495,-447,-404,-316,-172,-90,-93,-131,-171,-252,-258,-262,-202,-142,-125,-112,-88,0,115,146,143,160,128,72,101,116,125,91,32,-2,49,78,59,-89,-365,25,1159,1774,865,-9,-321,-437,-526,-615,-651,-596,-499,-335,-90,170,423,579,601,549,477,355,225,103,21,-53,-96,-80,-10,94,168,206,265,319,304,166,0,-183,-341,-425,-519,-604,-455,-324,-338,-370,-410,-365,-307,-268,-193,-113,-50,43,116,155,151,145,173,219,271,341,420,507,529,427,264,123,30,7,23,77,168
2018-09-21,13:58:51.759,253,291,247,173,81,-7,-186,-243,307,966,774,-169,-592,-624,-528,-433,-384,-343,-299,-207,-140,-109,-116,-114,-110,-193,-267,-335,-340,-316,-260,-188,-89,23,97,154,220,306,366,450,465,414,401,376,287,229,139,45,-52,-109,-157,-210,-148,-136,-147,-208,-320,-426,-497,-481,-349,-162,47,261,462,621,697,640,511,383,319,300,193,80,7,-72,-179,-259,-275,-229,-207,-190,-158,-100,-110,-67,-94,-411,-540,82,876,749,-193,-629,-763,-699,-585,-511,-408,-336,-281,-201,-145,-88,-4,12,-8,-15,-56,-31,42,99,158,235,252,213,180,161,164,199,230,275,345,435,498,467,391,241
2018-09-21,13:58:52.787,86,-57,-171,-236,-261,-305,-327,-304,-318,-329,-326,-316,-325,-312,-263,-156,-45,50,133,197,251,161,59,31,33,-5,-8,-13,-28,-38,2,46,79,125,180,205,210,190,162,58,-155,165,1109,1577,698,-207,-492,-566,-541,-490,-436,-371,-275,-246,-240,-248,-269,-270,-232,-159,-51,66,169,269,347,390,416,443,451,424,382,326,264,196,117,27,-12,-56,-89,-126,-115,-50,-30,-38,-153,-292,-325,-345,-369,-364,-331,-341,-382,-475,-565,-511,-398,-287,-222,-213,-210,-140,-75,0,114,273,425,421,354,327,324,362,431,437,338,170,29,-85,-130,-132,-85,-120,-135,704,1950,2213,1042,228
2018-09-21,13:58:53.815,-117,-254,-324,-431,-499,-505,-611,-772,-875,-752,-567,-373,-139,94,273,381,455,481,430,378,287,201,148,103,101,84,20,-30,-15,-48,-33,-29,-63,-116,-40,-61,-132,-56,88,78,-4,-71,-149,-393,-444,-258,-331,-553,-716,-1039,-1076,-898,-646,-412,-205,41,337,531,705,906,1110,1169,976,647,416,378,237,98,73,-18,-159,-93,40,86,-47,126,834,1321,933,138,41,-4,-225,-355,-523,-688,-863,-966,-1133,-925,-574,-416,-496,-584,-641,-581,-448,-296,-194,-122,21,95,55,33,60,96,80,60,157,159,140,37,-79,-141,-228,-238,-230,-449,-57,192,112,77,86,74,-24,-301,-542,-303
2018-09-21,13:58:54.843,-394,-385,-395,-350,-192,-60,88,199,136,176,309,332,359,432,339,245,200,229,272,301,296,292,302,266,249,231,147,12,320,1072,1535,916,143,-62,-39,80,49,37,153,156,151,41,37,212,218,332,410,288,141,51,-26,-67,-77,-94,-75,-32,-47,-71,-72,-49,-62,-146,-180,-166,-151,-134,-97,-7,28,48,120,128,69,31,123,206,106,95,85,31,-28,-159,-218,-205,-286,-417,-420,-364,-356,-360,-310,-222,-144,-116,3,9,-26,-2,-12,-58,-85,-81,-72,-86,-100,-17,0,-14,-96,-62,549,1191,965,-132,-622,-587,-483,-371,-284,-151,58,161,82,100,85,-111,-323,-345
2018-09-21,13:58:55.871,-295,-304,-212,-128,-29,89,182,216,230,199,174,162,146,115,46,24,87,106,8,-126,-180,-233,-251,-252,-288,-258,-274,-313,-268,-185,-174,-170,-104,-100,-114,-96,-89,46,125,135,99,-31,-114,-107,-20,58,156,212,229,274,271,280,296,255,248,143,29,261,223,69,-22,-214,-162,538,1343,1181,198,-298,-510,-541,-573,-623,-614,-590,-543,-453,-355,-317,-217,-114,14,101,155,196,220,242,263,267,231,225,218,208,214,222,190,129,94,50,42,-2,-71,-143,-186,-217,-257,-272,-280,-205,-43,104,178,205,182,180,211,198,129,72,15,-22,-35,-39,-41,-81,-178,-489,-314,88
2018-09-21,13:58:56.899,319,402,313,246,195,175,161,148,149,143,35,-115,-231,-320,-410,-552,-378,421,1211,925,-19,-340,-356,-254,-243,-229,-203,-207,-184,-56,72,112,74,78,-4,-195,-121,98,140,64,-25,-72,-78,-30,0,-15,-88,-121,-44,70,187,293,340,289,198,122,60,30,17,-23,-33,-30,-15,-16,-50,-149,-203,-202,-233,-212,-208,-180,-96,-2,54,68,61,117,177,63,-107,-259,-352,-390,-456,-486,-450,-410,-327,-260,-223,-186,-115,-55,-22,-59,36,708,1346,1172,111,-294,-337,-241,-175,-162,-115,37,53,-13,-119,-213,-305,-245,-10,130,227,652,938,925,691,446,259,111,0,-73,-119,-152
2018-09-21,13:58:57.926,-204,-196,-182,-111,52,215,307,334,332,333,230,56,-72,-195,-301,-348,-384,-364,-296,-280,-239,-249,-249,-195,-140,-151,-140,-101,5,75,109,161,192,192,387,460,366,260,154,-126,-6,228,169,57,-19,-106,-240,-460,-650,-884,-737,195,1188,805,-401,-400,-183,3,48,43,161,157,117,60,-6,-86,-143,-173,-220,-170,-68,-17,-4,61,149,221,257,285,541,701,672,535,348,132,-52,-166,-226,-308,-385,-434,-462,-486,-491,-463,-426,-352,-215,-64,58,186,200,143,87,2,-50,-49,-54,-78,-69,-103,-202,-306,-446,-476,-347,-123,145,342,421,441,409,413,411,352,251,167,48,-76
2018-09-21,13:58:58.954,-116,-80,-85,-140,-232,147,828,983,158,-305,-311,-241,-209,-245,-264,-271,-237,-234,-240,-237,-267,-272,-244,-258,-260,-186,-104,-19,92,179,271,309,375,507,578,489,436,389,363,275,255,176,98,-124,-545,-916,-1071,-1053,-931,-742,-580,-329,52,413,603,637,587,441,624,815,736,659,528,379,236,117,90,86,210,174,240,232,63,-50,75,-18,-268,78,118,-236,-493,-675,-919,-896,-832,-928,-575,168,334,-549,-1177,-1020,-824,-628,-449,-363,-357,-312,-133,-173,-46,189,208,283,323,311,408,351,407,679,724,692,724,809,891,833,655,674,566,451,497,282,-40,-257,-382,-481,-603,-588
2018-09-21,13:58:59.982,-539,-436,-285,-305,-348,-341,-284,-285,-254,-185,-242,-165,-27,-4,6,40,71,79,83,280,361,354,281,528,669,566,369,178,525,443,300,459,230,75,356,154,403,417,190,386,943,1264,261,-652,-403,-360,-510,-653,-796,-973,-1118,-1002,-972,-1090,-1145,-1056,-973,-890,-846,-936,-361,-124,-163,-129,-61,-7,20,-15,-75,39,113,-49,-14,167,101,23,0,-39,-82,-27,40,88,103,112,136,163,191,189,206,217,221,231,237,260,275,268,281,353,447,536,404,237,205,251,230,99,-50,-86,-19,137,323,482,573,614,602,550,573,625,644,643,784,1295,1629,1034,-7,-288,-278,-215
2018-09-21,13:59:01.041,-230,-282,-293,-284,-308,-347,-384,-426,-471,-500,-538,-600,-658,-704,-645,-560,-530,-469,-389,-276,-139,-16,72,120,141,142,138,113,54,-46,-177,-281,-342,-395,-428,-420,-367,-276,-235,-268,-337,-370,-333,-256,-124,20,162,288,430,617,780,867,851,709,544,366,245,177,84,-10,-71,-67,-5,143,331,526,677,565,332,71,-129,-321,-502,-762,-814,-189,495,317,-652,-948,-912,-763,-653,-644,-555,-340,-64,173,305,296,194,120,77,46,48,64,89,94,87,82,67,37,33,60,86,157,235,267,258,201,98,-26,-143,-244,-299,-306,-254,-163,-71,-11,9,14,3,-22,-51,-97,-150,-196
2018-09-21,13:59:02.038,-374,-410,-402,-360,-291,-311,-316,-337,-322,-223,-110,-44,-11,13,53,76,127,200,253,297,314,302,298,279,260,199,-44,138,1025,1758,1148,213,-74,-135,-96,-69,-95,-154,-178,-132,-26,95,206,268,268,208,127,61,16,-3,-10,-11,12,53,165,318,491,641,666,556,399,204,0,-187,-360,-538,-680,-757,-789,-793,-772,-736,-700,-638,-580,-531,-495,-434,-274,-37,185,323,317,258,196,152,105,35,7,40,89,125,97,28,-58,-146,-268,-392,-441,-351,-127,160,401,530,487,253,-9,-293,-521,-60,906,1421,762,241,264,327,284,146,23,-75,-143,-190,-251,-284,-333,-357,-377,-381
2018-09-21,13:59:03.066,-400,-436,-427,-386,-345,-301,-248,-165,-56,62,190,281,335,374,386,375,346,266,167,65,-22,-92,-141,-178,-150,-43,84,188,190,80,-54,-151,-134,-17,158,335,446,474,408,299,192,99,57,103,155,189,224,284,297,264,203,124,21,-95,-213,-333,-457,-570,-648,-734,-862,-506,218,533,-188,-826,-876,-824,-750,-611,-287,69,353,501,544,460,347,230,142,97,72,92,119,122,116,108,64,-6,-67,-88,-37,66,213,362,499,525,395,172,-80,-268,-344,-319,-215,-22,198,403,568,554,377,198,50,-33,-111,-163,-203,-254,-272,-288,-339,-385,-400,-405,-362,-258,-181,-170,-157,-132
2018-09-21,13:59:04.094,-119,-119,-93,-22,18,-9,-73,-130,-131,-62,65,100,-13,447,1499,2041,1122,191,-159,-251,-182,-112,-119,-234,-374,-474,-474,-371,-229,-78,50,126,177,172,139,104,65,50,87,170,303,432,483,464,429,330,136,-62,-191,-360,-588,-752,-834,-833,-809,-765,-709,-627,-550,-503,-462,-457,-453,-298,34,361,518,535,500,445,388,328,271,228,274,360,361,320,222,81,-89,-208,-222,-144,14,212,314,279,186,44,-93,-324,-505,-98,657,899,240,-29,80,265,418,377,271,130,19,-80,-153,-203,-253,-299,-326,-330,-354,-376,-369,-326,-277,-221,-164,-107,-26,53,145,223,286,308,319,300
2018-09-21,13:59:05.121,263,197,114,42,-11,-52,-76,-115,-113,-117,-142,-163,-160,-107,-25,25,32,-25,-103,-128,-78,31,160,288,367,399,377,370,386,374,313,224,136,44,4,30,87,96,75,-4,-108,-149,-218,-353,-620,-701,-163,486,381,-553,-866,-848,-721,-630,-641,-681,-594,-338,-52,200,425,548,548,428,315,229,205,174,152,200,271,306,296,247,179,98,27,21,82,208,362,411,261,9,-214,-374,-484,-564,-599,-545,-400,-160,89,320,507,547,463,326,201,91,16,-50,-116,-182,-229,-266,-311,-346,-316,-254,-200,-194,-193,-200,-229,-201,-142,-47,54,150,214,261,279,262,229,26,31,903
2018-09-21,13:59:06.149,2038,1803,634,26,-263,-426,-536,-584,-570,-478,-354,-231,-184,-216,-266,-281,-237,-120,31,163,223,208,161,136,126,138,149,184,202,248,322,368,370,297,260,161,-67,-270,-397,-495,-562,-596,-602,-579,-550,-502,-470,-449,-457,-502,-566,-468,-174,127,338,469,487,432,343,265,240,264,311,332,320,289,243,126,5,-112,-219,-307,-312,-247,-96,189,407,394,94,44,650,1165,613,-394,-693,-658,-463,-238,-10,176,316,416,418,359,264,148,49,-23,-78,-132,-166,-191,-205,-222,-243,-227,-210,-157,-92,-26,24,59,68,83,105,121,134,153,151,128,102,70,44,37,37,26,15,-23
2018-09-21,13:59:07.177,-85,-144,-192,-190,-142,-88,-52,-58,-85,-102,-78,-28,62,166,254,360,427,394,285,195,138,57,-13,-49,-61,-57,-39,74,168,194,168,88,-196,-329,258,1009,806,-205,-674,-788,-738,-702,-733,-816,-871,-750,-518,-295,-93,103,250,343,354,255,150,94,76,74,107,152,181,193,184,138,42,-56,-122,-153,-106,-11,99,199,249,197,34,-149,-283,-365,-364,-296,-230,-130,4,137,293,421,418,334,236,140,64,-8,-84,-155,-190,-231,-267,-246,-283,-344,-366,-348,-316,-294,-272,-191,-103,-37,32,105,156,178,184,81,-151,239,1328,1988,1219,359,29,-86,-124,-136,-131,-142,-163,-152
2018-09-21,13:59:08.205,-143,-182,-230,-233,-191,-105,14,115,191,219,240,223,184,136,82,47,47,80,158,254,311,322,297,240,165,52,-94,-228,-368,-471,-506,-542,-556,-521,-490,-454,-412,-412,-438,-466,-440,-319,-153,16,166,265,317,334,298,195,99,86,143,185,201,208,167,47,-55,-151,-217,-263,-286,-250,-138,57,317,459,257,90,620,1324,1105,-70,-570,-644,-498,-305,-149,15,191,324,361,302,220,122,46,-6,-54,-96,-139,-163,-200,-234,-255,-251,-241,-212,-153,-105,-67,-26,19,55,63,73,54,34,10,-23,-40,-56,-77,-89,-87,-95,-83,-47,-8,11,57,71,66,44,3,-23,-52,-46
2018-09-21,13:59:09.233,-28,9,99,175,201,200,181,123,48,18,0,-49,-80,-81,-61,-23,3,33,92,135,115,22,-235,-190,484,1047,529,-394,-586,-581,-487,-441,-422,-422,-414,-396,-293,-159,-9,121,181,205,217,221,210,190,183,180,171,176,191,226,264,268,237,187,122,57,-14,-66,-95,-85,-50,-40,-78,-182,-295,-367,-410,-447,-453,-400,-285,-115,70,238,365,415,373,275,208,148,87,33,-42,-76,-54,-46,-76,-108,-148,-175,-195,-180,-145,-132,-105,-80,-38,17,66,104,111,-74,31,859,1697,1307,335,-64,-211,-237,-248,-236,-200,-177,-149,-115,-82,-43,-24,-51,-56,-11,44,102,118,126
2018-09-21,13:59:10.261,128,124,126,116,101,82,81,65,39,12,22,47,30,5,-10,-26,-43,-58,-93,-152,-245,-335,-380,-418,-449,-444,-423,-392,-351,-328,-309,-284,-247,-193,-98,20,116,193,216,201,219,247,236,186,127,86,63,64,62,32,-7,-63,-128,-201,-243,-201,-126,-104,242,1030,1526,845,-187,-492,-534,-468,-415,-357,-248,-113,17,144,270,348,330,276,215,164,114,62,15,-16,-51,-87,-105,-117,-112,-101,-76,-37,-6,-8,-11,-19,-41,-76,-86,-53,-10,14,42,48,64,47,13,-14,-9,5,44,87,97,76,84,132,151,151,137,105,40,-50,-115,-128,-81,41,154,211,174,109
2018-09-21,13:59:11.289,19,-66,-104,-119,-134,-146,-135,-121,-91,-27,44,30,-79,342,1302,1817,985,7,-374,-533,-557,-579,-579,-558,-526,-475,-457,-427,-420,-467,-532,-489,-316,-127,30,169,276,357,374,331,291,272,276,272,282,312,321,274,184,48,-117,-253,-346,-388,-351,-252,-120,-27,-19,-80,-176,-255,-315,-360,-394,-404,-326,-181,-24,128,304,431,450,384,274,180,168,176,153,95,31,-24,-101,-157,-189,-191,-193,-192,-185,-173,-153,-112,-90,-236,-196,641,1712,1637,578,73,-128,-205,-224,-202,-161,-122,-83,-55,-35,-40,-52,-53,-38,-1,28,32,-4,-38,-39,-30,12,77,142,196,230,252,258,241
2018-09-21,13:59:12.316,194,119,21,-59,-114,-146,-141,-103,-59,-31,-35,-74,-127,-168,-231,-293,-339,-397,-421,-428,-422,-383,-349,-322,-298,-335,-404,-397,-244,-31,192,378,465,458,415,334,212,127,76,73,85,93,82,40,-17,-93,-231,-499,-451,334,1136,906,158,126,105,20,-50,-101,-115,-128,-149,-158,-136,-80,8,118,224,259,267,254,207,143,86,45,25,7,-20,-30,-3,-4,-29,-37,-76,-105,-118,-139,-164,-153,-139,-133,-107,-74,-78,-92,-102,-113,-118,-118,-110,-117,-118,-101,-68,-46,-43,-5,33,73,133,134,72,-34,-70,8,101,179,208,217,163,97,50,31,14,1,-5,2,19,44
2018-09-21,13:59:13.344,55,-21,-130,361,1193,1335,368,-301,-533,-620,-641,-658,-654,-625,-590,-552,-491,-418,-354,-308,-288,-297,-286,-160,39,219,356,408,389,380,380,381,360,364,399,428,405,336,241,109,-40,-192,-304,-339,-319,-239,-128,-44,-35,-102,-177,-207,-199,-194,-195,-190,-165,-94,16,150,288,382,387,353,282,231,212,205,148,75,19,-56,-151,-185,-208,-223,-212,-187,-172,-150,-119,-74,-76,-234,13,975,1878,1415,494,55,-119,-179,-215,-212,-204,-181,-151,-91,-50,-80,-127,-132,-132,-115,-64,-7,44,78,137,218,287,305,279,244,234,240,241,221,170,94,23,-23,-63,-62,-38,-7,24,62
2018-09-21,13:59:14.372,57,20,-28,-99,-182,-274,-362,-421,-442,-428,-399,-366,-350,-349,-409,-483,-456,-341,-184,-28,141,323,430,429,328,212,61,-20,-35,-22,-2,14,-9,-56,-102,-147,-208,-377,-495,72,1015,1255,402,-48,-109,-127,-166,-238,-300,-347,-384,-390,-358,-284,-175,-38,94,227,358,442,398,286,191,126,77,51,27,11,14,-4,-24,-52,-104,-142,-171,-220,-269,-310,-311,-261,-195,-140,-95,-42,0,43,45,32,17,8,20,10,2,-2,32,85,138,135,97,76,57,43,65,108,86,34,44,97,110,113,107,71,53,44,23,1,-29,-43,-65,-201,-219,417,1266,1289,348,-56,-124,-156
2018-09-21,13:59:15.400,-198,-268,-316,-356,-387,-408,-429,-430,-412,-387,-340,-297,-262,-252,-288,-309,-239,-57,142,311,441,526,543,488,405,348,281,192,126,78,18,-63,-139,-220,-294,-363,-414,-427,-410,-289,-83,155,308,274,160,56,-4,-38,-70,-97,-137,-143,-124,-47,56,185,354,491,476,395,315,197,64,-23,-89,-143,-183,-207,-240,-250,-237,-231,-316,-500,-43,1037,1677,816,46,-219,-275,-213,-148,-110,-79,-84,-77,-69,-80,-107,-147,-171,-182,-205,-213,-162,-94,-9,95,201,279,354,431,474,465,402,341,302,269,221,147,38,-96,-221,-306,-351,-370,-340,-271,-197,-120,-38,6,34,-17,-78,-124,-174
2018-09-21,13:59:16.428,-244,-298,-331,-320,-310,-312,-314,-314,-374,-411,-300,-148,-17,111,224,248,235,193,172,152,126,101,73,45,27,-24,-130,-289,69,790,970,115,-459,-396,-255,-130,-88,-75,-65,-65,-64,-38,-4,31,82,134,185,211,232,225,195,150,92,58,39,20,1,-4,-14,-29,-61,-89,-100,-125,-162,-195,-228,-227,-196,-145,-92,-43,2,52,69,57,65,68,58,42,60,74,96,136,144,146,143,121,100,69,43,112,192,236,265,301,292,232,168,93,3,-41,-63,-75,-111,-128,-113,-135,-272,66,926,1438,804,-18,-273,-399,-448,-483,-501,-487,-466,-448,-426,-388,-331,-302,-310,-328
2018-09-21,13:59:17.456,-282,-154,-39,82,220,273,255,241,255,275,296,293,286,277,276,258,173,55,-89,-232,-329,-367,-347,-292,-207,-104,-52,-74,-153,-249,-302,-333,-357,-349,-287,-187,-61,77,205,315,380,384,336,237,160,169,182,127,48,-26,-98,-186,-234,-256,-261,-244,-213,-184,-123,-91,-60,-86,-288,-17,1061,2057,1595,609,89,-127,-172,-176,-151,-142,-134,-140,-164,-214,-250,-262,-247,-229,-208,-188,-149,-61,43,135,199,279,337,359,360,342,321,281,207,141,84,-37,-197,-289,-314,-242,-175,-100,-39,-16,-27,-80,-126,-157,-194,-263,-320,-363,-369,-354,-317,-280,-263,-258,-274,-355,-386,-313,-195,-53
2018-09-21,13:59:18.484,143,293,316,293,211,90,6,-21,-34,-20,19,25,-9,-41,-70,-85,-166,-326,4,861,1348,698,-85,-184,-202,-186,-215,-259,-286,-323,-294,-179,-25,135,283,403,457,425,362,286,202,142,108,97,94,93,71,53,38,3,-41,-60,-79,-110,-140,-170,-188,-174,-125,-76,-35,4,42,60,38,17,23,42,81,105,126,142,146,148,144,136,120,103,82,79,40,15,25,18,-13,-34,-26,-31,-25,1,-2,-23,-40,-50,-65,-75,-100,-108,-177,-328,105,1086,1606,773,-10,-219,-293,-345,-421,-478,-489,-482,-460,-425,-389,-347,-314,-313,-322,-375,-395,-283,-95,69,193,270,313,355
2018-09-21,13:59:19.511,383,338,316,293,249,212,213,205,158,56,-74,-196,-273,-298,-288,-239,-161,-56,24,58,28,-45,-117,-171,-207,-228,-181,-97,-1,120,242,328,307,229,138,57,57,58,14,-43,-99,-179,-239,-272,-285,-290,-298,-298,-278,-260,-246,-203,-229,-454,-92,1085,2049,1397,452,-14,-252,-351,-360,-344,-343,-339,-279,-237,-226,-230,-240,-227,-211,-177,-125,-53,23,121,212,273,293,322,365,387,398,350,255,140,22,-51,-101,-151,-189,-198,-201,-178,-141,-95,-44,-6,-28,-59,-102,-175,-249,-296,-304,-317,-313,-287,-256,-239,-226,-226,-215,-142,-26,139,320,423,424,358,279,184,117,79,69,80
2018-09-21,13:59:20.539,76,43,0,-18,-30,-69,-230,-341,198,1100,1353,522,-39,-145,-143,-98,-89,-84,-76,-76,-85,-74,-34,21,94,178,241,254,257,228,173,113,72,64,55,51,44,26,31,21,-10,-37,-66,-103,-148,-202,-230,-234,-213,-197,-166,-142,-101,-89,-99,-109,-90,-66,-42,-3,27,39,34,26,7,-30,-63,-61,-33,-34,-55,-108,-136,-78,-13,51,131,190,209,229,239,231,198,146,77,21,-19,-24,-7,-84,-150,507,1573,1860,880,137,-185,-367,-444,-498,-538,-542,-545,-510,-467,-433,-380,-340,-345,-380,-464,-421,-229,25,228,337,388,376,364,338,293,257,226,194,155,135,81,-21
2018-09-21,13:59:21.567,-145,-255,-342,-397,-410,-360,-263,-89,51,55,-6,-98,-172,-207,-229,-273,-313,-278,-166,-33,107,260,383,421,358,260,138,103,101,72,33,-16,-60,-131,-172,-225,-262,-240,-242,-247,-232,-199,-173,-151,-273,-217,658,1801,1717,628,118,-98,-186,-207,-213,-187,-162,-166,-141,-116,-107,-101,-92,-104,-91,-60,-8,16,15,15,16,27,69,131,210,283,325,332,325,298,227,115,-10,-123,-191,-206,-151,-47,101,222,213,115,33,-71,-227,-339,-376,-405,-397,-379,-366,-344,-300,-253,-248,-331,-388,-353,-191,21,174,322,435,466,397,284,173,63,-5,-43,-51,-33,-23,-39,-74,-122,-194,-264
2018-09-21,13:59:22.595,-407,-340,462,1332,1215,182,-255,-358,-338,-306,-308,-316,-350,-373,-320,-194,-31,133,261,359,358,276,202,145,90,47,10,0,5,6,3,-22,-49,-70,-54,-77,-111,-124,-139,-149,-142,-139,-113,-77,-19,21,28,19,10,-8,6,0,-32,-45,-32,-10,10,36,54,51,42,7,-28,-46,-14,109,255,333,353,334,268,153,66,16,-29,-73,-100,-114,-115,-103,-74,-36,-140,129,1018,1668,1088,94,-264,-390,-421,-453,-482,-505,-510,-477,-439,-405,-374,-373,-418,-443,-354,-201,3,172,288,382,439,452,411,354,321,312,306,317,318,265,162,30,-84,-198,-305,-384,-436,-423,-323,-156
2018-09-21,13:59:23.623,28,130,52,-108,-229,-297,-333,-318,-251,-161,-55,63,183,280,368,369,291,221,126,106,132,99,31,-61,-116,-194,-273,-313,-324,-333,-314,-279,-226,-173,-133,-115,-235,-202,583,1603,1567,569,37,-172,-216,-214,-194,-147,-99,-57,-29,-8,-12,-42,-61,-64,-56,-46,-69,-86,-85,-47,9,61,107,131,146,171,220,252,264,242,194,114,33,-23,-83,-138,-146,-112,-73,-37,-36,-72,-138,-232,-324,-365,-405,-433,-427,-377,-335,-302,-248,-205,-179,-213,-265,-226,-74,125,273,398,440,412,307,195,118,86,63,55,75,107,115,83,56,-46,-249,-17,712,1132,510,-195,-210,-127,-47,-85
2018-09-21,13:59:24.651,-171,-256,-291,-325,-364,-395,-376,-286,-128,44,200,333,443,464,404,306,220,162,125,113,114,91,61,26,-20,-64,-93,-148,-213,-247,-258,-248,-217,-175,-114,-58,-16,2,20,18,20,27,21,28,49,60,74,74,60,37,-2,-38,-49,-31,14,71,76,27,-29,-51,-34,7,87,170,216,229,198,145,95,44,-14,-139,-377,-88,868,1545,890,56,-106,-149,-158,-175,-237,-345,-428,-464,-475,-457,-411,-358,-320,-283,-253,-245,-271,-263,-179,-47,111,289,430,523,539,505,456,388,306,229,156,100,8,-101,-208,-295,-374,-450,-504,-514,-494,-421,-270,-79,92,105,0,-96,-152,-162
2018-09-21,13:59:25.679,-150,-135,-83,-9,92,206,280,274,240,217,225,228,179,115,43,-18,-105,-163,-199,-191,-194,-210,-214,-207,-174,-130,-160,-392,-113,1020,2078,1581,575,44,-220,-286,-292,-272,-238,-189,-147,-108,-97,-110,-151,-215,-236,-195,-123,-75,-74,-106,-132,-113,-47,64,183,299,392,433,422,358,268,163,54,-50,-154,-208,-206,-160,-89,-36,-3,22,-2,-36,-85,-177,-281,-333,-351,-341,-328,-302,-259,-224,-214,-240,-297,-281,-197,-8,222,405,485,476,393,270,170,91,40,9,10,30,37,14,-20,-69,-168,-329,-10,736,1030,308,-237,-195,-143,-134,-199,-274,-325,-340,-302,-226,-123,3,90,193
2018-09-21,13:59:26.706,283,290,260,207,138,85,65,27,-9,-25,-32,-38,-37,-54,-79,-117,-134,-144,-156,-187,-201,-206,-182,-141,-107,-54,-39,-25,-22,-8,20,43,74,98,127,140,141,137,105,71,40,1,-22,-44,-75,-118,-109,-29,70,145,195,228,224,219,221,210,165,94,10,-79,-134,-151,-159,-310,-260,516,1416,1309,374,-53,-193,-206,-218,-292,-353,-370,-419,-441,-398,-218,-171,-185,-203,-240,-263,-228,-117,11,131,247,344,389,379,372,345,309,270,242,212,172,113,-10,-130,-207,-251,-287,-317,-328,-284,-184,-86,-7,14,-17,-96,-185,-271,-312,-334,-329,-303,-244,-152,-50,67,171,257,308
2018-09-21,13:59:27.734,306,272,269,244,202,128,37,-36,-108,-145,-178,-180,-186,-216,-250,-248,-207,-163,-143,-295,-202,722,1855,1722,679,110,-150,-227,-278,-295,-306,-278,-234,-171,-87,-19,-1,-23,-72,-111,-100,-59,-37,-50,-77,-84,-36,29,112,200,265,299,318,305,235,150,85,18,-62,-151,-209,-245,-260,-223,-138,-63,-17,-9,-15,-4,-10,-40,-80,-118,-155,-163,-171,-174,-169,-161,-170,-202,-208,-151,-57,79,225,314,318,289,237,147,75,34,10,5,0,-27,-48,-60,-74,-95,-249,-337,242,1039,1007,44,-312,-231,-79,-3,-48,-127,-192,-236,-291,-353,-361,-312,-228,-117,7,100,179,261,341,373
2018-09-21,13:59:28.762,346,280,236,203,172,147,120,85,48,3,-80,-175,-241,-264,-284,-303,-298,-270,-226,-174,-132,-91,-30,14,48,61,60,52,11,-25,-21,25,96,173,184,154,115,56,23,53,93,85,114,163,146,87,56,58,26,22,18,11,-7,-50,-85,-97,-105,-95,-125,-323,-171,689,1552,1207,278,-58,-176,-140,-140,-171,-185,-220,-273,-347,-406,-439,-436,-420,-378,-334,-292,-269,-306,-401,-386,-239,-24,192,363,464,506,506,479,404,312,212,112,23,-40,-107,-157,-196,-218,-246,-274,-301,-281,-221,-86,48,120,100,19,-78,-155,-210,-251,-275,-285,-263,-205,-122,-10,119,234,363,426,423
2018-09-21,13:59:29.790,343,237,161,55,-24,-79,-104,-121,-147,-169,-216,-226,-194,-214,-384,-225,670,1562,1250,348,20,-82,-79,-72,-77,-85,-96,-108,-84,-42,-6,20,26,6,-27,-25,-13,2,37,86,141,183,171,119,80,71,75,92,120,122,98,53,-15,-93,-130,-156,-170,-162,-144,-121,-96,-48,43,98,105,88,77,47,13,-1,-23,-53,-89,-119,-114,-127,-149,-174,-213,-307,-315,-179,-68,43,103,141,133,113,103,91,70,60,34,24,8,-12,-49,-152,-364,-42,804,1292,424,-396,-489,-316,-97,-26,-32,-63,-102,-147,-192,-255,-314,-342,-342,-326,-285,-187,-39,125,270,368,367,315,258,215
2018-09-21,13:59:30.818,183,160,141,109,74,46,-20,-97,-181,-241,-266,-256,-199,-142,-81,-39,-7,-1,-13,-14,-27,-41,-63,-54,-54,-63,-43,-39,-43,-24,25,71,115,136,101,83,98,85,77,84,63,23,-4,-15,9,49,47,26,44,89,75,15,-198,-320,309,1276,1426,499,-23,-135,-117,-85,-105,-164,-226,-286,-318,-299,-270,-261,-254,-253,-289,-341,-308,-204,-81,32,106,158,195,251,306,328,315,310,294,245,181,111,18,-76,-171,-253,-313,-363,-377,-396,-398,-328,-216,-80,12,15,-39,-92,-136,-148,-152,-168,-129,-45,44,136,231,317,365,357,361,367,313,211,121,51,-60,-151,-187,-253
2018-09-21,13:59:31.846,-303,-342,-348,-346,-301,-265,-240,-349,-459,203,1417,1846,963,263,-62,-184,-236,-267,-274,-250,-194,-113,-7,58,68,61,17,-20,-38,-34,-4,15,1,-45,-108,-139,-125,-80,-8,76,150,213,240,258,244,188,112,22,-53,-123,-170,-198,-238,-213,-139,-90,-62,10,155,215,122,32,-21,-61,-76,-93,-143,-195,-222,-205,-191,-206,-275,-348,-396,-317,-138,26,122,197,237,203,201,189,158,111,63,37,27,27,13,-27,-217,-283,336,1132,1055,17,-433,-407,-220,-54,-2,-31,-114,-189,-231,-253,-261,-285,-282,-259,-201,-85,68,210,317,359,351,298,261,238,209,182,152,116,61,0
2018-09-21,13:59:32.874,-75,-141,-219,-283,-325,-366,-364,-337,-284,-217,-145,-90,-35,16,61,74,77,101,102,93,100,124,156,184,178,157,98,56,18,-18,-27,-5,-20,-80,-141,-195,-226,-204,-137,-37,37,94,153,193,211,211,164,-68,-55,774,1714,1389,207,-277,-451,-461,-398,-303,-200,-98,-17,56,107,124,68,-24,-82,-116,-115,-102,-99,-141,-209,-288,-201,-103,-20,65,144,214,273,291,271,238,188,123,70,25,-8,-58,-105,-169,-227,-278,-311,-309,-313,-325,-350,-359,-311,-234,-129,-2,120,229,289,263,206,148,102,36,-31,-114,-183,-201,-219,-256,-280,-241,-149,-76,24,128,223,290,285,204
2018-09-21,13:59:33.901,128,76,51,-17,-275,-210,612,1530,1248,220,-301,-493,-477,-432,-382,-307,-227,-168,-112,-82,-50,-25,0,26,37,42,35,32,17,7,20,38,54,67,94,125,146,144,96,17,-53,-88,-105,-129,-145,-183,-204,-187,-152,-113,-68,-2,66,112,129,111,67,21,-2,-28,-71,-135,-195,-231,-245,-230,-167,-76,9,92,146,175,198,219,301,354,355,292,205,116,34,-29,-81,-115,-146,-182,-211,-206,-192,-170,-213,-362,-52,824,1417,782,-90,-318,-363,-329,-304,-294,-266,-236,-206,-160,-128,-115,-106,-89,-64,-34,-2,13,15,12,16,32,66,110,151,184,208,198,177,165,146,97
2018-09-21,13:59:34.929,15,-66,-126,-181,-229,-251,-245,-219,-185,-162,-148,-138,-105,-62,-34,-10,0,15,19,18,1,8,22,48,79,112,125,108,97,91,111,201,296,321,278,217,137,27,-61,-139,-244,-328,-355,-321,-231,-118,11,105,18,71,891,2032,1962,892,135,-229,-298,-320,-337,-356,-370,-390,-393,-406,-428,-426,-417,-382,-344,-288,-193,-95,-2,58,95,143,175,196,232,245,223,199,163,125,61,-4,-84,-205,-396,-577,-540,-363,-211,-120,-55,-59,-113,-154,-146,-114,-64,3,96,223,385,545,631,566,449,371,262,81,-114,-275,-374,-388,-366,-390,-422,-389,-286,-179,-5,228,296,300,282,264
2018-09-21,13:59:35.957,202,151,129,103,48,-17,-153,-89,-31,371,1116,1327,414,-248,-381,-355,-300,-278,-259,-225,-189,-158,-116,-105,-91,-83,-69,-35,-12,-30,-10,4,16,23,26,25,47,81,123,127,102,76,72,65,33,-28,-105,-153,-202,-254,-303,-332,-335,-274,-214,-160,-79,-5,52,26,-48,-114,-150,-152,-135,-117,-93,-63,-29,18,85,142,187,216,196,139,96,105,145,144,87,17,-26,-84,-103,-117,-108,-99,-103,-94,-59,-4,32,52,-128,-198,547,1692,1718,627,86,-135,-252,-342,-411,-467,-521,-513,-462,-380,-267,-133,-15,55,80,94,116,184,270,386,499,573,579,527,456,388,318,246
2018-09-21,13:59:36.985,160,64,-5,-40,-50,-37,-5,54,150,147,61,-41,-171,-298,-404,-492,-536,-554,-547,-521,-491,-494,-542,-547,-445,-297,-171,-58,26,104,151,184,184,155,112,108,107,87,47,1,-55,-142,-211,-236,-251,-249,-224,-161,-76,38,122,80,-127,-7,719,1197,650,-211,-336,-253,-117,-7,75,156,200,213,214,188,161,142,129,115,94,46,-23,-58,-78,-38,3,36,84,153,216,273,313,326,315,299,268,209,168,97,0,-54,-106,-120,-122,-118,-103,-86,-61,-61,-60,-84,-99,-88,-69,-36,16,56,95,121,103,59,-2,-51,-89,-104,-80,-34,-30,-75,-106,-119,-147,-155,-139,-95
2018-09-21,13:59:38.013,-66,-73,-96,-107,-142,-195,-249,-395,-573,-145,711,1040,197,-461,-595,-600,-545,-464,-368,-273,-194,-105,-16,43,82,71,43,11,-7,-23,-26,10,49,49,24,5,0,9,39,62,87,120,168,217,238,169,33,-109,-234,-313,-334,-309,-259,-178,-86,12,115,198,210,175,113,76,55,48,13,0,-30,-98,-212,-301,-306,-267,-236,-226,-224,-139,-65,-9,68,142,159,155,151,142,109,91,67,38,18,10,22,1,-146,-194,541,1634,1660,520,-54,-177,-204,-228,-288,-310,-288,-211,-29,152,287,335,306,213,104,29,26,15,-17,-46,-74,-39,49,156,271,438,493,479,444,330
2018-09-21,13:59:39.041,174,-1,-156,-264,-392,-518,-469,-425,-428,-434,-407,-395,-392,-324,-299,-223,-97,40,157,190,180,213,200,203,178,177,157,112,75,-4,-83,-54,-32,-29,18,94,174,163,128,74,8,-67,-133,-180,-159,-127,-144,-195,-334,93,1104,1669,907,141,-47,-110,-140,-214,-328,-377,-408,-448,-434,-445,-449,-387,-282,-245,-182,-120,-87,-115,-86,-294,-177,99,210,238,289,286,235,208,191,81,11,23,20,-5,8,50,45,8,-46,-105,-138,-164,-161,-108,-88,-47,54,149,193,220,209,210,182,135,57,-23,-66,-73,4,171,261,252,240,208,185,104,10,-36,-133,-231,-284,-351,-371,-361
2018-09-21,13:59:40.069,-357,-482,-595,-121,720,1007,255,-375,-312,-98,161,348,438,390,308,249,238,271,265,189,60,-52,-102,-36,118,302,382,409,433,379,259,172,72,27,96,128,95,34,-39,-95,-144,-190,-195,-202,-223,-237,-268,-283,-315,-322,-285,-282,-317,-373,-358,-282,-252,-266,-212,-157,-155,-170,-160,-388,-220,5,187,263,258,182,131,88,45,-3,-35,-73,-91,-86,-108,-150,-179,-198,-236,-508,-412,580,1542,1291,395,35,-96,-101,-113,-144,-171,-188,-225,-277,-318,-364,-389,-374,-336,-274,-169,-66,33,78,93,87,22,-70,-97,-60,-40,-38,-99,-220,-290,-270,-271,-288,-297,-292,-237,-166,-124,-82
2018-09-21,13:59:41.096,-28,24,47,30,32,18,8,49,98,111,73,10,-37,-51,3,130,258,406,509,539,524,420,232,62,-4,-101,-169,-191,-196,-190,-160,-107,4,89,116,88,-68,-129,438,1277,1379,443,-125,-280,-325,-281,-275,-253,-203,-145,-105,-105,-141,-110,2,93,183,231,163,130,149,143,144,108,63,10,-10,-15,31,90,116,121,93,29,-17,-65,-162,-239,-295,-333,-351,-306,-240,-149,-50,19,77,117,118,98,71,23,-34,-91,-106,-91,-47,20,73,173,269,349,304,147,55,-59,-148,-164,-194,-233,-242,-306,-370,-333,-252,-188,-229,-354,104,1064,1618,910,218,18,-35,7,41,61
2018-09-21,13:59:42.124,53,83,100,67,-8,-116,-195,-197,-93,45,155,202,211,188,139,82,34,-6,-22,-27,-72,-50,-73,-158,-216,-224,-212,-175,-157,-178,-145,-89,-35,-4,1,12,1,-50,-130,-210,-233,-241,-212,-131,-64,0,30,52,75,105,92,76,131,143,146,125,93,41,-42,-71,-142,-184,-198,-180,-130,-54,23,45,-20,-245,-68,734,1326,788,-46,-211,-215,-129,-16,104,149,134,71,5,-48,-105,-146,-169,-148,-98,15,121,76,-42,-94,-134,-129,-125,-152,-134,-125,-68,-51,20,72,66,-6,-121,-247,-379,-421,-392,-392,-380,-289,-189,-168,-120,-50,84,239,357,449,455,423,350,234,105
2018-09-21,13:59:43.152,-8,-46,13,124,245,404,498,491,366,189,-9,-191,-316,-424,-467,-449,-401,-348,-336,-346,-344,-334,-465,-94,960,1765,1174,369,63,-95,-165,-235,-301,-337,-322,-277,-195,-106,-39,17,43,72,54,41,1,0,29,37,54,136,149,181,195,194,162,139,45,-77,-175,-250,-332,-358,-300,-213,-108,1,119,228,296,356,379,356,298,248,177,87,13,-66,-106,-140,-146,-127,-65,-13,-8,36,172,262,231,61,-92,-216,-282,-303,-335,-395,-512,-624,-643,-574,-477,-364,-377,-523,18,1135,1748,894,149,-29,-28,16,39,69,92,105,89,37,-15,-41,-129,-190,-166,-71,32,179,271,260
2018-09-21,13:59:44.180,257,246,235,192,94,28,-12,-29,-54,-101,-157,-197,-208,-207,-199,-167,-109,-28,9,-45,-121,-186,-270,-338,-364,-354,-303,-226,-136,-50,62,171,190,206,251,227,175,144,167,173,167,100,4,-93,-227,-345,-398,-388,-338,-312,-321,-378,-389,-327,-265,-317,101,1155,1917,1395,567,302,153,60,8,-51,-105,-143,-172,-201,-234,-234,-191,-135,-44,72,174,119,15,-69,-139,-186,-139,-113,-118,-117,-168,-226,-253,-212,-156,-138,-156,-144,-140,-166,-149,-90,-50,-34,29,95,118,127,139,169,180,226,196,126,64,-8,-72,-45,24,112,255,372,404,426,456,331,107,-103,-279,-479,-615,-479
2018-09-21,13:59:45.208,-351,-346,-258,-224,-197,-199,-181,-185,117,1087,2079,1933,972,390,22,-165,-218,-277,-322,-313,-308,-379,-449,-346,-237,-168,-86,-105,1,145,139,157,164,182,145,202,242,314,314,276,248,173,141,102,-47,-252,-463,-605,-614,-520,-393,-148,33,111,132,143,109,67,-53,-104,-60,-65,-142,-230,-270,-276,-253,-168,-58,36,185,271,395,392,211,167,-99,-342,-472,-518,-528,-601,-550,-463,-426,-350,-340,-494,-456,247,1056,1094,251,-52,-30,18,49,9,-53,104,125,65,36,-8,-38,-20,5,59,148,224,266,291,390,439,402,346,295,244,156,119,13,-86,103,121,-31,-120,-171,-234
2018-09-21,13:59:46.236,-248,-256,-213,-86,15,79,115,-38,-229,-314,-295,-300,-310,-273,-206,-157,-171,-137,-63,36,71,121,244,328,337,288,215,132,88,10,-54,-66,-54,-82,-124,-141,-168,-242,-389,-596,-436,430,1176,770,-5,-120,-54,130,310,353,313,244,155,-12,-50,-54,-113,-236,-242,-170,-153,-132,-71,-76,-61,161,436,643,566,230,-41,-167,-265,-419,-631,-668,-518,-399,-396,-433,-492,-502,-412,-267,-91,17,57,83,86,73,59,76,174,240,306,321,279,157,-9,-71,3,33,50,148,243,304,314,270,187,215,208,54,-127,-299,-387,-367,-308,-222,-159,-215,-240,407,1478,1878,1075,491,162,-64
2018-09-21,13:59:47.264,-94,-92,-186,-348,-462,-543,-507,-476,-409,-266,-191,-126,-95,-23,38,130,148,71,223,314,287,348,356,312,248,168,96,42,-33,-187,-332,-420,-407,-335,-261,-153,-29,83,131,58,16,0,-60,-134,-179,-205,-253,-300,-292,-277,-305,-270,-132,-24,87,139,134,156,202,71,-150,-279,-320,-344,-380,-407,-488,-441,-324,-211,-229,-216,406,1144,1068,247,-37,-66,-1,78,51,4,63,79,95,121,117,82,12,-46,-48,-29,17,178,233,302,384,421,409,377,359,311,251,211,113,62,-30,-180,-307,-372,-339,-277,-187,-118,-53,-39,-74,-80,-73,-86,-88,-52,-55,-2,0,-122,-201,-188
2018-09-21,13:59:48.291,-111,-27,10,58,114,204,291,323,290,265,260,189,107,45,-33,-123,-199,-255,-335,-442,-666,-834,-935,-615,442,1382,969,22,-150,-111,25,139,247,357,392,327,223,170,115,84,48,-16,-110,-175,-169,-118,-73,56,247,511,772,724,554,412,260,-5,-165,-244,-296,-411,-504,-614,-737,-796,-827,-855,-743,-569,-513,-391,-250,-164,-135,-93,-11,44,56,60,68,145,232,296,303,224,114,75,130,245,392,518,574,574,524,428,185,-131,-342,-526,-651,-678,-545,-365,-357,-435,67,1125,1923,1470,576,270,128,39,-81,-224,-331,-383,-455,-487,-488,-455,-387,-327,-201,-102,-243,-326,-278,-165
2018-09-21,13:59:49.319,-52,54,121,142,137,151,144,109,169,189,113,46,6,-56,-149,-243,-295,-298,-258,-173,-81,72,212,356,445,482,403,318,265,196,144,131,105,77,74,64,31,46,130,165,141,135,193,160,85,59,1,-59,-158,-285,-377,-452,-525,-595,-755,-746,-75,798,859,-71,-512,-587,-437,-277,-179,-80,-20,13,11,3,3,-6,10,95,198,234,226,158,61,-30,-25,66,215,420,692,901,1006,937,720,469,189,-106,-399,-650,-779,-797,-729,-611,-432,-249,-76,98,285,442,480,413,275,155,46,-27,-36,-78,-160,-221,-276,-285,-242,-217,-248,-241,-166,-90,-29,87,115,134,159,117
2018-09-21,13:59:50.347,22,-67,-103,-152,-232,-377,-572,-115,923,1349,508,-167,-340,-366,-335,-325,-310,-282,-225,-123,39,213,381,503,511,432,313,211,106,24,-53,-121,-72,-18,50,109,170,420,732,713,520,329,58,-284,-526,-642,-656,-622,-584,-540,-583,-730,-866,-894,-882,-803,-637,-444,-245,-60,72,127,111,143,162,146,162,216,346,497,515,380,172,62,160,230,307,369,412,419,386,361,223,21,-100,-271,-545,-220,617,1083,414,-202,-192,-27,193,257,225,207,174,97,59,-1,-19,-64,-202,-427,-504,-477,-396,-237,-152,-76,-39,-64,-55,46,207,286,261,251,216,106,-11,-132,-282,-456,-581,-615
2018-09-21,13:59:51.375,-590,-528,-482,-448,-379,-261,-130,18,172,343,513,635,656,616,530,427,328,255,183,126,119,143,109,52,33,48,47,126,184,208,220,175,8,-168,-285,-386,-474,-625,-513,175,715,117,-832,-944,-768,-519,-382,-303,-232,-121,28,163,231,247,262,245,215,221,292,392,383,374,334,262,189,198,310,447,547,577,628,617,479,316,125,-112,-387,-607,-707,-621,-567,-506,-346,-111,96,161,145,158,178,122,7,-64,-101,-139,-209,-257,-352,-407,-347,-243,-144,-47,-25,-14,-45,-150,-161,-132,-88,-40,-28,-82,-150,-179,-218,-192,-258,-391,104,1131,1510,586,-130,-279,-303,-297,-293,-222
2018-09-21,13:59:52.403,-126,10,164,272,332,332,312,266,207,168,121,71,43,39,35,54,103,156,222,421,595,695,681,578,348,36,-379,-622,-662,-814,-765,-697,-695,-655,-622,-650,-782,-830,-773,-738,-666,-517,-260,62,210,240,242,256,222,161,117,178,347,441,426,308,190,87,62,86,143,226,370,429,412,323,151,-49,-317,-484,-61,539,479,-491,-873,-701,-431,-155,134,416,569,540,477,411,315,173,50,-19,-68,-120,-166,-278,-332,-269,-201,-266,-312,-203,-43,81,180,265,353,332,355,284,170,56,-139,-307,-375,-340,-291,-243,-197,-151,-81,-39,9,87,145,172,180,179,205,246,304,376
2018-09-21,13:59:53.431,400,389,350,315,299,236,165,106,47,-38,-77,-112,-73,119,314,438,457,367,264,138,-151,-502,-181,553,700,-266,-892,-1005,-968,-846,-764,-692,-628,-532,-412,-286,-117,55,151,155,159,183,199,159,128,153,195,227,245,281,285,263,259,242,243,257,297,376,451,450,275,0,-243,-418,-534,-561,-512,-406,-275,-135,24,181,307,411,408,255,122,39,-7,-57,-123,-159,-132,-99,-94,-119,-133,-145,-187,-158,-118,-92,-52,6,28,64,76,93,86,-143,-16,840,1677,1186,253,-77,-209,-263,-309,-348,-344,-341,-344,-324,-353,-426,-419,-342,-255,-158,-30,86,183,196,204,207,211,231
2018-09-21,13:59:54.459,287,375,410,333,238,162,103,59,69,232,323,230,62,-73,-224,-391,-506,-570,-582,-560,-543,-553,-514,-451,-448,-518,-628,-510,-178,209,483,532,410,295,264,233,163,87,-9,-50,-17,12,-7,-37,-65,-90,-130,-174,-204,-197,-190,-172,387,1286,1578,572,-308,-530,-548,-522,-515,-450,-358,-262,-143,0,158,337,449,429,301,132,4,-67,-115,-156,-197,-204,-188,-183,-159,-119,-66,-43,-69,-90,-72,-78,-127,-123,-69,-2,8,0,37,74,73,79,75,91,97,61,-12,-82,-89,-121,-123,-46,24,68,89,82,17,-90,-70,60,177,258,293,266,196,172,157,108,41,-30,-77,-93
2018-09-21,13:59:55.486,-40,29,60,-55,137,942,1616,1151,69,-400,-558,-607,-656,-685,-654,-607,-545,-463,-373,-299,-279,-337,-518,-491,-31,470,750,862,890,774,631,531,443,432,470,524,597,596,505,373,223,101,9,-69,-75,8,137,252,258,139,-26,-152,-210,-255,-326,-353,-285,-133,60,215,346,465,536,449,313,246,213,142,44,-31,-120,-240,-278,-309,-369,-397,-381,-366,-333,-315,-316,-351,-574,-419,534,1541,1215,287,-81,-239,-345,-381,-340,-289,-286,-326,-357,-396,-426,-433,-446,-395,-352,-332,-346,-350,-318,-217,-53,120,250,327,338,311,283,279,251,163,42,-76,-185,-241,-217,-144,-39,9,-40,-108
2018-09-21,13:59:56.514,-233,-367,-495,-592,-671,-710,-713,-689,-631,-556,-478,-403,-371,-375,-462,-582,-425,-8,407,640,723,659,507,320,192,49,0,75,112,93,69,76,74,19,-220,-412,130,990,1079,179,-160,18,122,41,-129,-286,-423,-528,-542,-446,-302,-49,203,400,626,669,549,382,244,173,151,135,102,73,100,157,127,35,-81,-178,-166,-144,-168,-225,-291,-271,-192,-113,-23,45,39,-13,-36,-12,82,213,290,309,238,142,92,43,44,110,180,212,236,251,224,217,220,260,269,271,232,201,159,100,35,-15,-31,-34,-54,-238,-206,625,1658,1627,656,182,-60,-213,-278,-328,-389,-427,-456,-486
2018-09-21,13:59:57.542,-525,-499,-457,-396,-387,-370,-357,-384,-381,-207,48,303,520,606,578,513,427,360,293,238,216,199,169,94,-19,-132,-219,-311,-371,-410,-397,-304,-146,1,50,13,-95,-215,-300,-326,-342,-381,-438,-388,-237,-23,195,427,620,587,431,264,140,18,-79,-144,-181,-229,-258,-261,-244,-244,-242,-258,-391,-397,257,1205,1285,352,-134,-282,-219,-111,-58,-35,-6,5,15,9,46,59,44,40,-9,-104,-143,-145,-127,-64,-3,39,61,109,178,254,345,412,461,486,461,387,267,118,-59,-220,-323,-379,-375,-325,-193,-37,95,209,271,226,100,-23,-130,-237,-350,-447,-509,-526,-505,-472,-393,-264
2018-09-21,13:59:58.570,-201,-199,-256,-335,-435,-326,-53,174,326,392,419,352,210,74,12,-87,-130,456,1350,1576,553,-168,-397,-398,-370,-377,-348,-209,-11,102,114,46,-80,-224,-342,-392,-382,-390,-407,-332,-172,23,276,530,727,758,660,535,433,325,197,84,-36,-151,-289,-382,-460,-486,-487,-487,-446,-409,-393,-403,-403,-405,-382,-327,-231,-95,19,109,131,154,207,293,351,440,441,360,280,209,123,50,11,1,-12,-67,-156,-230,-268,-239,-134,-51,-109,286,1326,1991,1198,171,-161,-292,-301,-301,-312,-309,-266,-129,33,133,185,154,77,0,-81,-186,-306,-403,-443,-433,-406,-356,-274,-219,-166,-134,-181,-260
2018-09-21,13:59:59.598,-324,-155,116,346,455,414,293,97,-55,-158,-229,-243,-178,-79,-19,-13,-14,-43,-75,-113,-150,-120,-32,37,110,106,27,-63,-105,-95,-86,-108,-168,-260,-330,-263,-89,126,344,482,467,405,323,242,131,-129,-185,511,1365,1179,204,-197,-389,-408,-363,-376,-393,-394,-391,-407,-418,-398,-328,-167,31,202,310,323,260,272,268,291,359,430,442,375,270,201,232,302,332,316,239,145,79,90,124,165,210,233,229,169,-31,-23,111,-90,-206,43,310,380,212,8,-115,-217,-462,-488,-161,10,70,99,19,-105,-214,-315,-366,-380,-366,-337,-307,-288,-267,-241,-201,-254,-363,50,901,1342
2018-09-21,14:00:00.626,529,-148,-218,-203,-129,-122,-131,-117,-102,-87,-93,-115,-160,-191,-205,-229,-201,-151,-110,-35,50,123,160,142,69,8,-19,-25,-57,-96,-110,-84,-49,17,115,241,287,242,163,68,-27,-116,-192,-234,-261,-290,-296,-282,-261,-270,-293,-260,-300,-355,-403,-442,-505,-483,-210,123,348,427,430,392,398,445,461,434,267,135,78,26,-108,-122,-93,-286,73,1143,1814,1066,150,-131,-222,-201,-168,-163,-164,-156,-143,-106,-25,36,10,0,44,83,110,150,174,158,133,116,75,40,-3,-7,-46,-110,-159,-185,-212,-240,-277,-331,-389,-469,-577,-611,-486,-261,0,146,182,167,133,59,-27,-69
2018-09-21,14:00:01.654,-77,-38,-22,-19,22,40,4,-89,-95,-34,-16,-19,2,100,161,152,68,-39,-166,-255,-278,-296,-325,-315,-248,-258,-125,725,1830,1959,959,371,83,-62,-163,-232,-282,-316,-352,-384,-397,-405,-389,-379,-381,-397,-345,-280,-247,-239,-260,-234,-13,206,319,373,410,432,428,414,423,415,367,275,154,27,-69,-119,-154,-182,-211,-237,-249,-221,-128,0,114,224,341,434,469,456,406,319,245,194,179,217,252,277,285,307,364,384,387,309,206,109,-29,-217,-354,-463,-520,-571,-760,-438,455,1070,413,-432,-734,-911,-761,-392,-36,147,228,288,308,261,139,17,-20,4,40,55,46,14
2018-09-21,14:00:02.681,-21,-53,-76,-74,-64,-4,131,289,365,333,254,172,61,-61,-167,-307,-458,-564,-589,-512,-329,-105,81,134,95,46,-15,-80,-121,-191,-247,-265,-296,-317,-345,-340,-305,-240,-162,-75,-67,-91,-138,-190,-190,-148,-66,36,118,191,255,259,219,99,-57,351,1275,1588,675,-7,-226,-297,-268,-210,-183,-197,-208,-230,-240,-178,-100,-94,-128,-125,-93,-17,69,121,138,116,89,116,129,131,113,104,109,117,129,117,87,62,3,-114,-266,-387,-478,-540,-563,-567,-541,-515,-469,-392,-333,-293,-272,-278,-361,-375,-226,-6,179,301,364,412,409,371,297,202,113,80,107,146,160,114,45,44
2018-09-21,14:00:03.709,21,-40,-74,-154,-130,524,1376,1411,353,-238,-362,-306,-210,-153,-127,-130,-113,-31,75,189,301,354,373,339,292,240,175,113,59,11,-32,-42,-38,-21,-21,-15,-30,-39,-37,-55,-92,-172,-217,-219,-220,-187,-125,-120,-85,-29,-67,-85,-86,-64,-23,15,33,31,39,9,-13,-27,-4,-10,-53,-49,-43,-87,-144,-178,-194,-236,-202,-124,-38,42,115,134,132,125,83,-26,-187,254,1169,1545,770,107,-74,-177,-253,-342,-406,-462,-498,-479,-444,-396,-317,-229,-178,-116,-59,-44,-17,0,-16,11,226,451,603,709,747,732,656,560,453,372,313,253,188,107,49,2,-31,-78,-133,-192
2018-09-21,14:00:04.737,-183,-104,25,132,136,61,-74,-192,-251,-277,-272,-283,-306,-297,-224,-36,192,391,496,493,422,270,129,46,-19,-73,-164,-254,-280,-287,-300,-396,-552,-140,749,1170,459,-186,-355,-425,-424,-382,-306,-228,-173,-138,-93,-56,-41,-53,-71,-73,-94,-119,-131,-161,-186,-185,-134,-63,-23,-9,-33,-70,-93,-81,-41,35,103,138,133,102,30,-75,-184,-265,-311,-311,-301,-274,-223,-153,-67,-2,47,59,31,29,33,-64,-187,-275,-330,-324,-260,-186,-147,-136,-143,-200,-271,-323,-285,-189,-63,22,90,159,223,225,11,-17,675,1526,1280,278,-160,-329,-290,-287,-347,-380,-352,-237,-67,126,327,459
2018-09-21,14:00:05.765,431,343,218,107,61,43,19,-31,-87,-125,-90,23,173,352,511,574,547,491,396,262,91,-53,-168,-242,-284,-307,-308,-300,-300,-319,-314,-275,-242,-215,-195,-139,-52,-2,46,97,109,89,22,-13,-12,-31,-53,-88,-130,-181,-179,-83,24,123,200,240,267,268,240,183,-31,59,814,1495,1029,8,-349,-442,-421,-377,-334,-283,-245,-193,-136,-106,-80,-58,-26,-5,2,-3,-48,-70,-92,-107,-79,-38,0,50,64,40,-5,-30,17,78,122,169,209,235,234,187,116,42,11,-9,-33,-43,2,25,-8,-73,-142,-198,-244,-301,-331,-292,-150,67,309,507,600,468,274,106,-20,-112
2018-09-21,14:00:06.793,-163,-162,-122,-62,15,147,285,365,367,339,157,-50,406,1351,1573,596,-160,-521,-639,-670,-684,-627,-581,-544,-488,-434,-375,-316,-279,-219,-155,-86,-6,54,73,91,100,103,99,93,102,143,195,219,220,180,134,112,108,84,10,-116,-235,-311,-331,-308,-259,-212,-144,-60,29,110,112,73,55,36,3,-12,2,2,-15,-32,-82,-69,2,73,100,107,91,5,-81,-141,-162,-194,-242,-260,-267,-241,-230,-287,-458,-218,587,1153,654,-104,-188,-113,-19,-3,-10,-10,-14,-32,-43,-63,-79,-43,1,14,-8,-47,-83,-111,-155,-196,-203,-137,27,278,565,716,666,523,351,198,39,-125
2018-09-21,14:00:07.821,-293,-427,-462,-361,-206,-20,138,270,350,318,250,192,127,58,-17,-65,-93,-119,-119,-145,-181,-182,-183,-160,-111,-25,-9,-3,18,11,-10,-5,19,52,81,92,87,72,45,15,-38,-231,-177,664,1721,1514,511,-62,-373,-482,-515,-516,-490,-473,-499,-498,-448,-410,-366,-305,-256,-196,-116,5,112,189,229,252,294,315,288,266,260,238,237,252,226,194,62,-7,-41,-197,-449,-564,-552,-550,-527,-507,-441,-353,-329,-320,-378,-370,-162,-11,119,245,364,433,388,352,329,287,210,130,177,238,276,258,140,-20,-127,-209,-279,-331,-351,-266,-128,82,244,258,59,64,802,1459,1058,-13
2018-09-21,14:00:08.849,-487,-629,-572,-484,-370,-193,10,194,298,276,258,222,57,-50,-125,-194,-284,-366,-459,-501,-494,-527,-359,-173,-59,-6,9,-1,81,141,157,137,129,93,69,5,-53,-111,-146,-109,-77,-81,-68,-65,-81,-107,-108,-75,-107,-86,3,144,328,515,715,776,690,601,482,387,270,162,93,23,-22,-76,-139,-222,-285,-268,-186,-98,-27,-105,-6,726,1432,1087,-7,-399,-481,-489,-444,-461,-491,-522,-495,-480,-430,-390,-359,-333,-345,-345,-225,-1,193,272,273,288,298,322,332,311,317,308,291,206,85,-37,-155,-263,-285,-183,-10,249,514,586,500,361,164,-47,-241,-288,-298,-303,-377,-497
2018-09-21,14:00:09.876,-557,-478,-345,-170,27,196,337,363,368,370,342,230,98,-2,-127,-220,-246,-268,-298,-320,-313,-309,-280,-228,-192,-286,-285,465,1591,1737,756,160,-59,-174,-244,-253,-307,-349,-391,-405,-375,-368,-366,-351,-297,-184,-117,-40,59,160,267,350,403,435,440,442,432,380,285,197,101,-2,-95,-195,-262,-280,-266,-208,-132,-52,10,16,-2,-32,-82,-130,-190,-207,-257,-284,-341,-349,-335,-374,-310,-227,-301,-304,-248,-224,-163,-26,192,333,390,375,330,243,128,17,-124,-316,-371,-213,-75,322,1475,2527,2105,694,-36,-302,-300,-157,23,164,239,199,73,-173,-409,-466,-500,-642,-865,-984,-963,-871
2018-09-21,14:00:10.904,-699,-498,-283,0,301,513,692,772,753,662,531,429,303,170,81,-9,-90,-159,-198,-223,-245,-227,-223,-205,-153,-96,-57,-29,56,141,140,116,60,-17,-83,-145,-181,-214,-236,-238,-196,-151,-194,-319,-387,-319,-226,-111,45,183,307,332,196,-244,-1080,-1730,-2107,-1954,-513,1182,1865,1269,941,974,1027,870,513,210,33,-22,-18,27,58,23,23,33,-8,-15,9,69,143,220,256,145,-26,-38,-47,-86,-117,-201,-302,-367,-396,-426,-432,-324,-168,-54,-3,51,76,49,-31,-141,-240,-348,-528,-621,-504,-243,58,373,688,966,1123,1035,702,312,-110,-405,-260,-214,-293,-242,-130,-108,-130,-158
2018-09-21,14:00:11.932,-202,-238,-220,-257,-253,-198,-144,-161,-277,-81,636,1162,723,-126,-360,-314,-207,-191,-154,-127,-147,-133,-90,15,92,-24,-397,-425,-165,-13,71,147,210,269,302,322,399,520,578,618,614,590,536,460,343,229,106,53,19,23,57,95,144,163,144,129,95,12,-20,-29,-66,-102,-30,138,272,350,334,294,259,213,131,39,-62,-126,-208,-318,-458,-641,-749,-808,-799,-761,-798,-860,-766,-535,-277,-71,5,414,1242,1753,1007,-1,-284,-309,-200,-166,-221,-328,-460,-493,-407,-253,-96,82,283,521,714,807,705,469,179,-60,-256,-338,-371,-456,-435,-429,-380,-275,-168,-77,14,56,14,-63
2018-09-21,14:00:12.960,-103,-121,-101,-103,-138,-137,-150,-174,-188,-202,-203,-215,-271,-322,-285,-215,-105,17,80,106,149,202,243,240,246,348,359,293,195,114,29,-59,-111,-155,-214,-304,-329,-323,-327,-315,-303,-424,-458,311,1482,1847,969,359,72,0,24,-1,-2,11,-1,-32,-82,-127,-182,-234,-270,-225,-158,-81,17,104,148,145,136,110,113,97,100,60,-38,-181,-260,-344,-395,-438,-473,-476,-472,-444,-419,-376,-304,-217,-109,-10,106,212,271,301,314,322,321,310,265,191,61,-81,-210,-203,-103,-8,120,315,566,771,825,717,500,250,-27,-276,-394,-419,-409,-397,-442,-523,-28,953,1459,717,-7,-140
2018-09-21,14:00:13.988,-191,-148,-163,-146,-120,-90,-73,-77,-33,28,37,-56,-128,-232,-267,-217,-162,-82,45,139,183,224,217,161,144,88,0,-75,-131,-197,-236,-240,-258,-265,-256,-263,-255,-225,-189,-171,-133,-47,78,246,390,441,412,340,263,211,186,147,54,4,-71,-74,20,101,174,254,348,372,317,311,252,144,22,-152,-300,-314,-311,-369,-560,-605,57,838,708,-300,-633,-663,-502,-339,-246,-147,-42,43,116,124,115,114,110,118,157,149,83,25,-58,-129,-147,-148,-61,162,492,822,1068,1046,814,492,127,-175,-385,-553,-713,-803,-781,-700,-542,-329,-132,36,138,146,109,82,51,40,-3,7
2018-09-21,14:00:15.016,40,22,-3,-83,-216,-263,-207,-68,-14,-113,-251,-259,-201,-119,-26,81,139,174,154,90,0,-79,-162,-375,-459,197,1086,991,44,-310,-358,-304,-256,-239,-248,-245,-217,-162,-37,152,353,513,557,487,386,301,218,162,102,18,-14,-46,-27,36,147,275,379,431,450,425,344,161,-124,-356,-477,-560,-584,-553,-543,-534,-595,-649,-588,-514,-437,-330,-287,-199,-87,18,169,286,318,349,281,237,275,289,283,267,213,105,23,-53,-90,-109,-92,-33,89,267,461,576,456,371,888,1424,1031,-145,-662,-746,-692,-633,-629,-608,-502,-341,-172,0,126,180,204,216,256,281,267,257,245,180
2018-09-21,14:00:16.044,101,22,-47,-36,10,24,-43,-171,-219,-189,-151,-86,-35,-24,17,42,6,-42,-73,-115,-182,-257,-295,-299,-304,-320,-359,-344,-309,-250,-178,-115,-53,-22,7,42,117,285,480,613,644,592,486,326,210,114,18,-67,-109,-172,-222,-237,-230,-305,-391,198,1170,1491,670,53,-228,-443,-526,-591,-627,-615,-598,-561,-549,-565,-673,-662,-530,-395,-260,-90,33,112,252,397,482,564,587,601,600,555,494,473,454,381,262,114,-34,-134,-176,-168,-126,-35,90,177,254,374,483,445,185,-106,-296,-411,-495,-542,-560,-548,-474,-364,-252,-116,57,205,316,364,345,322,360,359,300,201,57,-43
2018-09-21,14:00:17.071,-151,-255,-289,-315,-466,-250,568,1159,495,-383,-531,-463,-320,-200,-115,-14,54,77,88,99,35,-104,-184,-189,-204,-187,-154,-129,-110,-122,-151,-160,-98,-30,17,57,132,282,479,673,749,675,518,367,227,88,-55,-193,-284,-328,-353,-388,-418,-406,-395,-365,-322,-232,-119,-27,78,228,325,290,153,8,-51,-48,-32,-41,-102,-173,-293,-377,-379,-331,-270,-192,-111,-62,-5,83,140,28,170,923,1682,1285,156,-295,-380,-293,-209,-146,-97,-79,-106,-145,-177,-135,-63,8,81,156,209,255,292,323,303,220,162,121,124,97,64,32,-11,-86,-79,-107,-165,-226,-262,-223,-162,-99,-41,-5
2018-09-21,14:00:18.099,68,105,24,-74,-135,-178,-185,-204,-220,-243,-221,-165,-134,-113,-99,-78,-32,-12,49,100,135,88,33,38,-58,-144,-172,-182,-170,-183,-203,-274,-343,-363,-382,-561,-398,470,1228,863,-36,-243,-161,16,165,310,473,582,592,523,411,290,163,39,-62,-159,-262,-337,-350,-331,-306,-241,-164,-52,88,257,418,533,541,407,247,89,-58,-161,-252,-297,-318,-327,-365,-482,-557,-512,-405,-287,-196,-117,-55,25,82,150,208,232,218,179,133,120,92,71,77,73,8,-74,-107,-76,-81,-20,83,199,298,430,575,596,343,28,-181,-342,-109,544,820,-9,-805,-909,-778,-553,-366,-194,-7,147
2018-09-21,14:00:19.127,279,347,384,483,593,506,306,160,85,37,0,-21,9,61,114,153,178,240,294,298,245,238,215,154,20,-54,-155,-227,-275,-292,-337,-373,-380,-394,-421,-451,-487,-483,-420,-365,-303,-265,-279,-258,-223,-170,-7,349,612,643,689,804,818,676,400,101,-141,-286,-353,-387,-403,-433,-457,-400,-306,-223,-156,-196,-170,573,1525,1549,333,-390,-572,-532,-463,-434,-414,-411,-482,-616,-653,-565,-396,-241,-126,-53,51,132,202,282,354,384,395,401,366,334,337,358,391,378,351,246,98,-71,-146,-168,-171,-125,-41,49,118,161,173,125,28,-79,-170,-223,-262,-267,-237,-245,-287,-351,-417,-447
2018-09-21,14:00:20.155,-400,-310,-194,-1,168,269,342,455,577,522,354,233,163,84,15,-46,-75,-39,-23,-99,-249,166,1006,1289,383,-196,-265,-210,-151,-125,-140,-151,-186,-226,-221,-248,-265,-278,-294,-291,-224,-175,-163,-120,-119,-118,-94,-84,-17,55,71,3,-108,-162,-100,54,156,288,428,677,741,465,169,-23,-166,-273,-306,-341,-361,-412,-486,-511,-459,-372,-259,-131,27,202,464,530,363,166,21,-32,-4,27,9,-19,-33,-113,-179,-216,-210,-148,5,129,210,222,183,88,-158,-73,728,1457,979,2,-295,-312,-199,-149,-166,-198,-210,-201,-170,-90,-27,-18,-12,35,119,190,233,245,200,115,64,18
