2019-05-14,13:20:29.505,-1174,-1010,-897,-869,-860,-846,-829,-822,-815,-806,-795,-785,-772,-758,-741,-715,-703,-689,-670,-654,-639,-632,-625,-623,-624,-625,-630,-633,-636,-628,-625,-621,-629,-636,-639,-648,-658,-664,-664,-669,-663,-656,-647,-637,-642,-640,-626,-627,-631,-633,-602,-600,-608,-608,-610,-615,-611,-613,-615,-610,-609,-604,-599,-589,-592,-595,-593,-590,-599,-585,-573,-558,-550,-541,-523,-508,-492,-485,-485,-501,-514,-532,-540,-544,-534,-533,-530,-500,-394,-244,-7,-107,-689,-770,-663,-482,-280,-206,-78,-123,-271,-389,-396,-375,-356,-321,-278,-251,-238,-225,-220,-210,-197,-176,-178,-182,-195,-226,-262,-283,-307,-311,-300,-267,-235,-202,-192,-194
2019-05-14,13:20:30.533,-200,-200,-192,-188,-188,-192,-204,-213,-214,-218,-207,-201,-186,-181,-198,-203,-210,-206,-199,-189,-183,-179,-168,-161,-155,-144,-142,-140,-145,-140,-134,-141,-131,-134,-129,-131,-127,-120,-119,-124,-114,-100,-99,-90,-84,-75,-67,-61,-80,-94,-120,-128,-117,-120,-106,-101,-98,-22,142,504,538,-110,-281,-214,-129,-39,-13,-4,11,26,28,36,39,51,54,53,59,73,77,88,95,100,112,121,129,129,124,118,110,96,81,77,75,65,57,52,41,27,15,14,8,7,5,12,20,13,18,30,35,52,54,62,64,62,67,55,63,67,64,63,63,64,60,59,64,64,61,60
2019-05-14,13:20:31.561,53,55,57,70,69,76,71,83,101,100,108,129,144,145,133,137,136,119,100,92,102,100,88,88,143,263,399,462,88,-306,-239,-109,-20,89,137,143,147,154,188,193,201,218,220,250,262,277,286,293,322,338,351,363,369,366,367,354,342,345,335,337,337,344,347,351,348,341,333,327,317,296,290,271,249,244,262,280,273,277,277,282,280,290,304,304,298,290,282,276,273,275,263,262,273,261,257,263,281,282,293,314,325,341,343,357,375,386,388,399,408,391,363,347,352,342,331,364,367,438,591,769,818,380,81,118,207,263,372,444
2019-05-14,13:20:32.589,455,411,364,366,412,424,427,437,432,438,446,453,463,467,480,494,504,521,535,546,558,568,576,570,558,563,564,559,543,519,492,466,437,423,428,427,421,427,432,430,433,431,430,440,441,440,443,455,443,440,443,446,451,451,446,455,454,453,460,459,458,450,454,463,464,478,494,515,518,525,528,518,504,488,481,478,471,464,472,560,732,906,889,375,113,183,298,423,539,567,573,580,589,634,608,626,590,603,610,632,693,654,645,667,690,707,719,724,738,795,764,722,713,703,694,693,689,659,649,629,610,599,590,581,587,566,558,560
2019-05-14,13:20:33.617,561,563,563,567,564,562,570,577,584,583,578,581,580,580,572,577,585,579,568,586,624,568,564,563,558,557,565,582,603,622,637,624,621,636,635,633,627,620,603,564,574,587,540,531,544,640,814,956,936,442,146,217,320,447,566,630,610,602,628,645,647,663,683,640,677,688,687,693,702,724,774,761,752,770,770,782,786,770,759,746,760,735,727,713,656,649,637,622,619,618,592,594,618,583,576,586,604,597,597,595,602,614,607,626,612,601,600,603,601,598,596,595,592,581,593,616,579,565,582,568,582,587,595,638,629,610,605,608
2019-05-14,13:20:34.645,615,591,574,571,576,544,546,545,586,705,836,913,734,251,142,209,344,479,582,591,607,632,622,634,635,645,648,653,671,682,689,695,702,713,726,734,741,748,756,757,754,748,743,733,732,725,705,686,664,645,630,609,585,558,547,552,561,576,581,584,580,594,595,593,600,616,623,620,615,613,609,606,613,606,606,619,601,573,579,577,572,559,553,568,574,556,553,567,578,579,591,600,600,594,587,583,563,539,539,533,536,500,503,506,595,740,849,868,459,77,131,264,412,538,572,589,601,612,616,622,620,622,636,643,644,648,654,668
2019-05-14,13:20:35.673,692,711,736,758,770,775,774,763,746,727,715,700,692,685,674,661,639,620,599,576,560,551,533,516,552,500,472,493,516,530,548,560,571,579,582,589,583,578,590,589,579,568,571,572,563,564,607,630,596,538,488,503,517,531,554,557,559,573,597,599,593,588,572,555,535,524,520,513,512,524,593,741,865,898,524,98,114,238,387,524,563,576,583,594,600,607,618,631,643,654,657,669,684,687,699,712,725,739,746,752,748,747,744,731,717,709,698,691,678,656,643,621,601,587,577,570,571,571,553,558,559,557,553,549,553,555,560,553
2019-05-14,13:20:36.701,548,553,558,555,557,558,555,553,560,554,552,545,531,537,536,534,535,532,537,544,548,555,557,549,540,529,512,490,473,475,478,484,488,496,569,709,829,806,425,97,127,235,355,475,526,542,555,560,572,580,582,586,594,602,613,624,636,648,662,678,689,704,719,734,725,717,705,686,676,661,650,631,616,600,585,570,558,548,536,536,537,531,529,527,526,529,533,532,535,543,547,550,547,545,546,541,538,533,533,528,529,524,519,516,512,516,514,512,508,516,526,527,530,543,548,547,547,536,529,501,479,478,476,468,461,472,556,708
2019-05-14,13:20:37.729,770,675,273,28,49,133,253,342,359,362,366,376,388,391,399,405,413,430,445,463,476,494,511,522,540,557,568,584,586,586,585,579,571,562,552,540,529,512,493,482,474,464,470,460,452,458,465,462,463,460,461,466,471,468,467,476,475,479,477,480,478,480,480,474,472,470,462,461,463,466,461,456,460,455,452,463,473,489,492,499,505,505,511,510,501,495,475,457,447,445,444,445,459,553,696,813,772,339,38,110,252,415,506,529,537,548,554,565,565,571,585,594,607,605,613,627,638,642,653,667,682,689,698,705,711,706,696,699
2019-05-14,13:20:38.757,688,670,662,659,655,646,639,635,631,625,614,615,615,618,620,622,636,645,652,666,674,677,666,650,643,628,603,580,577,576,571,563,556,547,541,534,528,526,514,509,498,488,477,478,497,512,519,531,541,542,536,532,525,515,498,483,482,488,485,480,496,606,734,809,687,172,-37,73,254,425,477,496,509,515,518,523,523,526,529,531,537,545,547,559,571,582,597,617,632,646,657,660,650,636,616,597,576,567,557,548,535,523,501,490,478,470,467,465,461,462,468,471,468,475,473,472,470,468,466,464,458,454,448,445,438,436,434,429
2019-05-14,13:20:39.785,423,420,417,421,419,417,416,415,410,410,413,423,436,439,446,459,465,456,449,440,430,413,396,391,386,385,386,394,483,627,745,723,272,-42,27,147,274,389,419,431,439,447,454,461,464,467,470,477,485,491,496,503,515,527,539,550,555,557,556,548,542,530,519,512,501,490,482,478,463,447,431,415,401,397,394,394,393,394,392,396,398,403,406,409,410,412,412,410,405,401,400,397,395,396,389,385,384,385,381,377,378,376,374,375,374,376,384,399,400,410,420,423,419,420,410,396,381,361,352,348,350,346,351,433,579,700,718,298
2019-05-14,13:20:40.813,-86,-41,104,269,379,400,412,422,426,436,437,440,446,453,462,472,477,486,503,518,526,534,545,556,560,559,551,544,533,523,506,498,495,485,477,462,441,424,408,398,391,385,386,384,389,391,390,387,391,393,388,388,397,391,380,373,371,368,369,367,360,358,348,349,350,348,343,340,337,338,339,338,335,335,335,336,355,357,365,385,389,386,382,374,354,335,316,304,302,304,300,308,374,501,636,705,339,-91,-66,55,195,305,326,343,342,351,356,357,363,370,374,386,398,404,409,419,436,441,448,458,467,469,464,462,458,444,437,427
2019-05-14,13:20:41.841,416,414,404,394,379,362,350,336,325,318,318,310,307,307,302,305,306,304,302,301,302,303,296,294,294,292,288,282,279,276,277,276,265,269,265,267,267,262,270,266,266,263,265,272,277,280,284,296,297,291,290,281,265,247,233,227,224,219,226,249,354,500,563,400,-56,-187,-94,37,177,246,261,272,282,294,297,298,301,303,307,312,323,331,337,348,360,373,381,387,395,398,393,382,369,358,343,333,318,310,303,297,283,266,251,236,226,219,214,212,214,214,211,213,214,215,217,217,207,209,217,217,212,206,196,199,190,188,180,164
2019-05-14,13:20:42.869,167,168,175,172,162,169,164,160,157,155,161,163,174,175,181,194,205,205,211,203,190,170,152,138,138,136,134,134,189,313,434,498,190,-243,-266,-143,28,148,171,181,192,199,205,210,217,222,226,231,243,245,255,265,273,284,296,305,315,321,320,318,307,297,285,274,273,271,263,255,242,228,211,204,196,192,189,187,180,180,180,179,181,180,183,176,173,175,174,176,174,172,170,170,165,161,158,146,146,141,136,135,132,130,129,129,127,131,146,157,158,169,184,181,178,170,164,143,125,113,108,104,107,108,160,281,414,476,180,-266
2019-05-14,13:20:43.897,-301,-179,-16,112,133,143,154,157,161,169,172,182,189,192,200,205,216,225,234,246,257,267,277,284,282,279,273,259,247,235,232,226,215,201,185,167,149,130,122,119,114,112,105,103,106,110,116,115,120,124,122,119,123,120,118,113,111,105,102,108,104,100,95,97,95,93,94,92,97,93,88,91,102,113,116,125,136,139,138,136,128,118,98,78,76,77,78,79,87,165,297,437,460,13,-322,-262,-123,31,117,132,144,150,158,162,168,173,178,181,187,192,202,213,220,231,240,247,259,267,270,269,259,249,244,234,225,218,214,207
2019-05-14,13:20:44.925,194,180,165,149,135,123,116,112,106,105,108,111,112,109,111,115,113,115,120,116,117,112,113,107,102,101,100,98,94,90,89,85,84,79,80,82,83,102,108,110,121,133,134,132,126,115,94,69,61,58,56,60,59,84,194,342,429,205,-266,-327,-228,-114,13,82,95,108,115,118,120,125,132,139,146,157,167,179,189,204,214,224,233,242,248,243,238,236,225,211,201,191,189,185,176,165,149,138,122,109,104,97,90,86,89,87,89,97,95,94,97,98,98,96,97,94,93,92,83,82,78,76,72,72,68,72,69,69,69,68
2019-05-14,13:20:45.953,77,77,76,95,101,105,108,118,113,112,106,97,82,63,56,49,51,52,47,106,232,370,455,143,-318,-334,-206,-33,74,94,103,114,127,131,141,143,142,153,159,168,175,185,194,209,220,231,244,252,253,256,255,247,238,227,220,216,210,201,188,172,157,137,127,117,113,105,107,104,100,98,104,108,105,106,107,109,108,110,112,110,103,104,102,99,96,93,90,92,91,86,87,80,74,79,80,79,81,97,108,113,122,135,141,138,134,123,113,92,78,76,74,73,73,79,157,290,431,473,36,-321,-273,-139,21,115,133,142,152,154
2019-05-14,13:20:46.981,154,161,168,177,181,182,195,207,219,223,233,248,259,264,270,276,280,269,252,249,244,234,231,227,222,211,197,175,164,148,142,138,133,127,125,127,135,135,136,141,145,147,152,158,152,151,148,145,138,142,140,134,134,139,133,131,128,132,134,131,129,138,134,150,155,156,175,190,191,196,197,180,165,146,137,134,141,140,136,155,255,397,508,373,-127,-272,-182,-52,76,146,167,177,191,197,196,199,207,210,212,220,231,237,244,251,254,265,278,285,288,298,295,284,274,259,248,242,236,231,223,212,199,182,164,153,146,141,138,135
2019-05-14,13:20:48.009,130,128,130,125,128,136,135,129,134,136,130,124,128,123,120,117,107,102,101,95,91,88,89,86,83,83,82,79,78,88,102,100,111,116,118,114,112,103,89,72,51,49,51,45,41,43,115,251,381,425,12,-369,-327,-190,-18,65,84,95,96,100,108,110,114,120,126,135,141,148,160,172,184,199,212,220,227,232,227,224,218,206,195,185,180,175,164,154,135,118,104,90,76,71,68,61,59,60,62,60,60,63,59,62,66,67,68,66,65,58,58,55,49,46,38,38,36,35,33,31,30,29,26,28,24,29,37,50,51,55
2019-05-14,13:20:49.037,68,74,70,65,56,41,22,11,11,7,4,8,16,105,241,370,348,-153,-420,-344,-193,-32,25,39,51,61,72,78,87,95,96,102,106,113,122,135,150,156,165,178,187,189,187,181,176,161,154,148,139,132,129,125,110,97,83,68,53,41,32,31,29,32,32,31,32,29,29,31,34,31,28,28,27,29,25,22,19,15,7,0,-3,-4,-7,-8,-6,-10,-11,-12,-9,-2,13,17,25,35,41,32,32,23,10,-12,-25,-27,-35,-36,-35,-25,59,193,322,326,-153,-452,-386,-233,-72,0,12,21,31,31,37,40,49,48,54,63,72,82
2019-05-14,13:20:50.065,99,107,119,134,144,148,155,156,146,138,134,119,108,105,100,93,86,78,65,48,36,22,11,5,2,1,-1,4,7,6,10,9,11,12,12,14,8,6,6,1,-2,-12,-16,-18,-17,-20,-26,-27,-28,-29,-26,-23,-3,8,9,14,29,28,19,14,3,-20,-44,-49,-51,-51,-55,-55,-8,110,255,364,56,-423,-441,-319,-152,-39,-17,-7,6,12,20,24,24,31,39,51,60,67,77,91,97,108,124,133,138,146,140,134,131,118,107,96,92,89,86,78,54,40,25,9,-5,-9,-14,-19,-18,-19,-17,-16,-16,-15,-10,-6,-5,-7,-7,-4
2019-05-14,13:20:51.093,-13,-21,-23,-24,-29,-34,-36,-44,-47,-44,-51,-55,-57,-50,-32,-30,-24,-15,-4,-1,-4,-14,-29,-51,-72,-74,-75,-74,-77,-73,-38,78,220,338,62,-435,-470,-350,-189,-62,-39,-25,-15,-7,-3,-1,9,11,21,30,33,39,46,57,65,77,90,96,106,110,102,98,91,76,66,58,55,53,46,41,26,8,-6,-21,-32,-38,-39,-48,-52,-52,-55,-54,-51,-48,-50,-48,-47,-48,-51,-51,-52,-57,-62,-65,-67,-72,-72,-78,-80,-82,-84,-83,-84,-91,-90,-85,-72,-65,-58,-52,-37,-37,-45,-49,-62,-84,-104,-112,-111,-114,-117,-112,-104,-3,140,282,193,-335
2019-05-14,13:20:52.121,-518,-422,-270,-122,-75,-61,-51,-47,-44,-38,-29,-23,-16,-8,1,10,16,25,40,57,65,71,76,79,77,72,65,51,42,34,32,34,29,26,15,-2,-23,-42,-52,-62,-69,-70,-70,-74,-74,-68,-70,-70,-67,-69,-66,-64,-66,-65,-68,-66,-73,-76,-76,-76,-80,-82,-86,-91,-96,-94,-95,-97,-100,-101,-102,-90,-79,-77,-69,-54,-56,-60,-63,-77,-93,-116,-124,-122,-126,-126,-132,-115,-8,128,234,108,-395,-540,-436,-302,-169,-98,-81,-72,-63,-58,-55,-50,-43,-38,-34,-24,-17,-11,1,11,22,33,43,52,55,51,47,37,23,16,5,1,-2,-1,-11,-18
2019-05-14,13:20:53.149,-28,-45,-63,-75,-80,-89,-91,-88,-94,-90,-90,-91,-84,-84,-79,-78,-80,-74,-76,-78,-80,-80,-86,-84,-90,-92,-96,-97,-100,-105,-109,-117,-116,-113,-112,-118,-115,-98,-88,-83,-78,-64,-54,-55,-60,-74,-91,-109,-124,-125,-130,-128,-125,-122,-38,93,216,227,-251,-563,-490,-329,-163,-96,-80,-75,-68,-56,-54,-46,-40,-35,-30,-16,-3,4,12,22,30,43,52,58,65,64,61,51,45,33,20,14,13,15,10,0,-12,-27,-47,-62,-74,-79,-78,-81,-83,-84,-81,-78,-76,-74,-79,-80,-81,-84,-90,-90,-90,-96,-99,-98,-100,-102,-105,-108,-108,-106,-107,-109,-112,-112
2019-05-14,13:20:54.177,-116,-121,-120,-117,-115,-108,-90,-90,-78,-73,-59,-63,-66,-71,-84,-100,-120,-127,-131,-125,-126,-127,-82,35,171,280,-15,-505,-525,-397,-224,-109,-90,-76,-67,-57,-50,-42,-33,-29,-24,-19,-14,-4,6,15,31,41,53,63,67,68,63,62,51,41,33,20,15,13,10,2,-2,-15,-33,-52,-64,-73,-79,-82,-79,-75,-77,-73,-72,-67,-64,-66,-63,-63,-67,-68,-73,-71,-76,-80,-83,-85,-87,-91,-90,-92,-96,-97,-102,-107,-102,-104,-102,-101,-105,-105,-107,-105,-103,-87,-79,-78,-70,-58,-60,-63,-70,-80,-100,-120,-124,-126,-129,-129,-124,-93,18,157,275,69,-452,-530
2019-05-14,13:20:55.205,-410,-242,-107,-79,-69,-58,-51,-44,-39,-30,-24,-19,-10,-3,3,17,24,33,44,53,59,62,65,67,64,56,43,35,25,17,17,17,10,-3,-15,-30,-45,-58,-70,-75,-78,-83,-80,-85,-81,-79,-79,-77,-74,-72,-77,-80,-79,-81,-82,-82,-85,-83,-88,-93,-94,-93,-101,-104,-104,-107,-109,-111,-116,-112,-113,-113,-111,-112,-115,-112,-111,-97,-84,-79,-70,-57,-56,-66,-74,-85,-105,-124,-130,-127,-129,-134,-129,-109,-2,136,255,81,-434,-530,-417,-282,-146,-101,-85,-78,-71,-61,-56,-46,-45,-41,-32,-27,-25,-14,1,14,24,36,41,48,53,46,40,32,22,12
2019-05-14,13:20:56.233,-2,-6,-14,-15,-17,-31,-45,-60,-78,-89,-97,-98,-106,-108,-105,-105,-107,-105,-103,-105,-103,-97,-93,-92,-94,-96,-103,-102,-106,-108,-110,-112,-114,-121,-118,-124,-124,-122,-125,-128,-130,-132,-133,-134,-132,-126,-114,-105,-100,-92,-81,-73,-76,-82,-88,-104,-128,-145,-146,-152,-156,-152,-148,-75,58,178,185,-244,-567,-512,-373,-216,-124,-101,-90,-79,-71,-65,-56,-53,-50,-43,-35,-23,-10,-3,6,18,29,41,51,55,60,57,54,44,37,23,14,6,0,-5,-14,-25,-36,-53,-60,-70,-81,-82,-83,-85,-84,-79,-79,-79,-73,-70,-63,-63,-65,-66,-71,-71,-70,-78,-79,-80
2019-05-14,13:20:57.261,-75,-80,-81,-78,-84,-84,-87,-92,-96,-93,-94,-99,-96,-98,-99,-96,-93,-85,-73,-68,-57,-45,-44,-48,-55,-64,-77,-94,-104,-103,-105,-108,-108,-95,-6,127,246,221,-274,-534,-445,-289,-127,-65,-55,-44,-38,-35,-26,-23,-16,-10,-5,7,12,19,32,47,56,63,75,84,88,94,89,80,68,63,50,44,40,41,32,23,9,-4,-17,-31,-47,-55,-53,-57,-54,-55,-57,-54,-47,-44,-45,-44,-41,-45,-46,-39,-41,-45,-49,-47,-49,-51,-52,-58,-62,-64,-66,-68,-73,-77,-79,-76,-75,-81,-82,-78,-81,-79,-82,-79,-76,-62,-54,-49,-42,-33,-28,-33,-40,-40
2019-05-14,13:20:58.289,-60,-84,-88,-88,-88,-87,-89,-69,33,170,294,193,-328,-493,-388,-232,-84,-37,-26,-15,-8,-7,-4,2,6,14,22,29,32,48,58,66,77,86,96,107,114,116,110,111,99,89,83,74,64,60,51,37,24,14,-2,-17,-22,-24,-28,-31,-34,-33,-31,-32,-29,-29,-26,-27,-29,-25,-25,-26,-28,-28,-33,-32,-39,-46,-49,-50,-47,-53,-52,-53,-56,-53,-54,-51,-54,-52,-53,-56,-56,-48,-38,-35,-31,-19,-8,-13,-15,-27,-44,-63,-80,-80,-79,-79,-81,-77,5,135,248,233,-202,-496,-430,-304,-174,-66,-43,-33,-21,-9,-8,-7,-1,7,13,16,23,29
2019-05-14,13:20:59.317,44,59,66,78,88,96,101,103,102,93,86,78,71,63,58,55,46,38,24,12,-6,-16,-23,-37,-42,-45,-46,-45,-36,-35,-37,-35,-34,-30,-26,-23,-23,-28,-25,-27,-28,-34,-37,-39,-45,-46,-49,-50,-48,-54,-54,-57,-54,-48,-48,-50,-45,-45,-43,-45,-31,-17,-20,-13,-1,7,3,2,-5,-21,-37,-50,-53,-55,-55,-51,-48,38,168,283,293,-150,-468,-408,-266,-102,-20,-5,9,18,29,34,35,40,48,59,64,72,83,88,97,111,123,134,145,157,157,156,148,140,126,121,107,101,97,91,73,60,47,27,13,4,-3,-7,-10,-10,-14,-12
2019-05-14,13:21:00.345,-14,-15,-11,-9,-10,-6,-4,-2,-3,-1,-1,-4,-7,-9,-12,-15,-20,-18,-22,-24,-22,-24,-27,-26,-27,-31,-33,-33,-38,-35,-30,-15,-7,-4,4,17,19,18,3,-7,-19,-39,-48,-51,-48,-45,-47,-28,71,201,325,261,-256,-467,-371,-213,-56,-5,4,15,24,31,36,42,50,56,63,73,78,83,91,102,114,125,137,143,151,161,158,153,146,130,122,111,108,102,93,82,62,47,36,19,11,7,10,8,1,3,4,5,6,7,9,8,7,5,13,12,12,12,10,5,7,1,2,-3,-11,-11,-12,-13,-14,-13,-8,-8,-10,-16,-19,-16
2019-05-14,13:21:01.373,-13,-7,10,16,21,27,41,39,43,40,22,3,-15,-21,-23,-25,-28,-25,12,127,272,381,145,-355,-399,-289,-160,-39,9,26,40,47,49,56,64,71,73,77,79,87,100,110,119,129,132,146,158,163,166,166,158,153,143,134,126,115,109,97,86,71,53,37,25,20,13,6,2,-3,-5,-3,-1,-2,0,6,8,6,7,5,6,5,-4,-4,-3,-5,-10,-11,-13,-22,-24,-25,-23,-25,-28,-29,-30,-32,-33,-26,-7,-4,9,18,28,26,21,13,-1,-26,-44,-44,-46,-47,-47,-44,7,132,268,321,-20,-434,-426,-307,-169,-41,-7,3,21,30
2019-05-14,13:21:02.401,32,37,40,47,59,73,76,88,96,106,118,132,142,152,161,166,167,162,155,140,135,123,113,107,102,95,76,61,47,33,17,7,3,2,-3,-2,0,6,5,6,11,13,18,24,25,32,28,27,24,21,22,19,16,15,9,10,8,6,5,1,-2,-3,-5,-7,-6,-10,-10,-1,18,27,30,35,47,40,36,31,25,7,-12,-21,-22,-26,-26,-27,8,125,263,383,193,-347,-440,-321,-146,-16,12,27,41,46,50,56,59,63,69,74,85,93,101,113,126,140,154,163,176,186,188,186,181,175,165,156,143,131,123,111,96,84,66,52
2019-05-14,13:21:03.429,43,34,27,27,28,30,23,23,26,25,24,29,31,25,31,32,33,35,29,26,24,19,15,12,17,10,9,8,7,4,5,5,3,1,6,0,-3,-5,-1,19,25,31,38,50,52,48,43,33,13,-11,-16,-16,-21,-23,-25,-8,99,245,378,287,-257,-430,-325,-167,-27,7,13,25,30,41,46,56,62,65,68,75,85,92,104,115,133,143,149,164,171,174,167,162,155,143,134,128,113,105,95,81,71,57,41,24,13,10,4,1,0,2,4,8,10,9,8,10,11,11,16,11,12,6,7,5,5,1,-7,-9,-7,-6,-9,-12
2019-05-14,13:21:04.457,-16,-18,-16,-19,-23,-23,-21,-24,-17,-6,-2,5,18,26,16,17,11,-6,-27,-35,-35,-34,-40,-39,-33,37,169,282,291,-109,-430,-378,-267,-138,-29,0,13,20,32,38,47,51,51,59,65,69,79,89,102,110,125,136,145,157,164,161,161,154,148,133,123,112,107,101,93,80,66,49,30,19,15,10,9,12,5,12,16,20,21,21,24,21,28,33,31,29,30,28,27,25,20,16,16,13,5,7,2,-3,-4,-8,-6,-5,-5,-6,-6,-5,5,19,21,27,33,39,33,34,24,15,-4,-15,-19,-19,-21,-24,-21,47,170,286,350,-17
2019-05-14,13:21:05.485,-441,-417,-267,-94,-3,15,26,36,40,51,54,55,61,66,73,85,89,102,110,125,133,147,160,165,172,178,173,170,163,155,145,132,127,119,108,96,83,66,50,42,33,26,24,23,23,25,26,27,27,31,30,30,30,27,21,22,20,17,10,8,3,4,3,1,-6,-6,-5,-9,-8,-5,-11,-13,-14,-16,-17,-13,-10,2,9,17,21,34,37,33,28,19,2,-20,-30,-29,-30,-31,-35,-23,81,215,330,279,-232,-451,-365,-202,-45,9,23,34,44,48,54,58,63,69,78,83,90,101,110,119,132,147,159,170,178,181,178,175,167,155
2019-05-14,13:21:06.513,145,136,126,120,116,99,86,71,57,38,24,17,10,6,4,7,12,18,21,22,25,27,27,29,30,28,27,24,19,20,12,10,9,10,6,2,2,-3,-3,-5,-3,-1,-7,-10,-9,-10,-6,0,15,20,28,38,48,42,38,28,9,-9,-19,-22,-24,-23,-25,-20,24,146,279,351,45,-402,-401,-282,-149,-26,11,22,34,40,42,46,48,58,62,67,73,85,95,105,116,122,133,145,156,157,161,159,156,145,137,127,123,117,109,105,90,78,59,43,31,19,16,11,6,7,6,8,10,12,18,20,22,23,21,21,20,19,12,9
2019-05-14,13:21:07.541,10,5,0,-4,-4,-5,-6,-5,-8,-9,-9,-12,-14,-17,-16,-13,-6,4,8,15,30,31,27,25,12,-4,-27,-35,-36,-37,-41,-41,-31,50,192,300,277,-176,-464,-397,-258,-108,-17,7,20,27,30,38,46,54,61,67,72,77,86,96,105,116,124,135,150,157,159,160,154,148,134,125,113,108,106,99,91,81,64,43,31,20,11,1,0,5,5,9,10,11,12,14,14,13,13,16,13,10,7,7,2,-1,-4,-5,-6,-10,-10,-15,-16,-17,-22,-23,-27,-23,-25,-23,-24,-26,-20,-16,0,1,12,20,36,31,26,19,8,-10,-25,-22
2019-05-14,13:21:08.569,-32,-34,-31,-30,30,152,282,368,28,-420,-419,-280,-105,-7,12,19,34,43,46,52,54,59,65,72,82,90,102,112,121,135,144,154,163,168,168,160,157,152,141,132,122,113,107,96,84,72,60,44,29,22,18,17,15,17,16,16,23,19,22,24,21,25,22,22,23,22,22,14,8,8,6,8,11,9,2,-3,-2,-8,-9,-6,-6,-12,-20,-19,-20,-21,-10,-1,14,19,29,40,43,36,28,16,-2,-24,-34,-36,-36,-33,-35,-36,23,143,282,374,13,-428,-411,-271,-98,-2,20,24,35,45,54,67,72,72,78,86,89,98,117,118
2019-05-14,13:21:09.597,128,142,152,162,171,178,178,173,166,154,141,132,127,121,119,116,103,88,79,63,55,43,40,36,38,38,38,37,41,40,42,45,37,42,42,39,43,42,41,37,33,31,28,27,26,18,16,17,20,13,10,11,6,7,8,15,15,9,5,6,16,26,27,34,50,66,60,55,48,33,14,-4,-8,-11,-10,-10,-9,27,145,282,384,130,-353,-390,-280,-157,-30,23,36,44,50,64,68,70,75,83,88,96,103,110,121,132,143,157,167,176,179,180,178,175,169,158,148,142,138,139,126,115,101,87,67,53,39,33,28,23,22,24
2019-05-14,13:21:10.625,26,27,31,32,37,38,36,41,39,40,39,37,34,29,28,18,15,20,14,11,10,10,9,6,3,2,3,4,2,-1,0,7,22,22,34,45,51,52,45,35,24,2,-11,-22,-25,-25,-26,-21,26,144,289,366,73,-381,-404,-287,-140,-13,22,33,44,53,58,64,76,78,83,93,103,110,127,135,145,156,170,177,187,198,200,202,197,181,169,156,148,140,137,131,114,98,84,66,53,41,37,37,39,39,42,41,42,47,45,48,58,59,60,62,62,62,65,59,54,51,48,46,44,42,40,36,33,35,37,31,29,26,24,26
2019-05-14,13:21:11.653,29,34,36,38,45,62,70,77,92,96,87,83,76,65,46,31,27,22,22,20,26,79,200,342,444,96,-362,-359,-229,-58,43,64,78,90,94,100,111,114,120,129,134,140,144,156,169,177,189,202,209,220,225,226,224,226,218,208,200,189,180,175,158,146,130,118,99,91,83,73,71,65,63,61,60,67,70,69,73,75,77,78,73,70,69,71,67,65,62,56,51,47,46,41,39,42,37,34,29,28,30,29,31,24,19,23,25,28,49,49,52,61,75,72,67,66,52,31,17,18,17,15,20,18,45,165,305,417,222,-299
2019-05-14,13:21:12.681,-384,-276,-128,12,49,60,70,73,75,82,85,90,96,96,105,113,119,130,140,148,161,171,182,189,183,185,174,167,156,146,134,126,118,103,89,76,56,39,26,16,9,9,10,8,6,9,12,22,23,22,26,36,36,31,31,29,24,17,16,15,13,10,9,9,9,11,4,3,2,-3,-9,-14,-19,-22,-21,-16,-5,0,5,17,30,25,19,13,5,-11,-33,-40,-41,-43,-42,-48,-31,63,206,290,180,-296,-476,-386,-263,-135,-43,-32,-18,-10,1,6,10,17,24,28,35,37,47,56,66,78,89,99,104,116,122,121,122,119,112,101
2019-05-14,13:21:13.709,91,87,75,66,57,45,29,14,1,-13,-26,-26,-29,-32,-33,-34,-28,-26,-22,-25,-25,-20,-21,-19,-22,-23,-25,-29,-36,-41,-45,-47,-55,-55,-56,-58,-64,-71,-66,-68,-73,-69,-74,-75,-78,-80,-75,-68,-49,-48,-43,-33,-25,-30,-28,-34,-46,-65,-84,-91,-95,-96,-103,-102,-82,19,148,244,157,-349,-545,-441,-275,-117,-71,-60,-47,-42,-34,-30,-28,-20,-18,-9,3,12,19,26,39,44,53,67,75,83,87,90,81,75,68,58,47,39,28,17,6,-13,-23,-41,-55,-69,-77,-82,-90,-91,-90,-87,-85,-83,-76,-76,-77,-77,-80,-79,-80,-81,-78,-83
2019-05-14,13:21:14.737,-86,-94,-97,-99,-101,-106,-110,-115,-118,-118,-117,-120,-119,-113,-123,-122,-119,-122,-120,-118,-118,-110,-94,-88,-83,-69,-62,-67,-71,-84,-100,-121,-136,-135,-138,-143,-143,-141,-75,50,169,235,-124,-541,-519,-384,-211,-115,-101,-85,-78,-71,-63,-55,-54,-55,-45,-38,-33,-26,-13,-6,4,22,27,32,40,46,47,45,43,30,13,2,-6,-12,-18,-29,-32,-53,-63,-67,-82,-88,-110,-104,-88,-115,-111,-103,-100,-99,-100,-95,-94,-95,-89,-93,-93,-100,-106,-112,-115,-129,-125,-128,-125,-120,-121,-119,-121,-130,-129,-132,-132,-128,-125,-123,-123,-127,-123,-127,-120,-124,-105,-97,-102,-84
2019-05-14,13:21:15.765,-79,-79,-79,-82,-96,-112,-126,-131,-132,-126,-135,-135,-106,2,151,279,85,-418,-513,-405,-279,-152,-94,-83,-72,-55,-48,-43,-37,-29,-33,-30,-27,-21,-6,4,18,31,40,50,55,58,65,65,66,64,52,42,30,20,12,6,-6,-21,-33,-48,-65,-76,-84,-85,-81,-88,-89,-90,-91,-85,-82,-81,-81,-79,-82,-78,-77,-79,-82,-81,-83,-86,-85,-87,-92,-94,-95,-99,-101,-106,-106,-107,-107,-97,-101,-98,-98,-96,-77,-76,-72,-60,-48,-51,-54,-54,-67,-84,-106,-112,-110,-110,-112,-113,-91,18,164,254,77,-415,-537,-441,-287,-138,-85,-67,-57,-49,-46,-39,-32,-29
2019-05-14,13:21:16.793,-22,-18,-13,-4,5,15,25,41,49,62,72,81,88,86,83,80,75,59,50,43,41,34,19,7,-10,-25,-42,-52,-57,-65,-71,-73,-73,-69,-64,-66,-62,-63,-57,-60,-58,-61,-60,-54,-57,-59,-60,-65,-73,-74,-76,-75,-79,-84,-86,-83,-86,-86,-83,-83,-84,-82,-80,-82,-78,-68,-59,-56,-44,-34,-28,-28,-30,-36,-50,-69,-86,-89,-85,-90,-88,-82,-22,107,244,330,-44,-488,-476,-334,-155,-59,-43,-33,-21,-12,-10,-5,9,9,20,26,30,37,44,57,69,85,97,106,115,121,122,124,116,109,98,88,84,74,67,56,45,32,18,2,-14,-22
2019-05-14,13:21:17.821,-30,-33,-34,-32,-33,-28,-28,-24,-27,-25,-25,-29,-29,-28,-26,-28,-26,-25,-35,-37,-35,-38,-37,-38,-33,-41,-39,-38,-34,-35,-38,-41,-43,-46,-42,-44,-39,-18,-14,-4,5,13,13,6,-3,-9,-23,-43,-48,-49,-48,-50,-49,-23,89,229,355,171,-353,-457,-344,-178,-44,-10,3,10,20,27,28,40,47,50,56,58,68,72,85,98,109,120,130,140,148,150,144,141,131,126,110,106,104,94,88,85,69,49,37,22,5,0,-5,-11,-10,-14,-13,-9,-6,-1,-2,-7,-2,-4,-4,-8,-7,-6,-18,-25,-17,-17,-24,-25,-24,-23,-24,-33,-35,-34
2019-05-14,13:21:18.849,-37,-37,-40,-39,-36,-25,-13,-13,-5,10,9,8,0,-14,-39,-49,-53,-58,-62,-63,-66,-51,46,189,288,168,-316,-488,-397,-265,-132,-48,-34,-20,-9,-3,5,9,14,17,25,36,39,48,58,65,77,80,90,101,109,114,111,118,110,99,88,77,69,68,63,56,42,26,9,-3,-13,-21,-26,-26,-31,-29,-16,-17,-17,-15,-16,-15,-12,-9,-8,-4,-5,-8,-12,-13,-7,-15,-22,-23,-21,-22,-25,-25,-30,-36,-23,-29,-27,-25,-17,-2,-5,6,7,23,39,31,21,8,-7,-28,-42,-42,-45,-46,-42,-26,62,202,324,272,-223,-469,-386,-221,-53,0
2019-05-14,13:21:19.877,10,20,29,36,42,52,53,59,65,70,76,87,96,104,117,130,141,145,154,160,164,161,153,142,132,124,117,114,106,96,82,67,49,32,20,9,3,4,3,6,7,10,12,14,16,20,20,19,19,18,21,21,19,15,9,8,2,-1,-2,-3,-9,-15,-16,-17,-18,-21,-24,-23,-23,-20,-8,7,9,13,27,36,34,33,26,11,-13,-28,-30,-29,-28,-31,-30,21,145,284,387,56,-402,-410,-279,-102,1,18,29,37,45,50,60,60,65,75,81,88,95,104,113,123,135,145,160,171,174,178,171,163,155,146,137,129,122,120,113,101
2019-05-14,13:21:20.905,90,66,54,44,33,29,27,22,20,23,24,22,26,25,28,27,27,28,29,24,19,22,20,13,10,5,2,1,-4,-6,-5,-1,-6,-10,-12,-10,-4,-4,-6,-3,13,26,25,37,53,47,45,38,24,6,-15,-18,-19,-17,-19,-20,-13,66,201,336,320,-170,-440,-362,-219,-68,5,19,26,36,42,50,54,57,64,71,77,85,93,102,112,124,130,136,143,153,162,164,162,152,143,137,124,120,119,108,99,86,74,55,36,28,21,12,14,13,12,14,15,17,16,20,23,18,22,17,19,21,22,17,22,20,15,16,13,7,6,4
2019-05-14,13:21:21.933,8,4,3,6,1,-2,-4,-2,4,17,25,25,33,46,48,45,44,29,13,-10,-17,-24,-26,-20,-25,-18,67,204,317,276,-181,-444,-374,-245,-108,-6,21,32,41,50,55,56,58,64,70,76,87,97,109,118,133,140,150,165,171,177,178,177,170,160,147,138,133,130,125,114,104,87,71,59,54,46,44,37,33,34,38,41,44,48,51,51,50,52,51,55,55,54,51,48,46,38,38,35,29,31,31,30,28,21,29,26,23,21,23,21,18,19,22,33,48,49,55,67,73,72,65,63,51,30,19,13,14,16,14,12,67,190
2019-05-14,13:21:22.961,326,412,66,-379,-378,-236,-59,38,55,63,76,86,96,98,105,112,113,115,120,136,146,153,165,171,183,187,196,207,210,208,201,193,184,176,165,161,158,150,138,123,101,83,70,58,55,57,56,56,51,57,60,59,61,60,63,65,67,69,68,66,63,65,66,60,63,58,58,54,50,50,51,49,48,48,45,41,42,40,41,44,39,36,40,35,41,52,62,69,82,92,95,90,85,74,59,34,26,27,26,25,22,30,107,233,357,402,-37,-384,-333,-183,-18,59,70,81,89,99,100,103,109,120,120,130,142,153,163,173,182,193
2019-05-14,13:21:23.989,197,215,225,228,229,230,217,208,202,187,180,178,171,164,152,144,124,109,101,84,77,77,75,75,73,75,77,74,77,81,81,83,84,87,83,81,82,80,79,77,76,74,67,63,61,63,63,68,68,68,68,65,64,60,63,64,63,64,66,67,73,88,96,100,112,121,118,114,114,100,79,58,52,56,54,53,50,58,151,279,400,337,-160,-369,-277,-140,8,82,101,108,118,129,136,141,138,149,154,155,161,167,176,186,194,202,213,226,229,233,235,230,225,216,205,194,183,179,178,167,157,140,123,103,92,78,72,76,75,71
2019-05-14,13:21:25.017,70,71,74,76,75,73,79,82,77,75,75,71,66,67,63,62,59,57,54,50,48,42,42,40,37,35,35,39,37,35,35,31,27,33,43,54,52,64,79,82,80,76,65,51,28,14,13,19,10,10,18,76,206,326,353,-23,-397,-368,-241,-96,26,58,68,75,85,88,96,102,104,110,114,121,131,139,151,158,170,181,193,205,215,216,214,209,203,191,181,171,164,158,152,138,118,103,89,74,66,61,54,48,50,53,55,51,54,59,57,62,65,66,68,63,61,63,58,54,51,49,41,40,41,39,35,26,26,21,20,24
2019-05-14,13:21:26.045,17,16,17,21,22,21,19,21,23,39,48,47,58,70,74,68,71,63,50,31,14,17,14,15,13,16,89,219,339,368,-64,-418,-367,-214,-40,38,52,59,65,66,73,80,84,94,96,105,112,120,129,141,148,158,169,181,185,192,196,191,186,175,167,155,147,140,132,125,114,100,86,75,58,53,48,46,41,36,35,35,37,41,42,40,42,43,41,44,44,37,32,32,36,32,21,17,18,19,23,18,16,14,10,13,12,11,8,7,5,4,2,3,4,7,27,38,36,44,55,52,52,44,31,14,-11,-19,-22,-22,-21,-15
2019-05-14,13:21:27.073,-2,88,225,342,276,-225,-445,-363,-194,-35,23,36,46,47,56,60,62,68,74,77,88,93,102,114,123,132,141,152,168,172,179,181,179,172,164,153,143,137,134,129,122,112,96,73,56,44,34,29,31,28,30,31,37,36,41,44,42,42,43,42,43,38,39,35,25,20,19,19,21,15,11,9,11,11,7,14,13,13,14,17,9,10,11,10,7,9,11,27,31,38,57,70,67,62,55,44,21,2,1,-1,-3,-4,-2,15,120,256,358,196,-297,-415,-316,-177,-34,25,34,46,59,66,69,71,74,81,89,98,105,113,127,138
2019-05-14,13:21:28.101,140,152,160,170,178,181,179,172,168,161,154,144,139,135,130,121,107,87,69,55,40,37,29,25,24,24,25,27,24,23,28,35,38,36,41,36,34,31,26,20,15,9,8,5,6,2,6,5,0,-5,-2,-5,-5,-9,-8,-10,-8,-5,9,17,16,30,41,39,38,36,24,4,-18,-25,-30,-25,-33,-35,-18,79,223,327,224,-255,-448,-363,-219,-72,6,22,37,47,51,51,58,65,72,80,85,90,102,114,123,133,148,158,165,173,178,177,178,173,164,154,143,134,125,119,114,103,88,72,56,46,35,35,32,28,29,28,28,33
2019-05-14,13:21:29.129,29,30,29,35,32,35,34,32,29,26,26,27,24,20,19,17,18,14,15,11,12,13,11,13,12,6,1,0,1,2,3,7,27,41,39,46,58,62,62,52,44,25,4,-4,-4,-6,-8,-6,-2,75,210,331,353,-94,-423,-362,-205,-37,37,46,55,64,70,74,79,86,91,94,97,103,118,129,139,153,163,176,186,194,198,199,201,193,184,174,160,150,145,140,132,119,108,93,74,61,51,41,43,39,36,38,44,43,45,45,42,46,49,49,46,43,41,40,37,38,36,33,35,34,33,22,18,14,10,11,9,11,11,11
2019-05-14,13:21:30.157,2,3,3,3,5,14,32,34,44,52,59,57,53,46,36,16,-2,-5,-1,2,-3,-3,24,131,269,383,191,-321,-422,-309,-140,-2,32,43,53,59,64,66,74,80,84,92,102,107,116,128,140,154,165,176,185,194,201,196,194,188,178,164,152,145,142,136,125,114,98,81,67,55,44,44,40,38,40,41,45,47,48,47,49,52,48,47,46,44,44,37,32,29,25,27,24,20,24,18,20,17,15,12,10,13,9,8,9,9,12,15,23,32,33,41,63,70,68,66,58,46,24,12,5,6,5,4,5,56,187,308,348,-8
2019-05-14,13:21:31.185,-394,-372,-256,-123,-5,35,46,57,62,65,69,74,78,85,95,101,110,117,127,134,147,161,173,181,192,198,194,187,179,167,159,155,148,138,129,116,100,84,65,53,43,40,33,31,30,28,31,32,35,38,36,39,35,36,39,39,35,31,34,28,27,27,23,21,19,18,17,9,8,7,6,8,8,3,2,0,2,21,33,32,39,52,51,47,42,34,15,-8,-12,-15,-15,-17,-19,-15,62,202,318,306,-142,-446,-386,-246,-86,1,18,31,41,45,53,58,64,70,78,86,100,107,116,125,143,153,167,179,187,190,193,190,187,179
2019-05-14,13:21:32.213,169,161,151,146,145,134,118,102,85,71,61,48,42,37,39,38,35,37,42,42,44,45,44,50,49,45,40,39,41,40,37,35,33,28,25,25,23,22,20,14,19,19,21,18,21,24,27,28,25,31,40,54,57,63,68,69,64,61,54,38,16,1,3,5,-2,1,-1,67,194,319,385,-1,-404,-381,-239,-64,27,42,47,53,62,65,69,75,82,88,94,106,109,115,130,140,150,163,173,181,190,197,192,186,178,169,163,150,145,137,131,122,106,88,72,55,44,41,36,28,27,30,34,35,35,38,37,41,43,47,44,44
2019-05-14,13:21:33.241,40,34,36,38,37,30,26,27,22,24,20,10,12,18,15,9,9,6,2,-3,-2,0,5,20,25,34,44,57,59,58,48,35,18,-4,-9,-11,-11,-13,-10,9,110,251,374,251,-272,-427,-326,-167,-14,26,36,46,58,66,70,74,80,86,91,96,100,113,126,140,149,159,169,178,187,191,191,188,187,180,168,152,141,135,126,118,106,90,74,62,50,39,34,29,23,28,32,33,27,31,38,39,38,37,36,39,38,36,30,30,29,20,19,14,17,11,7,7,5,2,-3,-1,1,-2,-3,1,-1,2,5,16,25,26,36,49
2019-05-14,13:21:34.269,48,43,38,31,12,-8,-20,-23,-24,-28,-29,-25,36,167,289,316,-59,-430,-398,-278,-146,-24,8,17,28,37,40,41,52,53,59,69,80,85,92,100,109,117,132,147,157,159,164,162,156,152,145,134,124,115,109,104,93,72,55,38,28,16,8,3,2,8,8,8,8,9,11,13,18,16,17,18,18,16,14,15,11,11,9,5,3,-2,-2,-6,-11,-12,-11,-17,-21,-20,-23,-25,-23,-28,-26,-15,3,2,9,16,27,24,23,12,5,-13,-33,-38,-40,-40,-42,-38,1,116,255,361,122,-358,-431,-321,-159,-25,14,25,34,46,53,56
2019-05-14,13:21:35.297,56,59,64,69,80,94,98,107,117,124,136,149,164,171,179,184,182,177,170,159,151,140,130,118,111,97,80,65,45,36,28,22,20,20,21,21,24,29,29,30,29,34,33,33,34,31,31,33,32,27,24,21,17,12,9,1,-2,-7,-10,-7,-6,-2,-6,-8,1,-6,-7,-2,2,13,23,28,37,48,52,45,41,41,20,1,-16,-16,-20,-20,-17,-17,35,166,305,397,57,-387,-394,-265,-96,11,31,39,46,53,63,69,70,77,80,83,93,109,119,129,136,149,158,169,184,187,193,195,190,182,174,167,155,147,143,133,119,102
2019-05-14,13:21:36.325,82,63,51,44,35,32,31,28,29,37,39,43,41,44,44,47,50,50,51,51,49,44,41,43,37,34,30,29,26,28,26,25,18,14,14,17,14,12,14,13,14,9,12,17,34,39,41,46,58,58,57,50,45,33,10,2,-4,-5,-9,-8,-4,72,207,340,357,-99,-413,-348,-217,-61,27,41,46,55,65,72,78,79,85,92,97,103,108,120,130,141,151,163,168,176,187,193,192,192,184,178,165,153,145,131,124,110,93,82,69,54,45,37,35,30,34,36,33,40,38,40,46,47,50,51,58,60,60,62,55,55,50,46
2019-05-14,13:21:37.353,43,38,42,34,29,31,31,30,27,29,31,31,28,26,28,26,22,22,30,47,53,52,59,76,78,82,75,62,48,28,18,12,18,17,14,20,92,229,342,326,-114,-413,-360,-229,-85,20,44,53,62,77,81,86,91,94,100,111,118,126,135,146,157,171,179,192,199,207,213,219,212,206,201,187,174,164,157,148,135,124,111,95,79,69,61,55,53,52,53,51,56,62,64,62,60,60,65,63,64,67,64,64,55,50,46,41,36,33,33,31,30,27,26,26,23,16,13,12,12,11,10,13,7,5,10,19,31,29,41,55
2019-05-14,13:21:38.381,63,57,50,45,30,6,-12,-13,-11,-14,-19,-17,41,161,289,370,57,-392,-407,-274,-101,5,24,35,45,52,59,69,76,75,79,93,98,106,118,128,137,148,162,177,183,193,199,202,202,197,181,169,160,146,138,127,116,101,83,63,47,31,22,14,15,18,17,18,20,21,21,22,24,23,26,20,25,27,24,22,23,21,20,10,7,8,5,-2,-1,-5,-9,-6,-3,-5,-8,-7,-6,-4,-8,-9,-7,-13,-14,-12,-7,12,16,15,23,38,35,25,19,9,-8,-24,-30,-32,-30,-32,-30,-14,89,228,338,238,-267,-444,-345,-201,-55,-2
2019-05-14,13:21:39.409,12,22,26,32,35,42,44,47,54,60,74,82,94,105,114,125,135,143,150,153,157,155,154,150,135,126,114,108,98,88,76,61,44,30,17,11,3,-2,-5,-5,-2,-2,-3,-2,6,1,6,7,2,6,7,7,5,3,4,0,-6,-5,-11,-18,-22,-24,-26,-26,-27,-30,-32,-32,-31,-33,-31,-26,-28,-27,-26,-26,-14,-8,-9,6,20,12,11,6,-9,-29,-50,-57,-58,-60,-63,-60,-37,74,214,294,121,-355,-478,-385,-248,-112,-44,-28,-14,-3,-1,7,14,18,22,24,32,44,51,59,72,82,93,104,116,118,128,133,135,129,122,115
2019-05-14,13:21:40.437,104,92,86,75,64,53,41,20,3,-6,-13,-21,-24,-29,-29,-28,-24,-15,-18,-16,-13,-14,-7,-4,-5,-10,-11,-8,-10,-11,-13,-18,-20,-25,-28,-30,-34,-33,-31,-33,-32,-37,-40,-37,-39,-46,-44,-44,-45,-45,-44,-34,-14,-16,-3,7,13,9,4,-1,-19,-38,-55,-56,-56,-61,-58,-57,-1,126,260,335,-6,-443,-448,-314,-139,-37,-18,-5,7,16,23,29,34,40,48,55,61,71,78,84,95,109,121,133,141,152,160,166,163,157,151,141,130,120,112,97,81,69,54,37,20,8,-2,-3,-1,-4,-8,-10,-8,-8,-10,-8,-9,-8,-3,-6
2019-05-14,13:21:41.465,-7,-6,-5,-6,-10,-12,-18,-26,-24,-26,-28,-25,-28,-28,-31,-30,-31,-36,-36,-38,-39,-44,-40,-42,-45,-41,-30,-20,-19,-11,4,13,10,8,-2,-19,-42,-50,-50,-49,-49,-51,-48,16,148,282,345,-53,-449,-424,-285,-118,-24,-3,6,20,26,32,36,39,44,49,55,67,73,87,99,106,119,126,136,150,155,161,160,158,149,136,125,119,111,103,92,80,68,52,35,20,10,3,2,-1,1,-4,-5,-1,2,3,6,10,12,14,14,6,4,5,3,5,-3,-3,-6,-13,-12,-15,-16,-16,-16,-18,-18,-21,-20,-21,-19,-20,-23,-24,-21,-17
2019-05-14,13:21:42.493,-7,1,-1,11,28,28,21,18,11,-9,-29,-39,-46,-43,-43,-43,-42,32,173,283,268,-160,-451,-397,-271,-135,-30,-5,9,19,30,38,45,49,56,59,61,67,73,86,99,105,115,129,137,143,156,164,165,160,155,145,129,118,117,111,98,87,67,48,32,15,5,-1,-4,-5,-11,-8,-3,-8,-9,-9,-10,-13,-11,-10,-11,-4,-8,-13,-15,-14,-17,-21,-24,-26,-33,-39,-41,-46,-46,-40,-40,-46,-48,-50,-52,-51,-45,-39,-24,-17,-14,-3,4,2,-1,-2,-22,-42,-59,-61,-62,-64,-63,-64,-30,84,221,304,83,-393,-489,-379,-219,-80,-34,-20
2019-05-14,13:21:43.521,-12,-5,1,12,17,24,32,38,40,54,64,74,81,93,103,114,130,133,141,147,148,145,135,125,116,106,99,86,76,67,52,32,13,7,-1,-7,-7,-8,-10,-4,-3,1,4,6,7,9,9,9,11,9,9,5,2,0,-5,-11,-12,-15,-22,-24,-29,-27,-28,-30,-27,-34,-40,-41,-39,-38,-38,-32,-13,-6,-2,0,6,8,7,2,-11,-26,-46,-49,-51,-50,-52,-47,-6,112,251,360,94,-398,-456,-341,-166,-43,-18,-5,6,14,17,23,29,36,41,49,57,68,82,91,96,107,114,126,138,149,151,150,153,150,142,136,128,117,104,94
2019-05-14,13:21:44.549,78,67,55,38,22,12,6,0,-3,-5,-3,2,0,0,4,7,9,6,5,4,7,9,8,7,5,7,4,2,-2,-3,-8,-16,-11,-10,-13,-14,-18,-20,-20,-18,-18,-19,-18,-12,-1,18,19,25,40,47,46,41,31,14,-8,-15,-14,-18,-19,-18,-12,56,190,319,376,-29,-412,-384,-252,-89,5,20,32,42,44,52,57,63,69,79,89,92,103,117,123,134,148,158,168,181,184,185,189,191,184,172,162,151,142,136,131,115,104,90,73,61,55,47,41,44,46,43,48,47,44,45,45,42,46,47,46,44,43,39,40,35,33,34
2019-05-14,13:21:45.577,21,15,12,13,11,11,6,10,12,8,3,3,1,-2,1,13,20,27,38,54,47,46,42,30,9,-11,-23,-19,-23,-27,-30,-10,89,233,317,177,-303,-450,-363,-229,-102,-20,-6,6,16,27,28,35,39,44,52,62,68,78,90,98,112,125,137,144,145,151,164,161,157,147,140,133,126,119,109,98,87,70,54,43,29,16,7,1,-1,2,4,0,-1,3,4,7,6,10,10,8,6,-2,-3,0,-2,-7,-10,-14,-16,-19,-19,-20,-22,-25,-22,-21,-19,-25,-30,-30,-31,-33,-24,-5,0,2,10,21,19,18,13,-1,-21,-40,-48,-51
2019-05-14,13:21:46.605,-53,-56,-58,-23,90,230,346,171,-339,-467,-360,-192,-53,-17,-3,8,19,28,39,46,53,56,59,64,73,80,90,101,114,123,138,152,159,166,172,169,167,159,156,145,137,127,116,105,92,76,61,49,39,26,18,21,14,15,18,21,22,23,25,27,25,29,30,26,28,25,21,20,14,10,11,11,7,10,6,0,-1,-1,-6,-4,-5,-4,-9,-7,-3,0,1,18,22,27,34,51,47,48,41,28,7,-10,-18,-19,-21,-23,-23,-6,95,234,361,279,-235,-437,-349,-186,-33,18,28,40,46,53,60,65,75,83,86,92,103,114,127,137
2019-05-14,13:21:47.633,154,159,169,181,188,195,199,201,197,189,179,166,160,154,148,133,114,98,77,63,50,39,35,29,30,30,28,28,31,33,40,41,41,40,41,41,44,45,42,41,42,40,35,27,24,22,23,20,19,17,14,13,13,11,10,10,11,9,8,12,14,12,17,33,38,40,53,67,65,57,52,38,20,5,5,8,8,3,3,28,146,284,383,186,-306,-393,-289,-155,-28,23,38,42,52,63,72,74,76,78,86,98,106,113,122,131,140,151,159,171,179,187,190,187,184,184,171,156,146,140,132,121,114,92,74,56,40,32,27,27
2019-05-14,13:21:48.661,28,23,22,22,28,28,32,34,39,40,37,39,40,36,34,27,26,23,17,10,4,2,5,0,-5,-6,-7,-8,-6,-8,-12,-13,-7,-8,-4,9,15,16,23,41,41,39,35,26,6,-18,-24,-29,-31,-31,-32,-24,53,188,308,302,-134,-444,-393,-266,-115,-15,4,16,28,39,48,50,54,61,71,74,79,86,97,108,119,132,142,155,163,176,185,185,182,175,170,158,148,134,120,111,98,83,69,54,42,28,24,22,18,17,20,18,18,20,30,24,24,23,32,29,28,29,26,28,26,20,19,19,16,12,11,8,8,6,5,6
2019-05-14,13:21:49.689,5,4,-3,-4,-2,-7,-8,-9,-11,-10,-11,-7,-4,-2,19,25,25,36,50,42,37,34,25,13,-4,-11,-17,-19,-17,-16,7,116,257,371,258,-250,-416,-325,-161,-15,29,43,51,60,65,70,69,76,84,91,99,109,120,129,145,155,162,173,185,194,205,206,205,202,193,185,172,165,159,153,138,124,112,95,76,63,49,44,43,35,38,39,37,37,34,35,40,43,43,41,42,45,42,39,36,33,27,28,28,23,19,18,17,16,11,12,8,6,1,-2,-2,-4,-3,-8,-9,-12,-9,-6,-6,-3,13,23,29,40,47,50,49,44
2019-05-14,13:21:50.717,31,15,-4,-7,-10,-16,-17,-19,-12,78,216,338,324,-154,-431,-370,-222,-53,12,26,32,43,51,56,62,65,71,75,81,91,102,112,120,127,143,155,165,179,186,193,195,187,179,168,161,153,146,140,127,114,97,84,68,53,46,36,33,27,21,20,26,25,28,32,33,33,33,35,34,36,32,28,26,22,23,18,14,16,11,13,11,11,7,6,7,3,-1,3,0,0,-2,1,1,-1,6,3,0,-1,3,12,25,29,32,43,51,47,48,42,31,10,-7,-7,-10,-13,-9,-4,48,167,296,370,67,-379,-388,-270,-135,-12,25,37
2019-05-14,13:21:51.745,46,55,54,59,63,70,83,88,90,100,111,120,130,139,147,158,165,172,177,181,178,167,165,155,144,135,124,112,100,84,69,48,39,24,11,6,1,-2,-1,-4,-5,-3,-4,-1,-1,2,2,-1,-2,-7,-12,-13,-17,-18,-28,-29,-29,-37,-40,-41,-42,-45,-47,-45,-46,-50,-46,-52,-47,-49,-56,-57,-57,-55,-46,-33,-37,-35,-16,-9,-15,-17,-26,-36,-61,-74,-73,-80,-78,-79,-76,-10,122,241,261,-122,-486,-462,-339,-192,-77,-45,-30,-17,-9,-4,2,9,15,19,26,32,40,49,54,65,79,87,97,111,121,124,130,129,124,117,104,93
2019-05-14,13:21:52.773,90,81,71,66,47,37,17,2,-8,-17,-24,-26,-25,-21,-20,-16,-17,-12,-6,-3,-4,-9,-6,-5,-4,-2,-8,-6,-9,-10,-16,-22,-24,-24,-20,-23,-25,-18,-22,-23,-24,-23,-24,-28,-29,-29,-28,-30,-28,-24,-13,3,3,10,22,27,24,22,16,2,-23,-38,-43,-42,-40,-43,-39,20,150,280,353,-4,-434,-437,-297,-124,-20,-1,7,15,22,27,35,38,47,55,61,68,74,87,89,100,115,124,137,154,156,164,171,170,165,162,153,138,125,117,110,97,79,63,44,27,15,-2,-4,-7,-8,-3,0,0,-3,-3,-1,-3,-5,-8,-6,-4
2019-05-14,13:21:53.801,-7,-7,-12,-12,-13,-20,-23,-21,-32,-34,-36,-36,-39,-35,-37,-35,-33,-36,-37,-36,-33,-29,-36,-41,-37,-21,-8,-2,5,11,11,11,4,-2,-15,-38,-51,-52,-53,-55,-50,-34,58,196,324,263,-246,-464,-374,-220,-65,-13,-5,10,18,24,32,36,39,45,53,58,68,77,85,97,111,118,134,138,148,159,162,167,166,153,143,131,123,114,106,103,88,74,55,36,22,15,12,1,-1,3,3,2,3,1,5,7,7,7,8,6,7,4,3,-5,-9,-11,-11,-12,-17,-20,-26,-23,-25,-23,-20,-22,-24,-28,-29,-30,-35,-32,-24,-10,-9,-4
2019-05-14,13:21:54.829,11,10,5,8,2,-15,-31,-51,-53,-54,-51,-54,-51,9,137,256,271,-94,-469,-448,-329,-193,-70,-23,-15,-5,6,8,12,15,21,23,29,37,48,57,68,75,86,100,114,122,132,136,140,140,138,129,118,107,99,87,79,73,58,38,19,4,-11,-18,-20,-27,-31,-25,-29,-30,-25,-20,-20,-15,-13,-13,-11,-8,-11,-17,-21,-22,-24,-27,-29,-35,-37,-41,-40,-40,-46,-44,-43,-47,-47,-49,-50,-49,-49,-44,-38,-19,-20,-11,-1,9,8,5,2,-10,-26,-46,-53,-50,-51,-50,-52,-7,117,256,346,90,-395,-462,-344,-175,-40,-10,-2,8,17,28
2019-05-14,13:21:55.857,29,34,42,47,53,61,68,77,85,98,110,121,132,138,150,156,159,155,153,145,135,128,122,112,108,96,82,68,53,34,20,13,5,1,0,-4,-2,-3,2,9,6,6,10,10,11,9,11,9,4,7,-3,-10,-14,-18,-19,-21,-18,-19,-20,-17,-21,-21,-19,-18,-20,-22,-21,-23,-26,-20,-13,3,7,14,27,33,30,27,20,2,-22,-33,-37,-39,-39,-40,-37,32,165,300,357,-54,-436,-409,-272,-102,-6,9,19,27,31,39,41,47,56,62,69,76,86,100,111,121,132,145,158,173,185,186,187,183,180,172,163,152,139,132,124,113
2019-05-14,13:21:56.885,92,80,61,47,37,29,20,19,18,15,16,22,22,21,16,15,18,19,18,14,13,13,7,6,7,5,-3,-1,4,2,-4,-6,-11,-12,-14,-13,-10,-9,-10,-14,-13,-16,-14,-15,-7,9,10,16,31,35,36,31,24,11,-7,-23,-26,-27,-23,-28,-27,27,153,286,351,17,-418,-413,-291,-152,-30,3,10,21,29,41,48,54,63,62,65,71,79,85,93,100,107,117,129,140,152,162,172,169,163,159,147,140,135,122,115,104,90,72,50,35,21,12,3,-3,5,6,6,4,2,5,4,4,2,3,6,4,6,3,-2,-1,-6,-4
2019-05-14,13:21:57.913,-5,-12,-12,-15,-19,-20,-20,-18,-21,-22,-22,-24,-33,-34,-32,-27,-13,-7,-4,10,23,17,14,7,-8,-24,-41,-44,-49,-48,-51,-50,0,130,258,299,-36,-449,-455,-333,-187,-71,-35,-19,-10,-4,2,10,15,19,25,32,42,54,65,72,81,93,103,116,126,136,143,150,152,145,137,129,116,108,99,89,76,53,42,23,8,-3,-14,-15,-24,-26,-24,-22,-21,-20,-12,-10,-5,0,-3,-5,-3,0,7,-2,-5,-8,-12,-19,-21,-20,-21,-25,-20,-24,-27,-25,-29,-32,-34,-33,-33,-32,-31,-37,-27,-26,-13,-7,-1,7,20,20,17,12,3,-10
2019-05-14,13:21:58.941,-34,-43,-49,-49,-51,-49,-26,80,222,333,216,-290,-460,-363,-200,-49,-8,-2,10,25,29,36,41,46,52,60,68,71,81,93,102,115,124,133,139,151,160,163,163,163,149,140,135,127,116,104,95,80,65,53,33,18,10,7,-3,-6,-2,0,1,2,5,2,8,9,10,15,16,11,7,5,-1,-7,-4,-1,-6,-11,-14,-21,-21,-22,-22,-24,-28,-26,-28,-31,-31,-31,-25,-24,-26,-27,-29,-16,-6,-5,4,15,22,17,14,3,-14,-32,-47,-48,-43,-48,-50,-44,24,151,276,336,-64,-452,-429,-292,-119,-28,-7,3,15,22,26,30,38,47
2019-05-14,13:21:59.969,52,51,61,68,79,89,97,109,125,134,142,154,160,163,162,152,144,136,127,116,112,108,97,78,62,50,30,18,12,4,2,4,8,8,8,11,9,13,11,12,14,15,17,13,13,11,5,4,-2,1,0,-3,-8,-11,-10,-12,-16,-17,-22,-23,-25,-26,-25,-28,-27,-25,-26,-19,-13,-8,-6,3,27,26,23,21,6,-7,-32,-39,-39,-39,-43,-41,-31,60,195,294,229,-225,-453,-380,-254,-121,-24,-3,7,17,24,29,31,38,42,47,54,67,76,87,94,104,116,125,137,148,153,160,163,161,157,149,139,130,120,107,96,88,76,57
2019-05-14,13:22:00.997,30,19,2,-4,-9,-12,-13,-14,-15,-12,-8,-5,-3,2,5,2,7,7,7,4,0,-2,-7,-13,-15,-17,-20,-26,-28,-27,-27,-28,-30,-31,-32,-34,-34,-32,-31,-30,-31,-30,-31,-34,-35,-32,-14,-12,-7,6,18,19,13,14,5,-19,-38,-43,-42,-42,-37,-35,5,125,258,340,83,-391,-447,-327,-158,-27,3,14,25,34,39,47,53,55,61,73,76,81,95,101,114,126,136,147,161,173,179,181,184,178,171,165,158,151,145,139,130,115,99,83,68,53,42,42,37,37,34,36,35,36,40,41,46,41,43,46,44,40,40,36,33,36
2019-05-14,13:22:02.025,28,19,16,20,12,7,7,4,3,2,5,2,0,-1,1,-1,-4,-2,-1,-8,-7,-6,-7,-1,-3,14,25,27,37,50,54,43,37,33,14,-1,-16,-18,-18,-19,-19,-11,82,219,334,325,-140,-427,-363,-212,-46,21,35,43,54,63,71,74,77,81,88,94,102,111,116,127,137,142,157,167,178,184,187,190,185,177,169,167,153,144,139,128,114,105,88,70,55,43,40,40,44,39,39,40,41,42,47,50,47,50,55,56,51,52,49,45,47,44,41,39,36,31,29,26,25,25,24,25,22,27,26,20,19,18,11,13,11,15
2019-05-14,13:22:03.053,15,12,14,14,13,14,13,13,17,34,33,40,57,64,62,55,54,42,21,3,-4,-5,4,1,4,77,206,321,353,-61,-408,-357,-225,-73,22,35,45,62,77,84,84,86,97,102,104,107,115,122,128,140,146,155,166,174,183,188,192,189,184,178,166,158,147,140,130,124,117,105,87,72,54,47,39,32,33,32,34,36,37,43,36,37,39,34,30,32,35,32,29,28,29,29,29,22,16,11,8,4,1,-1,-4,-5,-2,-3,-5,-7,-3,-6,-9,-9,-15,-18,-17,-17,-14,-5,9,10,17,34,37,34,31,24,12,-10,-24,-30
2019-05-14,13:22:04.081,-40,-37,-37,-26,61,199,300,251,-199,-458,-395,-262,-125,-29,-12,8,20,29,36,38,40,45,49,57,64,76,85,94,113,119,131,141,146,153,159,164,158,151,146,135,124,117,106,100,91,79,62,44,29,12,5,2,1,3,8,10,12,11,11,15,14,18,20,21,23,24,21,14,9,5,4,-1,-2,-8,-11,-12,-14,-13,-11,-12,-15,-16,-16,-17,-16,-15,-17,-15,-14,-15,-13,-10,-8,-5,2,17,20,28,40,41,39,39,32,17,-3,-13,-18,-22,-23,-23,-13,70,203,319,319,-121,-439,-389,-243,-75,-2,15,31,42,53,62,63,69
2019-05-14,13:22:05.109,71,79,87,94,99,112,122,128,138,149,162,176,186,196,201,199,191,189,178,164,153,140,134,122,107,88,72,63,52,44,46,40,40,41,40,36,35,35,38,39,41,40,42,44,40,36,30,34,22,18,16,11,10,9,4,2,1,2,2,0,-1,-9,-12,-11,-11,-8,-8,-3,-6,-7,-6,-10,-7,-1,14,15,22,37,47,52,45,39,29,8,-9,-12,-15,-17,-18,-16,48,173,295,359,-11,-420,-403,-267,-89,12,28,39,47,50,59,61,64,67,74,82,89,96,101,113,129,134,148,164,173,181,185,187,189,184,177,167,160,152
2019-05-14,13:22:06.137,144,134,126,114,100,79,68,53,41,38,35,33,32,33,34,38,40,38,38,38,37,34,36,38,33,23,22,19,18,15,12,11,7,6,7,7,4,-1,1,3,-2,-4,-11,-11,-11,-11,-10,-9,3,13,14,24,36,34,33,26,14,-6,-24,-29,-28,-30,-33,-31,3,122,250,297,34,-409,-449,-334,-205,-73,-20,-10,2,14,21,27,34,38,44,54,59,66,76,80,86,100,113,120,134,140,148,155,156,151,143,135,127,118,105,99,89,75,67,47,27,11,-4,-10,-18,-19,-22,-24,-16,-13,-8,-9,-10,-10,-9,-3,-6,-7,-6,-9
2019-05-14,13:22:07.165,-12,-16,-15,-15,-16,-15,-16,-21,-27,-28,-31,-29,-28,-29,-28,-25,-29,-31,-34,-34,-32,-26,-10,-8,-9,2,13,7,6,-2,-11,-26,-49,-55,-60,-59,-61,-59,-22,90,221,303,88,-387,-471,-355,-196,-56,-18,-5,7,14,23,26,31,39,45,49,60,63,71,76,89,97,110,124,133,139,145,152,154,156,149,140,132,121,109,100,88,73,58,41,28,17,1,-2,-3,-11,-9,-5,-1,2,7,12,13,16,13,13,13,14,7,2,2,-1,-2,2,-3,-9,-10,-12,-21,-25,-24,-25,-28,-24,-28,-33,-32,-33,-31,-30,-20,-4,2,8,14,26
2019-05-14,13:22:08.193,20,14,7,-5,-21,-37,-46,-43,-46,-51,-47,-5,115,248,341,67,-414,-462,-336,-159,-41,-13,-6,2,14,20,25,36,41,50,60,66,76,84,93,101,115,125,131,144,156,166,169,167,164,155,144,132,120,110,101,93,78,63,50,35,27,22,14,9,7,8,6,3,9,8,12,13,11,16,13,15,18,15,11,9,8,7,6,5,5,1,-1,-2,1,-5,-6,-2,-3,-4,-3,-5,-5,-5,-4,-1,7,24,31,35,42,54,54,50,45,34,18,-5,-14,-16,-11,-10,-8,14,122,258,363,194,-314,-423,-314,-160,-21,19,29,40,46,47
2019-05-14,13:22:09.221,57,62,67,74,78,85,92,103,111,119,126,138,152,160,172,181,186,183,177,170,164,150,135,127,120,109,99,82,63,46,30,23,12,10,4,-5,-4,-3,2,0,-1,-3,-5,-4,-2,2,-2,-1,-6,-11,-10,-13,-15,-20,-19,-24,-29,-34,-39,-36,-38,-41,-49,-46,-50,-49,-48,-45,-38,-22,-22,-18,-5,2,-3,-5,-17,-38,-56,-66,-65,-68,-70,-69,-59,19,156,254,219,-213,-484,-428,-302,-166,-61,-36,-21,-12,-4,2,6,9,14,19,26,32,43,51,54,62,79,93,103,114,124,126,126,128,125,115,103,92,80,70,59,53,46,34
2019-05-14,13:22:10.249,19,2,-11,-20,-23,-22,-21,-22,-25,-24,-20,-15,-14,-19,-15,-14,-14,-12,-13,-12,-16,-22,-22,-24,-28,-34,-38,-43,-48,-47,-50,-52,-50,-53,-55,-56,-55,-57,-58,-60,-56,-55,-50,-37,-22,-24,-18,-11,0,-1,-7,-13,-24,-44,-58,-60,-59,-65,-62,-51,28,165,283,290,-148,-474,-422,-267,-97,-26,-18,-8,2,7,15,17,20,26,33,43,53,61,72,82,92,103,113,122,125,139,149,145,148,145,136,126,117,107,102,91,77,58,43,27,12,-5,-14,-18,-20,-17,-18,-17,-14,-13,-11,-8,-3,-3,-5,-9,-9,-11,-13,-14,-19,-20,-23,-25
2019-05-14,13:22:11.277,-30,-30,-32,-31,-29,-38,-37,-41,-42,-45,-42,-39,-41,-43,-44,-47,-48,-50,-44,-31,-24,-15,-5,5,2,-4,-7,-17,-35,-55,-63,-68,-68,-69,-66,-35,78,215,325,142,-372,-489,-375,-205,-63,-33,-22,-11,-3,4,3,10,13,16,29,35,41,51,59,66,78,86,96,102,117,124,130,130,123,120,111,102,96,81,72,68,57,40,26,14,-2,-12,-21,-24,-27,-23,-17,-23,-18,-14,-12,-11,-13,-14,-12,-19,-20,-19,-15,-22,-23,-23,-28,-35,-39,-47,-45,-47,-50,-54,-54,-52,-50,-52,-50,-51,-54,-54,-54,-53,-45,-29,-30,-28,-13,1,-1,-5
2019-05-14,13:22:12.305,-7,-22,-44,-56,-55,-60,-60,-59,-54,-2,124,246,293,-61,-441,-438,-321,-185,-63,-31,-21,-11,-3,1,6,12,15,20,30,36,46,53,59,73,81,91,102,116,127,134,136,134,127,120,111,104,98,94,85,77,71,59,43,27,17,0,-8,-9,-14,-19,-14,-13,-14,-11,-9,-11,-14,-11,-10,-8,-5,-6,-12,-14,-16,-17,-22,-25,-24,-31,-30,-35,-39,-37,-39,-39,-39,-38,-40,-42,-42,-43,-45,-48,-43,-38,-34,-13,-15,-7,5,16,14,8,2,-13,-33,-42,-44,-47,-51,-50,-45,23,155,278,317,-90,-444,-413,-271,-109,-26,-10,-3,5,17,25
2019-05-14,13:22:13.333,23,28,27,37,40,44,50,56,61,65,77,89,103,110,113,118,124,119,115,109,101,91,82,71,65,59,48,37,17,0,-10,-18,-23,-26,-33,-39,-41,-43,-40,-33,-37,-42,-41,-41,-38,-36,-37,-38,-40,-45,-52,-57,-54,-55,-57,-66,-65,-64,-62,-63,-70,-76,-71,-78,-84,-83,-81,-80,-82,-83,-78,-69,-68,-59,-40,-42,-42,-45,-51,-70,-91,-99,-99,-106,-108,-104,-84,11,149,229,120,-327,-511,-438,-310,-175,-86,-66,-56,-49,-39,-28,-22,-17,-10,-12,0,5,14,27,32,40,49,59,65,77,87,94,94,91,86,80,72,60,50,45,41,37
2019-05-14,13:22:14.361,31,21,8,-8,-19,-26,-31,-34,-32,-30,-32,-33,-27,-27,-23,-18,-17,-16,-12,-10,-13,-15,-13,-15,-24,-22,-25,-29,-29,-33,-38,-40,-39,-40,-39,-45,-43,-44,-42,-45,-48,-48,-48,-38,-20,-22,-15,-3,12,14,7,4,-8,-29,-50,-56,-57,-59,-58,-60,-25,95,230,325,86,-408,-487,-366,-184,-49,-19,-11,3,8,14,20,31,35,42,49,50,57,72,79,89,103,112,125,134,143,149,155,156,149,140,134,124,112,106,103,91,84,72,56,36,23,12,3,0,-3,-3,-1,1,4,3,4,7,10,12,13,13,15,16,18,12,12,11,4
2019-05-14,13:22:15.389,2,-4,-9,-12,-13,-14,-16,-16,-17,-19,-25,-25,-24,-25,-26,-27,-31,-15,-3,-7,2,18,25,18,13,9,-7,-25,-39,-42,-41,-42,-43,-36,50,183,302,301,-177,-479,-416,-258,-90,-17,2,9,16,26,33,40,45,50,54,59,70,78,82,93,103,114,122,130,141,146,151,149,144,143,134,125,117,109,104,95,87,74,57,40,25,11,8,2,5,4,4,10,8,8,13,10,9,12,12,14,17,18,15,13,11,12,6,1,-2,-4,-9,-10,-15,-12,-11,-16,-15,-14,-17,-20,-19,-16,-15,-8,3,8,13,30,44,44,43,37,25,5
2019-05-14,13:22:16.417,-13,-21,-23,-25,-24,-26,-2,108,241,349,202,-309,-447,-337,-192,-47,-1,12,25,34,41,46,50,52,55,62,73,83,91,95,105,115,130,138,145,155,161,160,158,154,147,140,129,128,114,106,99,88,69,54,40,30,22,18,13,9,14,9,6,6,6,7,9,9,11,10,11,12,11,4,1,-6,-13,-11,-14,-13,-17,-23,-26,-29,-28,-29,-31,-28,-28,-25,-26,-25,-25,-8,2,0,11,29,27,24,19,9,-8,-29,-35,-39,-43,-42,-43,-17,85,227,311,161,-325,-479,-382,-229,-84,-17,-3,11,21,29,35,40,45,54,65,70,79,85
2019-05-14,13:22:17.445,89,104,116,127,134,143,150,153,157,161,152,147,137,132,120,114,111,105,100,90,76,58,43,36,27,26,20,17,12,11,13,16,17,15,14,19,21,23,23,19,19,16,14,7,4,2,1,-5,-7,-4,-5,-5,-6,-5,-5,-9,-8,-8,-11,-10,-7,8,28,28,34,41,48,45,42,35,19,-7,-21,-22,-23,-23,-20,-19,51,175,291,352,-56,-450,-417,-257,-75,9,24,37,46,52,54,60,66,72,83,89,95,101,113,120,131,141,149,158,166,178,185,186,183,172,160,153,139,134,130,123,118,111,101,86,69,56,47,43,43,39
2019-05-14,13:22:18.473,42,41,39,42,42,44,47,48,47,46,42,45,41,35,33,27,26,23,16,14,9,7,8,7,5,3,2,5,7,9,9,9,10,11,15,13,12,26,41,41,47,58,62,61,56,55,38,11,-2,-3,-7,-7,-8,4,93,228,350,317,-183,-445,-370,-199,-33,21,38,45,52,57,62,65,70,79,82,93,104,108,115,126,138,145,151,163,169,173,173,174,167,155,146,137,127,120,121,115,108,97,83,67,52,41,33,22,21,20,26,25,22,25,26,29,26,28,29,28,25,23,19,15,17,13,11,6,2,-2,-7,-6,-5,-8
2019-05-14,13:22:19.501,-9,-9,-13,-13,-14,-13,-10,-9,-15,-13,-12,-9,8,13,18,32,44,44,40,34,22,1,-21,-22,-21,-20,-19,-15,26,150,268,330,40,-410,-431,-312,-163,-31,8,22,36,42,47,55,64,70,73,78,79,84,93,99,108,118,130,139,142,151,156,157,160,155,147,134,125,122,110,103,96,81,72,55,38,27,18,15,12,14,14,14,16,20,18,19,19,16,16,15,17,11,9,10,9,3,-2,-5,-6,-4,-5,-11,-11,-11,-13,-12,-10,-9,-13,-14,-15,-19,-18,-17,-10,10,12,19,33,41,41,39,32,24,1,-13,-13,-19,-22,-30
2019-05-14,13:22:20.529,-36,21,152,276,333,-5,-440,-443,-310,-143,-22,-1,11,24,33,41,47,50,56,64,70,76,87,93,101,113,122,135,143,150,157,162,162,161,153,143,132,121,110,111,105,95,87,76,61,41,27,16,7,3,5,8,9,15,14,12,17,18,14,18,17,14,17,12,10,3,3,-6,-8,-11,-14,-19,-16,-14,-16,-18,-18,-19,-22,-27,-26,-30,-29,-35,-31,-32,-27,-7,-5,5,14,27,23,16,11,-7,-20,-36,-47,-50,-53,-54,-51,-1,124,248,338,25,-443,-459,-320,-139,-30,-6,5,13,21,27,31,37,44,50,58,65,73,78,92,102
2019-05-14,13:22:21.557,109,119,130,136,140,147,146,144,138,131,119,109,100,97,95,87,78,62,48,32,19,9,1,0,-4,-2,-1,-2,-4,-4,-1,-5,1,1,0,-2,-8,-5,-7,-11,-11,-14,-19,-22,-23,-30,-30,-31,-30,-30,-36,-38,-40,-41,-34,-30,-31,-37,-38,-27,-21,-20,-9,10,8,9,6,-5,-22,-46,-52,-51,-49,-53,-54,-25,87,218,286,75,-394,-473,-362,-219,-86,-23,-9,-5,4,9,12,19,29,30,31,33,40,50,61,73,83,93,95,103,111,122,123,117,114,106,97,83,77,69,57,52,47,39,24,12,1,-8,-18,-16,-21,-24,-27,-29
2019-05-14,13:22:22.585,-24,-17,-14,-9,-5,-5,-5,-6,-2,-4,-8,-7,-13,-17,-21,-25,-33,-31,-34,-38,-38,-37,-38,-36,-34,-30,-31,-35,-37,-39,-36,-19,-3,-1,7,17,19,14,12,8,-9,-32,-52,-50,-52,-54,-55,-41,45,174,253,225,-215,-515,-455,-272,-82,-13,5,14,25,30,35,36,41,49,47,58,69,78,85,97,106,118,128,137,142,150,154,152,150,140,121,133,130,110,104,97,92,74,56,37,26,12,3,6,8,7,6,4,4,6,9,9,10,11,13,12,7,5,5,1,-4,-6,-8,-11,-14,-19,-23,-24,-23,-22,-19,-24,-25,-24,-29,-28
2019-05-14,13:22:23.613,-24,-27,-26,-24,-10,2,4,12,23,29,17,16,13,-8,-31,-45,-45,-47,-45,-47,-38,49,183,273,245,-224,-500,-428,-252,-75,-16,-3,10,16,25,30,35,41,50,55,60,72,77,84,96,108,122,130,140,148,155,158,151,148,149,137,124,121,120,118,111,102,91,77,61,46,37,24,17,11,9,14,13,12,13,13,12,11,14,17,13,12,7,7,5,3,2,3,-5,-11,-11,-14,-20,-16,-15,-18,-18,-12,-15,-16,-19,-14,-14,-13,-10,2,14,14,22,38,42,45,40,32,17,-6,-15,-12,-19,-21,-21,-10,77,216,337,306,-195,-449
2019-05-14,13:22:24.641,-380,-215,-55,10,25,33,40,48,53,60,64,70,76,81,88,96,110,115,124,140,150,153,159,166,167,166,163,154,148,140,135,128,122,124,109,96,80,66,52,40,31,21,15,16,16,16,16,18,20,25,26,24,25,26,18,20,21,13,8,9,3,0,-2,-6,-12,-13,-11,-11,-13,-12,-10,-13,-16,-14,-17,-22,-18,-11,5,13,15,27,39,36,32,24,8,-13,-32,-33,-34,-36,-35,-28,9,132,266,342,58,-402,-430,-319,-180,-50,-7,4,15,23,33,36,41,45,47,55,65,74,79,88,100,110,113,123,138,144,151,148,147,144
2019-05-14,13:22:25.669,132,120,111,103,98,90,79,69,55,38,26,16,10,4,-3,-7,-11,-6,-7,-3,-1,0,-3,-3,-2,1,0,0,-2,-5,-7,-11,-15,-20,-23,-26,-30,-30,-33,-34,-39,-44,-45,-47,-49,-44,-45,-47,-48,-43,-24,-19,-14,0,11,9,8,2,-14,-31,-55,-57,-58,-60,-60,-63,-21,105,237,312,8,-445,-475,-356,-201,-68,-25,-11,-2,10,14,21,26,31,41,47,51,53,67,76,84,94,102,111,121,134,139,141,139,135,123,113,110,103,98,91,81,73,65,51,32,22,15,6,-6,-7,-8,-9,-7,-2,3,3,4,6,9,9,14,14
2019-05-14,13:22:26.697,17,12,7,4,2,-3,-4,-12,-11,-12,-14,-16,-19,-16,-13,-12,-14,-15,-15,-21,-16,-16,-23,-23,-12,4,4,9,22,34,34,34,24,7,-16,-38,-44,-45,-46,-51,-50,6,131,258,339,-26,-462,-454,-313,-132,-32,-9,2,10,21,32,39,40,46,52,56,62,69,79,87,94,106,117,130,139,146,155,160,156,150,143,133,125,118,110,106,98,86,73,54,37,27,22,17,13,14,13,13,15,18,18,17,16,22,24,23,22,22,27,28,21,16,18,15,13,9,2,-4,-10,-13,-6,-6,-7,-12,-20,-18,-13,-21,-22,-29,-13,-22,-21
2019-05-14,13:22:27.725,-18,-9,-2,8,20,22,19,11,1,-8,-26,-43,-43,-46,-47,-48,-41,36,169,280,295,-147,-472,-408,-275,-123,-30,-13,-6,6,13,19,27,31,35,43,49,60,68,80,92,98,107,119,123,131,146,154,150,151,149,134,122,108,102,97,86,77,57,37,24,11,1,-7,-13,-12,-12,-13,-18,-16,-17,-22,-20,-17,-16,-13,-14,-14,-17,-18,-18,-19,-26,-32,-38,-44,-44,-43,-47,-48,-48,-48,-48,-50,-46,-48,-51,-52,-57,-56,-49,-36,-25,-27,-16,-2,5,7,5,-3,-16,-42,-52,-54,-50,-49,-49,-37,41,179,267,207,-228,-480,-413,-280,-133,-36
2019-05-14,13:22:28.753,-20,-6,4,12,17,19,26,31,35,43,48,60,72,80,88,96,112,122,133,140,145,146,145,136,124,116,110,96,86,72,60,48,34,22,6,-5,-13,-26,-24,-22,-32,-30,-32,-28,-22,-21,-18,-20,-25,-22,-21,-21,-26,-27,-33,-34,-38,-43,-45,-48,-54,-56,-56,-56,-55,-59,-59,-68,-66,-67,-66,-63,-67,-69,-68,-72,-58,-44,-40,-37,-29,-21,-24,-31,-39,-48,-68,-84,-88,-87,-92,-87,-73,27,164,229,151,-302,-557,-482,-291,-112,-61,-47,-35,-21,-16,-18,-14,-6,0,11,16,27,34,40,53,68,77,85,95,103,110,118,120,115,110,102
2019-05-14,13:22:29.781,92,83,74,64,54,42,33,21,6,-9,-16,-24,-30,-31,-29,-23,-25,-27,-28,-27,-21,-20,-17,-21,-22,-21,-21,-25,-30,-36,-34,-36,-37,-39,-39,-40,-46,-45,-45,-48,-46,-42,-43,-49,-50,-45,-48,-48,-48,-50,-43,-22,-17,-14,-8,10,7,-2,-1,-12,-36,-58,-64,-65,-65,-65,-64,-14,112,219,267,-19,-476,-524,-381,-169,-45,-25,-13,-5,4,10,13,19,27,34,34,44,52,59,70,78,89,101,111,124,132,135,138,137,129,124,116,100,93,93,87,79,70,62,51,31,19,7,-2,-7,-9,-6,-5,1,6,4,6,7,8,9,8,7
2019-05-14,13:22:30.809,4,-2,-4,-4,-5,-10,-12,-14,-15,-14,-13,-14,-18,-21,-20,-22,-22,-25,-30,-31,-28,-27,-33,-32,-32,-30,-28,-15,-1,-2,3,13,22,20,20,12,-10,-26,-42,-44,-46,-42,-43,-37,54,185,295,259,-234,-490,-411,-240,-72,-9,12,19,20,32,38,44,48,54,59,65,71,77,89,96,101,110,118,129,134,136,137,138,132,125,109,101,94,91,88,87,81,69,57,43,30,20,8,3,-2,-3,-3,-5,-6,-6,-5,-5,-2,0,-8,-10,-12,-19,-19,-19,-17,-20,-24,-25,-35,-34,-32,-35,-35,-36,-40,-42,-46,-46,-44,-44,-42,-44,-43,-42
2019-05-14,13:22:31.837,-44,-42,-26,-12,-13,-6,12,12,9,4,-6,-26,-49,-55,-50,-49,-43,-49,-35,57,191,304,222,-291,-492,-406,-237,-78,-23,-13,-2,6,14,23,28,38,45,49,56,61,67,74,89,100,103,114,127,138,136,132,130,124,110,101,91,87,84,82,80,71,55,41,26,18,6,0,-4,-11,-13,-8,-7,-8,-6,-2,-4,-2,-6,-9,-7,-9,-11,-18,-19,-19,-26,-23,-28,-28,-32,-29,-32,-36,-41,-47,-48,-45,-45,-47,-48,-50,-47,-49,-52,-52,-43,-30,-27,-13,7,9,7,3,-4,-28,-53,-60,-65,-68,-66,-66,-53,39,180,274,176,-309,-503,-411
2019-05-14,13:22:32.865,-276,-139,-49,-34,-24,-12,-2,4,10,13,19,25,32,39,53,60,64,74,84,95,103,110,119,118,119,112,104,97,84,80,76,73,69,61,45,28,19,3,-9,-16,-20,-21,-20,-21,-19,-18,-16,-18,-19,-17,-10,-12,-7,-5,-7,-10,-16,-21,-27,-33,-36,-43,-45,-47,-50,-52,-54,-50,-52,-55,-58,-57,-54,-55,-60,-59,-61,-57,-36,-22,-22,-14,2,-3,-1,-3,-13,-34,-57,-67,-67,-65,-64,-65,-42,65,198,294,141,-375,-511,-402,-225,-75,-26,-8,4,12,21,29,28,35,43,46,53,56,65,75,82,96,110,118,128,133,140,146,142,135
2019-05-14,13:22:33.893,122,114,100,93,88,84,83,70,56,41,29,17,4,-2,-2,0,-1,2,6,4,3,1,4,5,7,4,4,-1,-8,-12,-14,-15,-17,-19,-20,-25,-25,-30,-28,-34,-34,-33,-36,-35,-31,-30,-34,-34,-33,-37,-37,-23,-10,-11,-1,14,25,19,16,7,-11,-28,-45,-43,-40,-39,-41,-40,20,146,267,337,-53,-473,-457,-307,-122,-24,-7,6,16,25,34,43,45,50,51,59,71,78,84,97,104,115,130,142,150,157,163,161,154,143,135,123,113,110,107,104,102,88,74,56,41,28,18,13,10,11,12,9,9,9,10,15,17,17,13,18
2019-05-14,13:22:34.921,20,12,11,9,3,1,-7,-8,-9,-11,-9,-14,-18,-16,-16,-14,-17,-16,-16,-16,-18,-22,-24,-22,-20,-6,4,7,13,28,35,24,21,12,-10,-32,-36,-38,-47,-52,-55,-47,49,189,300,240,-260,-483,-401,-260,-105,-29,-15,-5,4,13,20,30,32,40,45,52,52,60,71,79,85,89,94,110,118,136,139,137,129,119,107,96,88,80,74,67,57,43,33,14,-6,-9,-18,-18,-21,-25,-25,-23,-18,-18,-13,-7,-12,-6,-3,-4,-1,-1,-3,-3,-6,-7,-14,-20,-19,-26,-30,-35,-36,-40,-39,-35,-40,-43,-40,-42,-45,-44,-37,-33,-16,-11
2019-05-14,13:22:35.949,-9,-1,14,14,11,4,-8,-27,-47,-56,-53,-52,-52,-53,-20,91,221,302,73,-397,-476,-363,-194,-55,-25,-8,5,13,21,29,30,33,43,50,55,59,67,79,91,105,113,121,127,132,139,141,143,138,133,125,113,105,94,93,88,75,64,53,36,28,19,13,8,6,8,5,10,13,8,5,6,3,9,11,6,3,2,-8,-11,-8,-13,-17,-20,-20,-19,-22,-23,-27,-28,-25,-27,-26,-23,-23,-24,-24,-23,-26,-28,-27,-26,-12,2,3,13,25,33,30,25,17,-3,-24,-35,-35,-39,-42,-42,-32,54,189,309,273,-228,-471,-393,-227,-56,-6
2019-05-14,13:22:36.977,7,17,28,35,39,44,45,46,52,60,65,73,81,93,102,113,121,133,138,144,142,143,137,130,124,117,110,105,101,94,89,75,62,47,33,25,16,11,7,-1,1,5,6,7,3,2,3,7,9,10,7,6,1,-5,-5,-8,-10,-17,-19,-24,-24,-29,-27,-30,-31,-34,-34,-33,-30,-34,-37,-38,-32,-31,-36,-33,-21,-16,-10,0,13,19,15,12,2,-12,-38,-46,-45,-42,-45,-47,-29,71,206,325,204,-318,-476,-379,-205,-46,-6,1,8,13,20,31,36,42,48,53,61,70,74,89,96,103,118,130,139,144,149,151,149,148,138,125
2019-05-14,13:22:38.005,112,102,94,88,84,80,66,53,35,18,5,-1,-7,-9,-3,-5,0,4,4,3,5,2,-1,-1,0,-6,4,2,-4,-8,-9,-12,-16,-16,-23,-25,-24,-28,-35,-36,-35,-35,-36,-35,-37,-39,-40,-43,-46,-46,-42,-33,-28,-24,-14,0,0,-2,-11,-18,-38,-59,-66,-64,-60,-64,-63,-27,93,226,311,56,-423,-469,-351,-210,-80,-40,-29,-17,-4,-1,7,10,14,21,27,39,38,50,60,72,82,90,101,107,112,118,119,118,113,106,95,81,76,71,68,61,51,38,18,5,-3,-17,-20,-27,-27,-25,-28,-29,-31,-29,-16,-17,-19,-20,-19,-18
2019-05-14,13:22:39.033,-19,-22,-26,-25,-18,-21,-24,-30,-27,-31,-35,-36,-43,-44,-44,-43,-42,-46,-51,-49,-49,-50,-54,-55,-51,-36,-34,-26,-16,-8,-13,-17,-23,-35,-55,-71,-78,-82,-83,-86,-80,-25,98,226,289,-24,-460,-477,-344,-181,-59,-31,-25,-10,0,5,11,15,21,22,32,39,43,55,65,73,82,92,103,117,129,132,130,130,133,121,109,98,90,87,83,75,69,59,44,27,10,0,1,-2,-3,-2,-3,-1,0,0,6,9,11,14,12,12,11,15,12,10,5,7,2,-4,-8,-11,-14,-16,-22,-25,-26,-27,-31,-33,-29,-26,-31,-31,-32,-30,-29,-15
2019-05-14,13:22:40.061,-4,-5,3,25,28,22,17,8,-6,-24,-38,-41,-42,-42,-46,-38,40,173,290,320,-127,-467,-412,-255,-80,-7,7,14,27,37,39,44,47,53,59,64,73,85,96,103,109,120,132,142,144,156,159,159,155,147,139,130,123,117,110,105,97,85,69,57,36,26,19,14,22,19,15,12,14,21,24,24,24,19,21,22,17,15,10,11,9,8,4,3,0,-5,-1,1,-6,-4,-8,-9,-11,-16,-15,-15,-14,-12,-15,-13,-12,-12,-9,-5,13,22,17,32,47,48,41,37,24,6,-14,-21,-18,-17,-20,-22,0,109,246,355,200,-326,-444,-338
2019-05-14,13:22:41.089,-156,-10,23,33,40,49,55,63,71,76,80,87,92,98,108,113,125,136,150,163,177,183,188,190,188,180,171,162,153,143,136,132,129,119,107,97,84,68,57,50,45,40,43,46,46,44,45,47,49,50,52,54,48,42,52,43,39,36,29,25,26,23,17,12,9,11,10,5,2,11,5,4,3,-1,-4,-6,-5,-6,-6,-3,10,15,20,37,47,45,39,29,14,-11,-25,-23,-32,-38,-35,-27,34,171,287,310,-94,-448,-404,-276,-133,-21,4,10,18,28,35,42,45,48,54,58,64,73,81,89,98,111,119,130,138,147,149,153
2019-05-14,13:22:42.117,150,143,136,125,117,108,108,104,94,83,67,52,36,31,21,10,14,9,6,4,7,6,6,5,7,4,8,8,6,5,2,0,-4,-7,-10,-20,-12,-17,-23,-26,-26,-23,-27,-26,-32,-36,-38,-48,-40,-34,-40,-40,-39,-27,-12,-14,-11,2,12,4,0,2,-17,-37,-53,-53,-52,-54,-59,-60,0,127,245,316,-42,-459,-452,-312,-135,-33,-18,-5,9,13,21,26,31,37,45,55,63,71,76,86,93,102,110,121,135,136,143,143,141,136,128,117,104,102,95,88,83,77,64,50,34,18,13,7,5,5,6,7,7,8,10,16,17,12
2019-05-14,13:22:43.145,19,17,18,19,14,11,6,8,0,1,-5,-9,-10,-11,-11,-11,-9,-10,-15,-15,-17,-18,-16,-22,-23,-23,-26,-26,-26,-7,8,15,17,28,25,19,20,9,-5,-21,-24,-30,-29,-34,-34,-16,86,218,329,232,-284,-461,-368,-197,-40,2,16,26,33,44,45,45,53,58,63,66,76,84,96,105,113,134,142,154,156,162,166,161,161,153,143,134,124,117,110,104,96,86,75,58,41,26,20,19,15,10,16,19,15,16,15,12,13,11,4,14,17,11,9,7,6,2,-2,2,1,-7,-13,-14,-17,-12,-18,-24,-26,-25,-24,-28,-23,-20
2019-05-14,13:22:44.173,-22,-28,-27,-16,-8,-3,-2,3,18,22,11,10,13,-12,-35,-42,-44,-47,-53,-50,-45,55,195,305,260,-250,-483,-401,-237,-69,-16,2,7,7,18,26,30,33,42,44,52,60,71,78,87,104,108,114,123,129,136,137,137,134,124,126,119,107,100,98,91,82,67,52,38,28,17,9,5,-3,-2,-2,1,1,0,3,1,-2,3,4,-3,-3,7,1,0,-3,-5,-9,-12,-10,-14,-19,-22,-21,-24,-26,-26,-20,-20,-24,-26,-27,-30,-31,-31,-18,-15,-12,11,28,21,13,12,0,-19,-37,-45,-54,-51,-44,-46,-17,92,231,306,83,-390,-464
2019-05-14,13:22:45.201,-361,-224,-91,-31,-13,-7,-2,1,14,21,25,28,36,46,54,61,68,78,91,99,110,119,121,134,137,136,130,122,114,105,97,94,85,81,79,65,45,30,18,6,1,3,4,2,0,1,1,6,3,4,6,4,7,7,4,4,0,-2,-3,-8,-10,-15,-18,-19,-24,-32,-36,-37,-35,-37,-34,-35,-38,-37,-36,-33,-32,-27,-26,-5,-1,10,14,25,22,20,17,10,-11,-39,-42,-42,-45,-52,-52,-7,111,241,336,77,-410,-463,-341,-161,-37,-13,-2,9,19,27,33,37,41,49,55,65,74,86,98,110,121,126,138,144,153,158,158,159
2019-05-14,13:22:46.229,157,149,141,134,121,115,113,112,106,93,82,63,49,44,31,31,28,30,30,33,33,30,33,32,32,37,37,37,36,34,33,30,24,22,19,16,16,17,13,12,11,8,9,5,7,4,1,4,1,7,6,3,10,21,29,31,41,55,52,48,44,36,19,-1,-10,-7,-10,-12,-12,5,105,238,359,280,-242,-443,-355,-179,-28,13,29,34,44,51,56,64,65,72,73,83,94,95,106,119,136,146,156,168,175,179,176,175,167,160,153,146,140,135,127,125,119,110,90,75,62,50,41,41,36,33,36,35,37,38,39,37,39,42
2019-05-14,13:22:47.257,40,36,33,31,31,27,26,21,19,18,18,15,11,8,4,1,-2,-3,-1,-2,-6,-4,-6,-9,-10,-8,-5,1,22,29,27,38,52,49,45,42,32,12,-7,-14,-14,-15,-18,-16,4,112,248,364,201,-319,-443,-333,-160,-20,13,24,37,44,47,57,61,68,73,80,90,100,106,111,121,132,142,150,160,167,170,177,180,174,170,164,150,144,137,129,120,113,103,86,70,56,46,35,34,35,26,23,28,28,30,32,27,26,27,26,25,28,27,22,20,16,15,15,10,6,2,0,1,-3,-5,-4,0,0,-4,-1,-6,-9,-12,-15
2019-05-14,13:22:48.285,-12,2,10,19,28,44,42,36,31,19,0,-15,-23,-26,-27,-25,-26,-12,93,231,322,185,-305,-449,-350,-219,-82,-8,3,13,24,32,41,42,43,51,58,61,71,83,90,97,109,112,120,130,139,144,148,141,133,131,126,119,114,109,99,93,82,67,57,40,25,15,7,5,1,2,5,0,1,3,5,-1,1,2,1,2,2,3,4,2,-3,-5,-4,-1,-5,-8,-11,-18,-20,-18,-18,-20,-19,-18,-23,-27,-21,-23,-17,3,13,11,22,38,34,33,29,20,0,-18,-24,-30,-30,-27,-28,-21,69,205,311,261,-212,-457,-380,-232,-76,-2
2019-05-14,13:22:49.313,17,25,39,44,50,60,59,66,67,73,84,92,99,107,119,129,141,149,155,165,170,171,166,160,154,144,133,123,114,109,105,91,79,59,42,33,26,29,25,20,21,23,22,20,19,18,21,27,22,20,14,15,17,17,15,11,9,9,3,0,-5,-4,-11,-13,-8,-14,-7,-6,-13,-17,-16,-11,-12,-10,3,17,13,21,30,44,40,30,28,13,-3,-27,-26,-23,-26,-27,-23,38,166,294,367,-17,-445,-426,-272,-92,4,25,26,44,49,52,58,60,65,75,68,80,87,97,103,103,116,126,149,156,159,161,167,172,167,154,148,143
2019-05-14,13:22:50.341,131,118,90,80,81,61,46,29,8,7,14,12,26,34,34,49,54,53,67,80,83,84,83,90,68,55,65,66,72,75,80,90,90,93,87,90,92,81,77,84,98,83,77,110,108,102,94,101,115,140,135,133,125,116,118,133,81,46,63,71,76,104,182,278,385,289,-174,-325,-236,-107,6,59,69,91,115,106,104,104,103,108,112,111,114,130,132,134,140,144,150,160,168,172,172,171,165,154,149,140,130,120,104,89,78,68,46,23,15,-1,-15,-12,-17,-17,-17,-18,-18,-18,-7,-11,-17,-14,-12,-9,-13,-12,-13,-15,-16,-23
2019-05-14,13:22:51.369,-25,-29,-30,-35,-39,-37,-37,-34,-38,-46,-54,-54,-46,-36,-37,-27,-14,-7,-12,-13,-18,-37,-56,-66,-70,-70,-76,-67,-68,-18,115,241,260,-82,-436,-422,-322,-197,-90,-44,-25,-19,-9,4,13,20,21,28,27,34,37,47,70,80,90,100,105,113,123,133,131,128,127,127,129,119,109,104,94,81,63,56,39,38,36,26,18,24,37,38,31,26,28,30,32,39,41,48,58,76,108,55,19,24,79,123,55,39,33,29,64,134,68,15,9,25,40,39,46,48,52,75,154,131,53,66,78,82,73,67,54,32,29,26,28,22,23,66
2019-05-14,13:22:52.397,187,341,445,163,-348,-408,-284,-112,24,50,59,70,77,87,94,101,106,116,128,135,147,162,188,193,209,214,229,243,256,271,280,283,281,276,272,263,259,253,238,224,210,194,178,163,154,141,135,140,141,140,142,146,147,147,146,148,148,147,151,158,160,162,159,165,170,168,166,166,157,154,145,140,126,111,102,103,104,110,120,121,126,137,144,148,159,171,172,175,175,166,155,138,119,115,115,115,119,125,158,287,440,570,309,-203,-262,-150,-10,128,179,195,203,207,210,211,214,215,214,220,225,230,231,242,254,261,276,288,294,300
2019-05-14,13:22:53.425,301,302,302,296,288,285,283,277,271,268,265,252,236,221,200,176,161,151,143,133,128,123,120,117,120,124,123,123,131,133,137,138,144,141,139,130,124,122,116,110,108,109,104,102,99,95,95,95,97,96,105,115,116,120,133,132,125,126,116,104,84,69,64,67,64,57,59,111,256,393,423,91,-320,-324,-217,-102,22,83,95,106,116,118,126,137,139,143,154,162,166,177,189,200,213,224,239,250,261,267,273,276,273,265,255,243,231,224,213,204,188,164,147,133,119,106,104,98,94,92,92,90,96,102,103,106,111,108,107,108
2019-05-14,13:22:54.453,106,99,101,95,99,102,96,91,86,85,81,80,81,77,78,79,81,76,77,76,81,79,91,97,100,107,124,122,117,112,105,85,72,59,52,52,53,45,51,135,274,386,396,-35,-384,-336,-192,-31,63,76,86,100,108,116,119,127,131,135,138,153,164,167,177,219,207,214,226,235,242,249,252,257,251,245,234,224,215,205,192,180,161,141,117,97,78,73,74,68,63,69,66,64,71,73,66,68,73,72,67,68,63,55,48,47,44,42,40,35,33,34,29,27,24,22,17,14,15,15,11,10,3,4,14,25,30,29,41,52
2019-05-14,13:22:55.481,50,46,37,24,4,-18,-22,-27,-27,-23,-20,43,179,280,285,-55,-430,-417,-294,-157,-42,-3,13,18,27,29,32,34,35,37,45,48,58,66,73,82,91,104,111,119,124,135,144,137,128,126,118,104,90,81,63,55,36,14,-1,-13,-24,-36,-43,-48,-58,-59,-57,-59,-56,-55,-55,-49,-47,-50,-49,-50,-47,-50,-54,-62,-68,-75,-74,-79,-84,-79,-78,-84,-83,-80,-82,-87,-89,-88,-87,-91,-95,-90,-67,-68,-64,-58,-43,-46,-48,-56,-70,-91,-115,-116,-125,-124,-128,-114,-83,39,172,218,25,-414,-539,-442,-278,-133,-82,-70,-59,-43,-39,-31,-23,-25
2019-05-14,13:22:56.509,-21,-14,-8,0,10,19,30,40,52,65,80,87,93,94,99,96,92,89,76,63,51,37,21,4,-11,-31,-41,-60,-73,-81,-75,-72,-76,-73,-73,-69,-68,-66,-69,-66,-69,-62,-65,-66,-69,-69,-74,-75,-77,-78,-82,-83,-87,-85,-87,-87,-89,-87,-86,-88,-82,-90,-95,-83,-81,-84,-77,-59,-58,-54,-45,-35,-43,-45,-48,-56,-71,-92,-96,-100,-104,-104,-102,-51,89,191,217,-61,-488,-524,-385,-191,-72,-52,-38,-31,-25,-18,-9,1,4,11,14,20,28,37,46,57,67,78,93,106,115,123,130,134,132,133,123,111,100,96,81,70,54,39,24,10
2019-05-14,13:22:57.537,-8,-19,-16,-13,-16,-17,-12,-14,-13,-11,-12,-12,-15,-4,-4,-9,-8,-9,-12,-11,-18,-24,-25,-26,-25,-24,-28,-30,-35,-31,-31,-34,-30,-30,-31,-33,-30,-29,-34,-40,-35,-28,-12,-13,4,13,20,19,9,2,-11,-35,-50,-52,-55,-58,-57,-49,24,156,247,252,-124,-476,-443,-291,-113,-23,-5,3,13,17,23,31,41,45,52,64,67,73,84,91,103,112,119,127,136,144,147,147,148,142,136,129,117,102,97,90,83,77,63,43,28,19,13,2,7,7,4,4,7,9,11,14,9,10,7,8,9,5,3,-3,-1,-3,-11,-13,-8,-11
2019-05-14,13:22:58.565,-15,-17,-19,-22,-22,-28,-27,-27,-24,-23,-23,-25,-25,-26,-32,-25,-21,0,2,12,18,31,26,21,20,5,-13,-35,-39,-38,-40,-38,-38,3,123,237,314,62,-407,-454,-332,-161,-28,0,13,21,28,35,45,49,51,53,62,71,77,88,103,113,126,134,142,156,165,168,170,169,165,151,144,136,122,122,121,118,112,101,86,64,56,50,47,38,34,34,31,36,37,34,40,41,38,40,36,30,30,25,26,24,22,21,13,13,12,11,9,4,2,-4,-6,-8,-5,-3,-6,-8,-11,-12,-13,-13,-11,-5,-2,17,21,26,42,49,50,47
2019-05-14,13:22:59.593,43,26,3,-9,-9,-11,-15,-14,-12,45,174,301,370,-7,-421,-392,-256,-93,12,27,38,47,56,63,67,77,78,83,91,91,98,106,117,129,141,152,160,171,181,184,192,187,179,168,156,146,138,136,131,114,107,93,76,64,50,41,35,28,26,23,23,23,25,24,25,26,23,21,28,26,26,16,14,10,8,4,1,0,-1,-7,-5,-6,-11,-14,-17,-12,-13,-18,-20,-20,-16,-18,0,12,16,26,35,36,42,34,17,-2,-24,-33,-32,-33,-38,-39,-7,110,250,317,95,-376,-441,-331,-201,-70,-4,3,13,22,27,32,41,50,57,65
2019-05-14,13:23:00.621,67,72,84,92,100,109,121,137,144,152,158,157,158,152,149,136,127,121,107,99,95,83,68,49,35,30,20,15,9,10,10,10,11,12,13,14,16,18,15,15,20,18,15,10,8,7,6,8,3,1,-2,-2,-1,-9,-9,-8,-7,-7,-9,-12,-11,-4,15,16,22,30,44,42,39,35,20,3,-12,-16,-18,-19,-25,-20,14,130,264,356,117,-371,-427,-310,-147,-15,18,30,39,48,54,58,69,70,75,85,98,105,111,114,121,133,147,157,171,180,176,178,179,178,172,161,153,141,137,130,124,110,93,78,59,48,38,31,28,28
2019-05-14,13:23:01.649,26,26,33,32,32,37,38,33,34,34,34,28,23,20,16,14,15,7,5,6,4,4,2,1,0,1,4,-3,-2,4,2,5,11,27,34,41,51,59,60,55,48,35,20,-2,-8,-14,-17,-15,-14,8,118,258,370,235,-298,-435,-325,-154,-10,22,33,39,45,56,64,74,81,82,88,95,102,111,118,130,138,146,161,169,179,191,192,191,185,180,166,154,143,134,123,113,96,79,64,51,35,21,19,15,13,13,11,12,11,15,16,14,15,18,13,14,12,6,3,3,-2,-4,-5,-13,-13,-18,-23,-22,-30,-33,-35,-36,-32,-34
2019-05-14,13:23:02.677,-35,-39,-34,-20,-27,-25,-16,-1,0,-6,-10,-25,-39,-56,-65,-62,-68,-66,-64,-43,66,199,277,104,-371,-463,-361,-230,-108,-51,-42,-35,-25,-16,-10,-3,0,8,15,23,25,33,41,50,56,68,80,87,99,105,104,101,96,87,77,63,47,43,36,28,15,1,-17,-34,-54,-62,-69,-69,-72,-73,-72,-74,-71,-71,-70,-65,-60,-60,-57,-56,-57,-62,-64,-66,-66,-69,-76,-75,-77,-79,-85,-89,-83,-82,-86,-85,-89,-90,-89,-86,-80,-63,-56,-51,-45,-34,-35,-38,-44,-49,-66,-88,-95,-97,-100,-95,-90,-67,42,180,275,135,-353,-498,-399,-237,-89,-43
2019-05-14,13:23:03.705,-31,-19,-9,-3,7,7,19,28,34,39,46,57,64,75,84,98,108,119,128,136,137,142,137,129,118,108,98,93,92,83,67,58,44,24,13,-2,-9,-12,-22,-21,-19,-17,-21,-22,-19,-16,-12,-10,-8,-9,-9,-6,-5,-9,-8,-15,-15,-16,-19,-19,-22,-26,-28,-25,-30,-33,-40,-43,-34,-36,-39,-31,-27,-10,1,2,9,19,20,16,14,2,-17,-40,-45,-49,-49,-47,-46,-24,86,224,333,210,-316,-460,-356,-187,-43,-4,5,16,29,33,36,40,45,51,57,64,71,82,90,100,115,128,134,147,162,170,169,171,167,165,158,146,135,130
2019-05-14,13:23:04.733,116,106,92,84,67,50,38,21,14,14,13,8,8,14,11,15,18,24,23,21,24,22,21,20,17,15,10,10,2,3,0,-7,-10,-5,-5,-7,-9,-12,-13,-12,-9,-16,-17,-14,-15,-11,-13,-10,0,8,8,19,38,36,33,26,17,-6,-26,-37,-43,-43,-43,-38,-19,91,224,335,200,-329,-453,-348,-185,-39,-5,9,23,30,38,41,49,57,67,75,77,79,91,103,118,125,136,145,152,164,169,170,172,170,161,148,140,135,124,121,109,98,83,63,46,32,24,20,14,6,6,11,11,13,14,19,17,15,16,15,12,6,-1,4
2019-05-14,13:23:05.761,-2,-9,-8,-9,-14,-15,-16,-20,-30,-35,-42,-43,-45,-47,-51,-56,-53,-58,-58,-56,-60,-62,-48,-49,-45,-32,-16,-20,-25,-29,-41,-62,-81,-87,-88,-89,-95,-94,-58,65,188,234,-33,-472,-491,-383,-253,-134,-85,-73,-64,-56,-50,-45,-41,-33,-26,-26,-26,-15,-12,-4,6,9,20,31,36,39,46,47,47,40,32,21,9,-3,-12,-19,-34,-61,-85,-103,-121,-136,-145,-151,-158,-160,-163,-159,-153,-152,-150,-152,-157,-156,-160,-164,-173,-181,-189,-192,-197,-200,-206,-213,-215,-217,-239,-257,-261,-269,-277,-280,-284,-282,-286,-290,-287,-286,-287,-287,-273,-271,-270,-262,-255,-258
2019-05-14,13:23:06.789,-256,-268,-272,-292,-311,-322,-325,-321,-318,-317,-280,-153,-46,-31,-289,-690,-722,-621,-494,-372,-322,-308,-301,-292,-284,-282,-280,-274,-267,-259,-254,-244,-238,-229,-216,-204,-194,-181,-171,-168,-159,-154,-159,-170,-174,-181,-198,-207,-212,-226,-242,-250,-262,-273,-285,-300,-309,-315,-322,-325,-326,-376,-494,-504,-496,-488,-479,-472,-469,-468,-467,-474,-487,-494,-498,-500,-493,-495,-504,-503,-511,-510,-518,-525,-526,-523,-525,-530,-531,-530,-535,-533,-527,-511,-507,-502,-489,-479,-477,-478,-481,-487,-501,-518,-527,-528,-534,-533,-533,-495,-372,-258,-241,-444,-845,-918,-820,-682,-550,-497,-484,-473,-463,-461,-451,-447,-441,-437
2019-05-14,13:23:07.817,-426,-420,-412,-401,-393,-382,-368,-355,-344,-333,-321,-310,-301,-297,-298,-310,-321,-327,-337,-347,-355,-370,-386,-403,-415,-431,-441,-450,-454,-456,-455,-456,-453,-448,-444,-442,-439,-437,-441,-435,-432,-434,-432,-432,-430,-429,-426,-435,-436,-442,-435,-437,-445,-445,-443,-445,-448,-448,-453,-453,-450,-447,-443,-441,-428,-413,-413,-406,-401,-387,-386,-387,-395,-396,-405,-431,-442,-445,-442,-447,-441,-407,-289,-168,-120,-309,-741,-835,-735,-591,-454,-404,-398,-393,-382,-373,-363,-360,-353,-348,-342,-332,-323,-315,-310,-302,-288,-273,-257,-243,-227,-222,-216,-215,-219,-224,-232,-245,-257,-269,-277,-293,-303,-318,-330,-347,-355,-366
2019-05-14,13:23:08.845,-369,-372,-373,-370,-370,-368,-363,-364,-362,-362,-356,-356,-355,-354,-355,-352,-352,-352,-357,-360,-361,-366,-369,-371,-378,-373,-383,-389,-389,-387,-382,-375,-384,-382,-374,-373,-374,-374,-374,-339,-324,-332,-329,-316,-315,-320,-323,-328,-343,-360,-366,-367,-366,-364,-362,-320,-194,-83,-38,-280,-701,-753,-643,-480,-351,-324,-307,-296,-289,-283,-272,-266,-262,-257,-252,-241,-233,-219,-211,-204,-192,-181,-167,-156,-145,-136,-132,-136,-133,-139,-150,-161,-168,-177,-188,-196,-207,-220,-239,-251,-261,-266,-273,-270,-267,-265,-264,-262,-264,-259,-255,-256,-253,-254,-249,-250,-253,-250,-252,-252,-253,-261,-258,-254,-255,-260,-259,-255
2019-05-14,13:23:09.873,-258,-258,-259,-255,-257,-257,-255,-255,-252,-250,-251,-247,-250,-248,-237,-218,-216,-208,-199,-185,-191,-191,-196,-207,-223,-240,-241,-242,-242,-244,-241,-188,-57,57,117,-179,-619,-642,-500,-316,-208,-182,-168,-156,-147,-141,-130,-123,-118,-106,-96,-89,-75,-70,-59,-43,-33,-19,-3,9,18,26,35,37,32,24,18,6,-3,-13,-18,-23,-31,-42,-56,-68,-76,-85,-92,-95,-101,-101,-94,-96,-92,-88,-88,-92,-88,-88,-86,-84,-82,-83,-84,-81,-80,-85,-86,-87,-88,-86,-88,-88,-90,-92,-92,-94,-92,-94,-92,-89,-87,-84,-84,-84,-79,-81,-76,-75,-66,-47,-48,-41,-34,-23,-22,-20
2019-05-14,13:23:10.901,-26,-37,-59,-78,-76,-75,-78,-72,-70,-25,103,237,338,29,-462,-472,-322,-135,-27,-9,3,14,27,35,40,51,58,65,73,84,95,103,112,124,132,142,152,166,172,180,182,182,173,169,159,149,142,135,142,136,126,115,98,86,79,65,60,60,61,60,56,61,59,59,56,62,62,64,65,65,66,65,66,63,58,60,54,51,49,46,47,47,44,38,38,41,40,39,42,41,46,47,46,49,48,51,52,64,82,83,91,105,107,107,106,101,79,60,49,50,51,52,50,55,123,256,377,439,-14,-382,-326,-171,-1,79,90,100,108,111
2019-05-14,13:23:11.929,116,123,130,139,148,156,164,176,184,199,210,221,229,239,250,259,262,265,260,255,250,239,234,228,225,221,210,203,186,168,153,141,135,130,126,120,121,123,122,117,122,120,125,127,126,123,125,124,123,123,115,110,109,106,103,94,96,95,91,90,89,90,92,90,92,86,80,83,82,80,79,90,102,107,118,133,136,134,134,123,106,84,70,66,64,66,69,77,161,303,405,352,-102,-328,-250,-134,-3,92,112,122,132,138,142,149,153,160,174,181,187,191,203,214,220,228,240,254,261,267,266,274,270,261,250,240,232,224,221,214
2019-05-14,13:23:12.957,201,188,166,152,138,124,114,112,106,109,106,104,104,100,102,102,107,109,109,108,100,101,101,99,95,84,77,72,68,64,65,63,60,58,56,58,61,58,51,52,57,73,71,76,85,97,99,93,90,80,60,44,39,41,36,33,37,76,196,309,321,60,-325,-342,-246,-124,0,55,74,85,88,94,100,109,111,117,122,128,134,141,146,156,166,173,182,179,176,175,178,179,172,170,158,149,136,129,119,105,95,79,64,48,36,34,21,14,16,11,8,10,15,12,17,18,19,19,21,14,17,15,15,16,14,9,6,8,3,-4
2019-05-14,13:23:13.985,-2,-4,-6,-5,-6,-8,-11,-13,-7,-1,20,17,22,28,36,34,29,21,11,-5,-24,-30,-27,-26,-31,-22,52,187,237,181,-154,-441,-408,-293,-146,-34,-3,9,18,24,35,40,45,50,59,62,65,78,83,89,99,104,116,123,131,141,148,150,153,150,146,135,121,101,93,79,71,55,43,29,11,0,-7,-13,-16,-19,-19,-19,-21,-21,-19,-21,-18,-18,-12,-6,-7,-10,-17,-25,-26,-31,-36,-40,-43,-47,-47,-48,-50,-54,-58,-63,-57,-62,-66,-61,-66,-60,-44,-38,-32,-31,-18,-25,-26,-33,-41,-61,-81,-88,-88,-93,-93,-85,-27,109,167,143
2019-05-14,13:23:15.013,-136,-474,-475,-355,-195,-81,-51,-38,-28,-23,-18,-14,-8,-3,1,6,6,16,27,36,52,60,66,76,94,101,106,111,114,115,102,100,89,77,66,51,35,21,7,-8,-24,-31,-42,-49,-53,-52,-52,-47,-44,-44,-38,-35,-33,-35,-35,-31,-30,-32,-35,-34,-39,-42,-45,-48,-42,-48,-50,-53,-52,-53,-60,-58,-61,-63,-67,-67,-67,-66,-68,-66,-64,-62,-48,-35,-38,-34,-23,-22,-20,-23,-34,-45,-69,-79,-77,-80,-78,-79,-65,38,161,211,117,-306,-494,-411,-264,-113,-56,-45,-36,-24,-17,-11,-2,4,11,18,25,35,40,49,56,62,74,86,96,104
2019-05-14,13:23:16.041,111,114,115,117,112,101,92,81,74,64,51,38,30,11,1,-14,-21,-27,-30,-36,-31,-34,-31,-27,-26,-25,-23,-22,-23,-21,-20,-20,-26,-23,-21,-30,-31,-32,-34,-39,-37,-42,-45,-45,-46,-51,-51,-54,-54,-56,-51,-52,-53,-51,-51,-56,-57,-56,-55,-46,-29,-31,-30,-20,-10,-18,-22,-25,-39,-62,-80,-82,-84,-81,-81,-75,2,133,217,223,-175,-490,-448,-299,-126,-52,-37,-25,-21,-12,-1,2,8,17,25,33,33,45,52,63,77,88,95,108,118,128,137,135,134,126,119,111,104,99,90,83,72,62,49,38,25,15,11,8,4,-1,0,-1
2019-05-14,13:23:17.069,4,9,6,4,9,13,14,13,10,9,10,4,3,5,2,6,3,-2,-4,-7,-5,-5,-7,-9,-12,-13,-16,-13,-12,-8,-7,-4,3,-1,1,4,8,12,19,36,39,48,57,66,63,64,57,41,25,13,12,16,15,17,23,105,236,337,354,-93,-413,-343,-180,0,68,80,91,104,106,118,124,127,135,141,154,166,174,182,194,205,216,231,243,247,251,256,258,251,240,238,229,220,216,209,207,200,188,174,161,147,136,129,122,119,117,120,126,128,127,128,131,128,131,131,130,131,129,127,125,122,122,122,122,115,112,113,111,114
2019-05-14,13:23:18.097,111,110,107,107,110,105,104,107,110,109,103,107,108,107,110,116,135,138,146,157,165,163,162,154,138,115,98,96,100,103,101,111,176,311,427,449,48,-302,-254,-128,15,117,136,144,159,167,173,182,185,192,193,204,210,220,225,238,246,256,268,280,285,292,301,307,306,301,291,278,270,260,250,245,239,221,209,195,183,169,159,151,148,151,152,155,153,154,153,159,161,158,153,153,157,156,147,147,145,140,137,135,130,133,130,122,121,123,122,122,120,120,118,117,118,118,119,121,125,122,140,141,147,163,172,166,163,157,139,122
2019-05-14,13:23:19.125,100,97,95,94,93,96,160,295,384,365,2,-309,-272,-153,-23,86,123,136,144,149,158,160,160,168,171,175,182,191,201,204,217,228,233,248,255,255,267,271,269,265,258,250,240,229,221,212,200,187,171,154,137,126,114,109,109,104,103,111,112,110,112,113,115,112,113,111,114,112,110,104,106,105,98,95,94,92,89,86,81,81,81,74,72,71,72,70,68,69,64,65,78,87,92,107,117,116,108,108,102,80,63,59,51,47,41,50,88,203,308,306,95,-295,-361,-269,-122,15,70,82,98,103,109,106,118,121,130,133,129,138
2019-05-14,13:23:20.153,148,149,167,175,184,193,201,211,221,227,226,218,210,208,196,183,170,167,150,137,122,104,89,77,65,62,56,60,62,55,54,58,63,65,64,64,65,61,53,63,60,57,53,50,44,39,39,31,19,24,22,11,13,10,10,9,7,7,4,0,-2,-4,-3,6,19,25,27,30,41,42,37,35,32,14,-6,-16,-13,-19,-20,-16,48,175,226,193,-96,-420,-416,-305,-150,-27,0,11,24,31,40,41,41,46,56,59,66,73,80,97,108,118,129,137,139,151,157,166,160,156,148,138,131,119,105,91,79,56,46,30,19,7,1,-2
2019-05-14,13:23:21.181,-3,-5,-7,-2,-4,-1,1,-1,3,5,3,1,3,4,-1,-3,2,-3,-1,-2,-9,-14,-21,-23,-21,-24,-22,-25,-29,-27,-29,-28,-29,-28,-31,-32,-34,-36,-36,-29,-17,-12,-13,-5,4,7,7,2,-9,-20,-40,-51,-55,-62,-60,-61,-29,88,194,221,29,-391,-474,-368,-206,-70,-34,-26,-15,-3,1,8,16,14,21,29,37,39,49,61,70,77,88,104,109,121,130,133,138,130,119,111,103,94,84,77,61,49,38,23,9,-3,-16,-17,-19,-23,-21,-18,-13,-12,-7,-9,-3,-4,-4,-5,-5,-8,-5,-11,-15,-18,-15,-23,-27,-27,-30,-33
2019-05-14,13:23:22.209,-35,-36,-42,-42,-45,-45,-41,-39,-42,-45,-44,-42,-42,-40,-37,-38,-43,-40,-23,-19,-17,-9,4,7,1,0,-7,-25,-42,-52,-51,-52,-57,-62,-37,79,198,260,93,-363,-483,-381,-209,-66,-29,-14,-2,6,16,18,25,28,36,43,46,55,63,75,83,90,105,117,125,136,143,150,146,143,140,131,120,113,101,100,89,81,72,58,46,32,22,20,19,17,14,17,18,23,26,19,26,29,27,27,29,29,28,27,24,20,18,17,14,13,15,15,12,9,11,6,9,8,6,6,4,9,8,11,13,13,12,9,7,6,12,32,36,43
2019-05-14,13:23:23.237,54,63,66,65,56,50,35,18,11,9,12,7,8,44,166,281,359,136,-343,-408,-281,-98,22,46,59,74,88,95,102,111,121,120,127,135,146,162,172,179,186,199,205,211,222,228,231,228,225,217,207,197,189,182,177,172,166,150,138,121,103,102,100,96,95,94,96,97,97,103,102,103,101,105,103,99,102,98,100,101,97,95,93,88,81,80,82,80,82,84,80,79,77,80,77,79,81,79,83,80,75,78,72,76,76,84,105,107,109,123,131,126,126,118,98,78,66,70,69,72,67,77,162,306,416,370,-99,-337,-255,-125
2019-05-14,13:23:24.265,12,90,111,123,127,134,140,139,141,147,154,161,171,180,191,201,216,220,235,242,252,254,258,258,253,244,237,229,219,211,204,197,185,175,156,136,119,108,102,100,91,89,90,93,92,99,103,99,98,100,98,93,91,86,84,82,80,75,73,66,66,68,67,66,60,58,56,57,58,56,57,55,57,59,56,55,59,74,83,75,90,103,98,102,98,86,66,42,35,37,36,31,34,78,198,298,309,46,-337,-360,-260,-120,4,56,65,72,84,92,95,98,109,115,115,123,131,136,150,157,165,177,187,194,204,214,214,211,205,199
2019-05-14,13:23:25.293,196,185,175,164,152,142,127,109,97,85,66,58,56,51,50,53,50,54,54,56,52,56,61,58,53,55,52,45,46,45,42,36,34,35,30,28,31,23,17,16,12,10,13,8,7,7,0,-2,0,5,22,22,22,29,38,34,24,-2,-25,-42,-67,-82,-121,-155,-174,-183,-130,-16,34,-19,-313,-616,-620,-511,-367,-246,-214,-204,-199,-198,-196,-197,-194,-194,-192,-186,-176,-174,-170,-162,-155,-148,-134,-128,-115,-105,-101,-96,-95,-96,-106,-120,-128,-146,-157,-165,-178,-194,-207,-222,-236,-247,-253,-258,-259,-258,-259,-253,-255,-255,-249,-245,-241,-240,-237,-236,-231,-228
2019-05-14,13:23:26.321,-229,-226,-231,-237,-236,-242,-242,-242,-250,-253,-253,-253,-261,-263,-261,-266,-263,-264,-261,-268,-272,-270,-272,-268,-249,-241,-238,-230,-214,-215,-221,-227,-237,-247,-264,-280,-279,-288,-291,-291,-263,-147,-50,-90,-273,-623,-710,-624,-480,-338,-277,-261,-252,-245,-234,-231,-221,-217,-213,-207,-205,-196,-190,-180,-169,-167,-154,-143,-134,-124,-117,-111,-116,-117,-120,-130,-143,-151,-162,-172,-184,-189,-208,-219,-232,-248,-255,-261,-263,-263,-260,-260,-259,-258,-256,-248,-247,-250,-247,-239,-243,-238,-243,-250,-253,-258,-258,-265,-264,-268,-270,-266,-268,-274,-279,-280,-284,-284,-285,-285,-287,-286,-287,-286,-287,-290,-291,-290
2019-05-14,13:23:27.349,-285,-284,-286,-280,-277,-271,-263,-251,-248,-242,-225,-220,-230,-228,-239,-252,-277,-288,-288,-290,-291,-287,-268,-171,-59,-56,-160,-536,-702,-629,-486,-332,-256,-236,-230,-222,-211,-206,-201,-198,-192,-186,-183,-171,-162,-155,-145,-139,-133,-122,-114,-103,-97,-96,-99,-102,-104,-118,-126,-134,-141,-148,-156,-163,-173,-185,-201,-214,-223,-234,-236,-234,-236,-232,-235,-233,-230,-224,-228,-223,-219,-221,-221,-219,-214,-213,-219,-218,-218,-223,-222,-227,-223,-225,-226,-227,-228,-224,-228,-223,-222,-224,-223,-224,-226,-223,-219,-221,-220,-222,-218,-219,-215,-215,-217,-219,-218,-214,-219,-221,-216,-213,-201,-184,-181,-174,-163,-150
2019-05-14,13:23:28.377,-156,-163,-165,-177,-195,-211,-215,-216,-215,-214,-204,-116,17,62,-18,-428,-639,-570,-431,-273,-197,-183,-170,-164,-152,-146,-143,-135,-131,-127,-123,-113,-104,-93,-85,-77,-68,-60,-50,-34,-25,-26,-18,-19,-25,-31,-42,-58,-69,-75,-80,-92,-97,-107,-117,-131,-145,-150,-156,-159,-162,-163,-165,-166,-163,-160,-156,-157,-155,-148,-147,-147,-146,-144,-142,-148,-151,-153,-154,-157,-164,-167,-168,-168,-166,-164,-162,-165,-166,-163,-161,-161,-160,-158,-160,-162,-161,-161,-159,-157,-164,-168,-166,-165,-169,-166,-165,-167,-160,-140,-131,-123,-115,-107,-110,-111,-116,-128,-147,-161,-160,-159,-161,-162,-156,-86,44,127
2019-05-14,13:23:29.405,154,-214,-568,-538,-396,-221,-135,-114,-100,-89,-84,-75,-71,-68,-60,-57,-54,-49,-37,-28,-17,-3,3,18,31,40,48,57,60,57,50,47,36,21,10,-4,-6,-12,-23,-37,-53,-67,-74,-85,-86,-89,-95,-91,-83,-86,-88,-82,-81,-80,-78,-73,-71,-73,-74,-81,-79,-79,-77,-75,-79,-82,-87,-91,-90,-94,-95,-93,-92,-97,-99,-96,-96,-98,-96,-100,-99,-102,-100,-99,-98,-93,-97,-94,-91,-89,-91,-87,-84,-76,-60,-56,-49,-38,-23,-26,-31,-36,-43,-62,-81,-83,-82,-82,-83,-81,5,141,235,215,-231,-495,-419,-275,-119,-46,-28,-18,-8,-1,4,10,15,17
2019-05-14,13:23:30.433,23,27,37,51,60,72,85,98,110,115,127,131,142,145,149,142,135,124,113,105,97,87,79,67,53,36,19,7,1,0,-5,-10,-13,-14,-13,-14,-9,-8,-5,-8,3,4,3,3,1,-2,-2,-7,-10,-16,-17,-21,-22,-21,-26,-29,-33,-34,-35,-38,-41,-39,-42,-43,-38,-37,-37,-35,-38,-36,-34,-21,-13,-12,-1,17,14,18,15,2,-11,-35,-43,-41,-39,-41,-38,8,135,239,238,-33,-424,-435,-328,-197,-72,-14,-3,7,18,24,28,35,46,52,56,61,71,78,87,93,105,118,126,135,152,161,167,168,166,161,150,139,127,113,101,92
2019-05-14,13:23:31.461,87,69,51,39,25,17,11,8,2,2,-5,1,1,2,4,8,10,8,7,9,11,13,11,8,3,-2,0,-5,-8,-15,-16,-20,-21,-25,-29,-26,-29,-29,-32,-25,-27,-33,-27,-28,-19,-8,-4,-2,10,26,27,20,17,11,-6,-27,-31,-29,-29,-31,-26,28,158,226,190,-99,-429,-426,-314,-165,-47,-8,7,14,25,32,38,46,48,57,63,62,68,78,87,94,108,119,130,142,152,159,162,163,162,155,149,140,127,121,100,88,72,57,37,21,11,6,1,-2,-7,-10,-13,-11,-11,-9,-11,-9,-9,-8,-4,-4,-4,-5,-10,-11,-15,-19
2019-05-14,13:23:32.489,-33,-35,-35,-37,-34,-39,-32,-39,-39,-46,-50,-52,-57,-55,-58,-53,-59,-54,-48,-47,-33,-22,-16,-6,4,3,-2,-7,-22,-34,-54,-69,-70,-69,-69,-59,0,130,192,155,-122,-446,-456,-343,-195,-75,-39,-24,-14,-4,-2,4,7,12,14,22,32,35,43,55,64,75,85,95,111,120,127,133,138,135,128,118,111,99,86,76,61,43,28,12,-4,-14,-21,-26,-28,-25,-30,-32,-27,-22,-24,-23,-18,-16,-15,-13,-13,-15,-15,-15,-14,-11,-13,-19,-19,-20,-25,-24,-26,-29,-31,-35,-35,-36,-38,-37,-35,-35,-38,-37,-35,-39,-36,-38,-41,-31,-22,-13
2019-05-14,13:23:33.517,-11,-8,0,12,14,10,5,-7,-24,-48,-57,-51,-56,-60,-57,-25,86,197,216,47,-364,-461,-364,-218,-75,-30,-19,-4,5,13,20,25,31,33,43,49,50,57,67,72,87,99,111,120,134,140,144,150,152,144,138,128,115,102,99,88,76,59,47,30,15,3,-6,-11,-8,-10,-14,-16,-18,-12,-12,-11,-14,-13,-5,-4,-11,-7,-1,-2,-2,-8,-8,-14,-14,-16,-22,-22,-25,-31,-35,-34,-30,-31,-25,-29,-31,-30,-31,-34,-35,-32,-29,-32,-31,-32,-33,-35,-38,-37,-30,-17,-8,-1,0,7,9,9,1,-10,-25,-44,-49,-54,-53,-55,-56,-3
2019-05-14,13:23:34.545,127,218,256,-33,-434,-453,-329,-159,-45,-25,-6,4,10,16,19,21,28,30,41,52,62,70,72,87,94,107,119,128,137,154,166,163,160,154,146,133,120,107,92,81,74,66,54,36,19,12,5,2,1,-1,-3,-3,-1,9,14,10,6,10,9,16,14,15,16,14,15,13,10,9,8,5,6,8,4,3,5,-2,-2,6,4,2,2,3,3,6,9,6,2,10,10,11,15,20,23,37,42,45,51,61,57,56,50,40,22,3,-5,-5,-2,-7,-1,74,205,303,329,-60,-401,-360,-210,-39,39,46,50,59,68,76,86,89,92,102
2019-05-14,13:23:35.573,110,115,127,142,150,163,170,180,191,199,209,215,222,226,222,214,205,189,182,167,161,153,140,126,107,91,80,70,68,64,61,60,61,66,66,71,72,70,72,71,75,74,76,75,74,73,72,70,65,63,63,58,57,55,49,48,50,45,47,47,41,38,41,43,41,47,56,70,73,82,89,99,100,101,89,77,61,40,38,36,30,32,33,99,228,334,386,41,-366,-349,-216,-49,46,69,77,85,94,96,102,107,117,121,126,134,137,152,164,172,178,190,200,214,227,236,240,239,235,229,217,207,197,182,168,161,146,133,111,92
2019-05-14,13:23:36.601,72,64,66,68,68,64,67,66,70,66,66,65,63,65,68,72,66,66,62,63,57,54,53,41,36,31,28,25,22,21,20,20,21,22,25,26,32,51,49,54,67,77,77,71,57,41,21,9,10,9,5,6,22,126,257,294,155,-273,-411,-329,-202,-69,20,38,52,59,66,74,79,84,89,95,103,107,114,124,132,137,145,156,167,184,187,197,197,198,194,192,181,176,160,148,140,125,107,91,76,59,50,40,38,37,39,37,39,35,36,38,35,38,37,43,44,45,45,44,39,41,41,37,34,27,25,18,10,11,9,11
2019-05-14,13:23:37.629,13,13,12,9,12,19,36,34,41,54,62,56,57,48,37,16,0,-4,-6,-13,-14,0,92,222,243,142,-234,-432,-373,-248,-101,-3,20,31,39,45,46,51,57,62,65,75,80,93,99,103,115,121,132,140,146,157,163,169,172,161,148,147,136,126,114,100,87,73,55,40,28,19,10,7,3,2,0,2,5,8,7,6,5,6,8,8,13,12,11,10,8,6,1,-2,-3,-8,-10,-6,-9,-7,-7,-14,-14,-15,-16,-18,-20,-20,-15,-8,9,11,13,26,36,29,29,24,10,-7,-23,-30,-27,-33,-36,-23,64,195,206,122,-233,-458
2019-05-14,13:23:38.657,-409,-280,-124,-22,-5,6,13,22,25,28,33,43,50,56,61,73,82,85,100,110,122,127,137,150,155,159,156,151,149,144,130,113,104,95,77,67,56,37,27,17,11,8,3,-6,-6,-5,-5,4,4,6,12,12,9,6,4,6,9,8,2,0,3,-1,-7,-8,-7,-9,-12,-14,-16,-15,-11,-12,-11,-16,-15,-15,-19,-20,-20,-26,-25,-22,-19,-8,4,1,8,22,27,25,23,14,-2,-23,-36,-38,-36,-34,-31,10,132,226,217,26,-361,-440,-344,-185,-43,4,14,24,30,37,37,44,47,56,62,64,68,78,89,97,110,119,129,142
2019-05-14,13:23:39.685,153,162,167,167,164,156,145,132,123,122,113,101,89,72,58,44,30,25,11,7,0,1,4,6,7,12,19,19,21,20,22,23,19,21,19,16,19,13,10,10,7,4,4,-2,-4,-5,-7,-5,-11,-13,-15,-16,-17,-21,-24,-23,-23,-23,-30,-22,-23,-27,-29,-30,-26,-29,-14,-4,4,9,24,26,22,16,11,-2,-23,-39,-36,-39,-45,-41,-2,115,220,250,52,-374,-451,-341,-173,-34,-3,8,21,25,32,38,46,49,55,67,71,80,84,94,108,116,129,137,142,153,164,167,166,160,158,146,134,125,116,105,100,91,81,63,53,39
2019-05-14,13:23:40.713,24,16,13,14,15,14,15,13,17,18,18,21,22,22,17,19,19,16,15,10,8,7,6,1,-1,-3,-4,-4,-2,-2,-1,0,2,0,0,0,2,7,4,5,9,12,11,11,11,14,13,11,12,15,36,48,53,60,72,79,75,70,61,43,28,14,17,20,19,25,66,181,294,354,132,-325,-387,-261,-81,45,68,84,100,106,112,122,129,132,134,140,144,152,159,170,182,186,198,209,221,234,239,242,248,240,233,224,215,210,203,198,195,190,177,163,150,140,130,129,127,123,122,120,124,121,126,123,122,124,121,124,123,121
2019-05-14,13:23:41.741,113,110,103,105,108,107,106,105,96,96,89,89,91,85,87,81,84,83,82,90,89,85,83,78,80,78,78,83,80,79,78,80,99,111,113,120,127,133,134,133,118,104,80,72,75,70,68,68,94,210,322,412,236,-267,-357,-235,-53,83,114,128,138,148,149,151,158,161,166,174,183,191,197,209,226,235,244,251,265,272,273,274,268,265,257,250,241,229,221,217,210,199,187,175,153,135,124,120,114,108,103,105,104,107,107,109,108,105,104,100,94,98,97,92,88,86,85,82,83,80,78,72,66,66,67,64,64,61,61,59
2019-05-14,13:23:42.769,59,63,57,59,60,58,58,63,62,66,67,78,91,93,99,113,114,111,108,101,83,63,55,58,54,51,50,75,191,327,406,200,-273,-345,-239,-107,20,70,82,92,100,105,110,115,117,121,125,130,136,146,153,166,175,183,197,207,218,224,225,228,226,218,206,196,192,191,184,176,165,145,131,117,100,90,79,74,72,69,67,71,69,63,65,67,66,66,65,65,63,61,61,61,53,46,40,40,38,34,33,34,34,33,31,32,22,21,19,10,11,12,8,9,11,15,7,12,16,25,33,32,44,56,57,57,56,46,34,10
2019-05-14,13:23:43.797,-2,-5,-8,-2,-2,30,145,269,316,123,-315,-388,-298,-172,-45,15,26,33,44,46,49,56,62,67,74,82,89,96,107,117,127,136,148,158,165,172,176,182,181,171,166,157,151,142,132,125,111,95,83,63,48,42,36,30,26,27,25,26,27,29,28,26,25,27,32,33,34,36,34,35,32,28,29,25,23,20,17,17,14,13,10,6,6,3,1,0,-1,0,-1,-4,3,16,28,25,31,46,50,49,51,41,26,5,-7,-12,-15,-12,-12,21,141,254,278,83,-340,-423,-327,-183,-51,0,14,26,37,45,49,54,58,64,73,84
2019-05-14,13:23:44.825,87,98,106,121,131,143,150,162,167,178,180,179,174,168,161,149,138,127,114,102,94,79,62,43,29,22,19,19,20,13,11,14,14,14,19,21,18,17,22,21,24,23,19,12,10,4,1,-2,-4,-3,-5,-5,-9,-14,-15,-15,-16,-21,-28,-27,-26,-22,-25,-23,-17,2,5,10,17,28,21,20,10,-3,-22,-43,-49,-45,-44,-46,-41,40,175,234,213,-168,-466,-414,-274,-114,-36,-18,-3,5,9,16,23,30,37,43,48,53,66,73,81,93,106,114,125,133,143,154,151,150,146,138,122,112,108,94,87,77,58,41,28,14,-2,-5
2019-05-14,13:23:45.853,-8,-9,-8,-5,-7,-6,-2,5,-1,1,0,0,-1,0,-1,1,-1,-3,1,-1,-4,-7,-13,-12,-18,-24,-28,-27,-33,-33,-32,-32,-34,-36,-31,-35,-37,-39,-40,-38,-20,-14,-15,-9,6,5,-3,-1,-12,-31,-51,-59,-64,-69,-70,-73,-39,89,210,265,62,-394,-482,-371,-196,-65,-37,-26,-17,-10,-4,1,6,13,21,27,33,37,46,52,65,78,90,101,114,126,134,142,141,134,126,114,102,91,83,74,62,51,38,23,9,-7,-19,-18,-23,-25,-23,-23,-20,-18,-10,-12,-11,-12,-9,-10,-9,-7,-8,-12,-11,-12,-10,-13,-12,-18,-20,-22
2019-05-14,13:23:46.881,-25,-27,-27,-28,-34,-30,-29,-32,-38,-33,-37,-39,-36,-37,-34,-34,-30,-31,-28,-16,-4,-1,8,19,22,22,20,12,-5,-28,-43,-41,-41,-48,-51,-32,78,208,288,197,-282,-466,-374,-205,-52,-13,0,10,15,26,32,40,48,51,57,61,73,84,94,108,113,124,138,145,154,161,165,159,156,155,143,134,128,120,110,100,90,77,65,49,35,23,18,16,11,11,16,15,14,15,16,17,21,24,25,26,24,22,19,16,13,14,10,8,-1,-9,-11,-16,-18,-15,-20,-17,-15,-16,-16,-18,-19,-19,-19,-22,-24,-27,-31,-34,-34,-31,-29,-27
2019-05-14,13:23:47.909,-24,-13,-12,-3,8,13,7,5,-2,-16,-41,-52,-49,-51,-53,-54,-36,63,195,282,214,-270,-466,-386,-228,-73,-24,-10,2,9,14,21,24,25,31,42,47,53,60,67,78,92,101,107,114,124,133,138,136,133,126,115,111,99,88,86,79,70,60,45,28,13,4,-6,-14,-12,-14,-17,-14,-18,-20,-12,-11,-13,-13,-11,-16,-13,-9,-9,-10,-12,-18,-26,-28,-34,-37,-42,-40,-42,-47,-50,-50,-52,-51,-48,-46,-49,-47,-49,-52,-54,-54,-54,-53,-54,-54,-52,-49,-34,-29,-27,-16,0,1,-1,-11,-24,-46,-62,-63,-61,-62,-67,-65,-12,121,241
2019-05-14,13:23:48.937,276,-70,-450,-429,-316,-186,-72,-41,-31,-22,-14,-8,3,7,18,24,29,36,41,49,54,66,77,87,99,110,116,126,129,124,119,114,102,96,87,77,71,65,54,36,17,3,-8,-21,-26,-28,-30,-26,-24,-19,-16,-13,-12,-14,-11,-10,-11,-9,-11,-14,-14,-16,-18,-20,-21,-31,-36,-36,-38,-43,-45,-49,-55,-53,-56,-61,-64,-66,-65,-64,-63,-62,-63,-66,-67,-71,-73,-70,-68,-54,-45,-47,-37,-26,-19,-23,-29,-40,-56,-77,-84,-93,-92,-97,-96,-62,55,188,237,13,-424,-473,-375,-244,-120,-68,-57,-45,-40,-34,-26,-16,-11,-5,5,11,16,22
2019-05-14,13:23:49.965,35,48,61,69,80,85,94,102,111,113,110,100,90,80,69,58,51,44,34,20,7,-9,-24,-32,-33,-39,-40,-45,-43,-40,-37,-39,-40,-42,-44,-39,-37,-39,-44,-46,-47,-49,-51,-55,-56,-65,-64,-65,-66,-65,-68,-68,-69,-66,-70,-70,-67,-70,-74,-76,-75,-78,-78,-77,-78,-80,-79,-83,-81,-77,-61,-55,-50,-41,-33,-35,-36,-39,-47,-63,-82,-92,-90,-88,-96,-86,-17,116,185,179,-168,-489,-455,-334,-185,-79,-50,-40,-34,-27,-19,-11,-5,-2,-2,3,12,18,29,36,44,50,62,79,92,101,114,118,122,116,110,100,86,77,66,53,45,32
2019-05-14,13:23:50.993,21,8,-6,-21,-34,-37,-39,-43,-42,-43,-42,-42,-41,-34,-35,-27,-29,-26,-22,-27,-28,-25,-28,-28,-29,-33,-41,-46,-47,-46,-50,-50,-50,-56,-57,-60,-61,-63,-70,-72,-69,-70,-72,-66,-67,-69,-70,-73,-73,-62,-46,-49,-39,-28,-23,-25,-33,-37,-49,-73,-86,-90,-90,-91,-95,-71,40,157,185,32,-396,-519,-417,-259,-118,-68,-51,-45,-41,-30,-26,-17,-7,-5,-4,2,10,19,27,35,48,58,73,79,89,101,110,110,112,109,100,91,83,68,56,48,34,17,0,-16,-31,-42,-53,-59,-57,-59,-54,-52,-53,-52,-52,-54,-51,-49,-47,-49,-52,-53
2019-05-14,13:23:52.021,-51,-49,-49,-54,-49,-49,-52,-57,-64,-68,-73,-74,-73,-72,-73,-75,-78,-79,-82,-81,-78,-76,-79,-80,-82,-79,-77,-75,-76,-60,-50,-52,-41,-31,-20,-24,-34,-40,-51,-73,-87,-86,-85,-86,-84,-69,34,163,220,130,-317,-512,-428,-263,-101,-54,-44,-35,-30,-26,-19,-12,-5,2,10,14,23,31,40,53,62,71,80,89,96,105,111,112,115,112,99,94,82,69,60,49,36,24,10,-1,-19,-29,-33,-38,-37,-33,-30,-31,-30,-29,-30,-28,-27,-28,-24,-24,-23,-27,-26,-27,-31,-30,-33,-33,-38,-38,-42,-47,-48,-48,-51,-49,-50,-56,-59,-58,-58,-63
2019-05-14,13:23:53.049,-65,-66,-63,-64,-63,-66,-67,-68,-68,-70,-53,-40,-30,-23,-12,-10,-11,-12,-20,-36,-58,-65,-65,-69,-71,-67,-41,73,197,270,108,-373,-491,-372,-191,-50,-26,-11,-4,4,10,12,15,26,34,40,43,53,62,74,86,98,105,116,129,134,143,148,148,142,135,129,120,115,104,95,87,77,64,51,42,27,15,6,4,0,1,3,0,-3,2,4,3,-2,0,3,5,5,0,-3,-4,-5,-8,-9,-12,-16,-18,-22,-26,-32,-31,-38,-39,-36,-35,-33,-40,-42,-44,-45,-47,-47,-46,-43,-44,-43,-45,-46,-36,-21,-19,-10,-5,4,2,1,-14,-26
2019-05-14,13:23:54.077,-45,-60,-60,-61,-64,-63,-56,37,169,266,229,-248,-495,-421,-261,-100,-44,-29,-18,-12,-7,0,11,16,24,34,45,52,58,70,81,88,99,109,116,126,127,134,137,135,131,125,117,109,102,98,90,83,72,63,41,25,11,1,-1,-9,-13,-16,-16,-12,-13,-11,-3,-1,0,-4,-6,-7,-8,-7,-12,-12,-14,-17,-19,-25,-24,-27,-29,-33,-32,-33,-31,-36,-40,-38,-41,-39,-42,-41,-39,-37,-35,-41,-43,-41,-36,-23,-25,-20,0,15,10,9,4,-6,-25,-42,-44,-46,-45,-46,-36,26,166,276,286,-105,-436,-397,-281,-145,-38,-10,2,9,22,24
2019-05-14,13:23:55.105,27,32,38,43,49,53,63,70,80,94,105,117,129,145,153,160,163,164,161,151,144,138,126,119,109,91,82,66,55,38,24,12,6,7,3,2,5,3,3,2,8,9,9,14,13,10,7,5,6,3,1,1,0,-5,-11,-12,-15,-16,-15,-14,-16,-19,-19,-20,-21,-18,-18,-19,-17,-18,-20,-18,-18,-14,0,4,9,23,35,32,29,21,4,-13,-34,-41,-39,-45,-43,-31,37,177,267,245,-145,-433,-390,-280,-145,-39,-15,1,9,19,26,32,36,41,47,61,69,76,84,91,101,114,127,137,149,153,158,168,170,165,157,145,136,124
2019-05-14,13:23:56.133,117,106,95,86,72,55,38,27,21,13,11,8,4,3,1,2,3,8,2,0,4,9,10,11,12,7,2,4,-1,-5,-7,-9,-8,-11,-14,-14,-17,-16,-19,-21,-24,-24,-23,-29,-26,-25,-30,-25,-24,-22,-11,0,-1,8,19,24,23,22,15,1,-17,-30,-32,-36,-33,-36,-10,105,224,262,111,-322,-437,-341,-202,-69,-16,-1,9,21,24,27,32,34,43,48,53,59,61,69,89,100,107,115,129,141,151,162,163,166,161,152,138,129,120,104,97,81,65,48,33,19,6,-1,-6,-7,-7,-7,-10,-6,-7,-2,2,3,5,8,10,11
2019-05-14,13:23:57.161,13,11,9,8,4,1,5,-1,-7,-5,-13,-10,-13,-15,-16,-16,-19,-18,-20,-23,-24,-30,-34,-26,-27,-25,-16,4,8,9,17,31,29,27,25,16,4,-18,-27,-26,-25,-28,-31,13,140,237,256,23,-394,-440,-329,-170,-39,-5,6,15,26,32,36,41,47,54,60,66,67,73,84,93,103,111,124,135,146,154,156,163,164,164,154,146,135,127,114,102,86,70,55,38,21,5,4,-1,-3,0,1,2,5,2,4,7,8,9,10,13,10,6,10,6,6,5,2,-4,-8,-11,-17,-17,-18,-19,-22,-24,-21,-18,-21,-22,-24,-20,-17,-21
2019-05-14,13:23:58.189,-21,-26,-28,-21,-10,-1,1,10,16,23,15,14,11,-5,-29,-37,-39,-40,-42,-43,-20,85,213,261,136,-317,-470,-377,-217,-66,-17,-1,11,18,27,32,32,40,46,51,64,75,85,90,100,111,123,133,146,158,166,172,173,173,169,162,150,138,125,112,106,92,84,67,49,33,20,17,14,9,8,7,3,6,9,14,19,23,25,27,25,26,28,26,24,29,22,22,15,10,4,5,4,1,-1,-4,2,3,-2,-3,0,-5,-8,-11,-11,-9,-9,-8,-9,-6,-1,13,24,29,36,46,47,44,43,37,16,-6,-11,-11,-14,-16,-18,7
2019-05-14,13:23:59.217,118,242,305,136,-338,-448,-341,-163,-23,12,19,30,39,42,48,51,58,65,71,76,82,91,105,116,119,129,138,145,156,166,174,179,180,176,167,155,147,134,121,108,99,88,74,55,37,26,19,14,16,18,19,24,22,20,22,24,22,23,24,23,24,24,24,20,17,17,14,13,14,11,9,14,11,10,10,7,-1,-3,5,3,1,7,5,2,-2,-3,-1,-4,-1,2,13,29,30,35,44,56,50,49,44,25,2,-9,-11,-15,-16,-18,-3,97,227,307,234,-251,-448,-361,-191,-34,7,17,31,36,39,52,56,61,69,73,75,81
2019-05-14,13:24:00.245,90,99,105,123,136,146,154,162,170,178,177,177,170,163,152,140,132,124,117,103,96,81,64,49,37,27,26,23,21,20,19,14,16,19,21,23,24,28,28,22,18,15,11,9,4,2,1,-4,-3,-7,-6,-9,-13,-14,-12,-15,-18,-24,-24,-27,-21,-19,-16,-16,-15,-17,-14,-14,-8,6,18,19,26,39,37,35,30,19,7,-13,-18,-16,-16,-19,-16,17,141,278,351,120,-342,-394,-285,-145,-13,27,37,49,61,64,74,75,76,81,89,94,100,107,116,127,137,149,159,167,175,185,190,192,188,177,170,165,157,151,146,140,133,118
2019-05-14,13:24:01.273,106,87,71,59,52,50,55,52,45,50,52,50,56,55,53,59,62,61,57,58,59,52,53,55,53,54,48,42,36,39,39,32,30,26,28,28,27,25,24,24,25,23,24,26,27,35,48,46,54,67,69,68,69,62,44,20,9,9,7,2,2,26,136,274,333,174,-282,-395,-303,-167,-40,24,42,52,62,68,76,82,84,90,93,105,113,119,129,139,150,157,164,182,187,195,205,206,204,196,193,179,165,163,157,145,131,116,104,89,72,59,52,50,47,44,45,44,45,45,47,49,55,57,51,54,58,58,55,45,47,47
2019-05-14,13:24:02.301,43,43,39,34,29,27,27,24,27,29,26,23,24,23,22,21,21,17,18,20,19,31,42,42,53,63,67,61,59,51,38,23,11,8,9,6,6,19,119,250,300,209,-230,-414,-331,-191,-51,22,35,47,51,60,67,69,72,79,85,86,99,106,113,119,131,141,153,166,177,187,193,193,191,190,187,176,158,146,134,122,109,97,85,73,55,41,33,31,26,23,25,26,23,26,29,30,29,35,39,38,36,39,35,34,36,32,30,27,24,21,20,15,9,6,9,10,9,10,3,3,5,5,4,0,2,-1,-4,6,24,25
2019-05-14,13:24:03.329,29,34,41,44,38,28,14,3,-12,-17,-24,-17,-21,-22,36,171,258,273,-29,-415,-416,-291,-132,-14,10,19,24,36,41,46,51,56,65,68,77,85,94,105,113,123,134,146,158,164,176,182,184,182,173,167,157,147,131,115,104,93,77,60,44,26,14,4,5,3,6,5,3,8,7,9,13,13,20,19,16,17,12,9,6,4,3,0,-10,-14,-14,-14,-17,-14,-15,-17,-20,-23,-21,-21,-22,-25,-26,-31,-28,-27,-28,-30,-26,-24,-9,-5,-2,11,23,19,16,11,6,-14,-34,-41,-40,-43,-45,-42,14,152,241,266,-38,-432,-435,-311
2019-05-14,13:24:04.357,-151,-40,-13,3,14,20,31,34,35,43,48,49,56,67,72,84,95,103,116,130,139,149,156,164,172,167,161,154,143,136,124,111,98,83,67,54,37,26,15,9,3,4,3,4,5,5,6,9,4,7,12,13,10,9,9,8,10,9,4,2,0,-7,-11,-14,-12,-16,-22,-22,-22,-26,-24,-26,-26,-25,-27,-30,-29,-32,-33,-33,-37,-38,-34,-19,-9,-11,0,8,19,13,13,1,-11,-31,-46,-46,-41,-37,-36,-28,64,200,276,216,-238,-458,-377,-217,-56,-4,7,17,25,33,28,31,39,45,45,50,58,69,79,88,99,107,119,135
2019-05-14,13:24:05.385,138,145,152,156,154,151,143,133,119,109,95,82,71,58,37,28,15,3,-4,-6,-12,-16,-10,-12,-9,-7,-3,-4,1,-2,1,-2,3,2,-1,-1,2,-1,-7,-13,-18,-16,-20,-21,-26,-28,-33,-40,-34,-39,-41,-40,-38,-40,-37,-41,-36,-32,-27,-26,-30,-30,-25,-10,-3,8,13,25,26,24,21,8,-12,-32,-37,-40,-41,-43,-40,0,124,236,314,71,-394,-447,-324,-148,-28,-6,6,12,22,31,35,41,46,50,52,58,68,78,93,100,106,118,125,135,145,151,156,159,156,150,147,139,126,118,110,98,86,72,56,41,28,16,8,7
2019-05-14,13:24:06.413,9,7,1,1,5,3,8,12,7,3,1,5,2,-1,-3,-4,-6,-6,-10,-10,-13,-17,-20,-25,-24,-30,-32,-29,-30,-30,-33,-32,-30,-33,-32,-33,-27,-29,-34,-32,-33,-26,-11,-5,0,8,18,19,20,16,7,-8,-25,-34,-30,-27,-30,-31,-13,91,224,323,204,-288,-429,-332,-188,-47,-3,5,12,27,33,38,48,51,53,55,62,71,81,89,103,115,128,138,151,156,163,170,171,168,164,156,151,140,137,123,113,100,79,67,51,38,33,24,18,14,18,18,19,16,16,15,16,20,25,23,18,15,15,17,15,12,14,7,3,-1
2019-05-14,13:24:07.441,2,-1,-5,-5,-3,-3,-6,-10,-10,-11,-6,-10,-13,-13,-11,-7,-5,-11,-8,-8,1,15,19,17,36,45,46,41,30,19,10,-14,-18,-17,-20,-22,-20,34,167,284,312,-15,-392,-377,-268,-146,-24,14,22,31,42,46,54,65,70,76,87,92,97,112,123,129,139,147,158,169,177,185,188,190,189,182,172,164,152,140,130,123,107,95,75,59,46,35,28,27,25,27,29,27,26,27,30,30,33,31,31,37,34,27,29,27,25,22,15,16,12,9,7,7,7,8,7,4,1,-3,-6,-1,-2,-1,-2,-2,0,-6,-5,0,9,24
2019-05-14,13:24:08.469,16,27,42,44,37,32,28,12,-9,-22,-26,-31,-33,-35,-18,86,227,287,189,-245,-429,-353,-223,-91,-18,2,18,25,33,40,48,53,60,65,67,76,83,86,95,110,124,131,141,155,166,165,167,170,166,163,153,138,126,114,100,90,76,63,47,35,19,8,8,1,-7,-8,-8,-9,-9,0,2,-1,2,5,9,8,8,10,4,4,1,-6,-8,-11,-14,-15,-20,-26,-26,-25,-24,-29,-24,-27,-28,-33,-30,-32,-32,-30,-32,-33,-25,-11,-11,-8,2,6,3,2,-4,-14,-33,-52,-57,-57,-53,-53,-48,39,171,228,196,-174,-465,-420,-292,-142
2019-05-14,13:24:09.497,-47,-26,-16,-9,1,7,13,17,27,32,39,46,51,59,69,82,95,100,112,122,133,143,150,151,151,143,132,125,111,97,81,69,52,35,20,6,-4,-12,-20,-27,-28,-28,-32,-30,-31,-27,-26,-26,-23,-17,-16,-15,-15,-19,-24,-30,-38,-39,-39,-44,-43,-44,-43,-48,-54,-55,-54,-64,-63,-60,-59,-62,-60,-55,-54,-53,-55,-55,-52,-47,-33,-32,-21,-12,-8,-10,-11,-17,-31,-50,-67,-70,-68,-71,-73,-58,35,161,213,143,-277,-503,-433,-286,-127,-53,-39,-35,-22,-14,-8,1,6,14,21,31,33,39,53,66,76,83,94,105,112,123,130,134
2019-05-14,13:24:10.525,133,126,116,111,99,87,77,65,53,38,24,3,-11,-23,-30,-37,-39,-38,-41,-41,-41,-41,-34,-32,-31,-28,-32,-33,-31,-37,-33,-36,-39,-38,-40,-42,-48,-46,-49,-54,-55,-54,-56,-59,-52,-55,-58,-57,-59,-62,-59,-56,-56,-57,-52,-57,-56,-41,-33,-36,-26,-15,-14,-17,-21,-31,-49,-66,-80,-82,-83,-84,-82,-47,80,200,250,61,-401,-500,-390,-218,-83,-50,-34,-24,-19,-12,-3,3,15,20,25,32,42,48,59,68,76,88,101,120,131,139,145,148,143,141,135,128,116,105,95,79,68,53,35,23,11,3,-7,-10,-15,-17,-11,-8,-9,-6
2019-05-14,13:24:11.553,-14,-14,-13,-14,-12,-14,-7,-9,-8,-9,-14,-16,-17,-22,-26,-29,-30,-35,-39,-38,-39,-37,-40,-37,-36,-31,-28,-31,-32,-30,-29,-24,-29,-24,-10,0,1,9,17,16,9,3,-9,-20,-40,-50,-50,-52,-56,-53,-19,98,221,295,114,-370,-465,-355,-179,-42,-13,0,9,20,27,34,41,44,47,55,69,77,84,94,102,110,122,132,141,155,169,173,172,171,171,168,156,139,130,118,109,95,81,64,50,30,17,7,6,8,8,10,14,17,25,24,24,27,25,26,25,20,18,20,20,15,10,9,7,3,-2,-10,-12,-10,-12,-14,-14,-15
2019-05-14,13:24:12.581,-15,-17,-21,-22,-27,-29,-26,-29,-24,-26,-21,-13,-3,5,9,23,22,25,23,8,-9,-28,-35,-35,-41,-38,-35,-7,112,239,315,102,-373,-444,-326,-164,-36,-7,2,16,26,37,48,50,55,60,70,80,92,95,100,109,120,130,142,155,163,172,174,177,178,174,166,160,148,140,127,115,109,96,77,58,42,30,24,26,25,22,24,26,29,25,30,36,37,34,33,37,36,37,36,34,31,23,18,21,16,14,11,12,5,3,5,4,4,2,-3,0,0,-2,1,-4,-7,-12,-8,10,16,19,28,42,39,35,38,30,7,-12,-17,-19
2019-05-14,13:24:13.609,-12,-13,-15,23,151,282,333,95,-345,-393,-291,-159,-41,9,24,37,49,61,65,73,76,81,87,97,103,112,120,125,135,146,156,168,178,188,195,197,194,194,185,170,160,154,142,132,122,107,88,72,57,49,40,42,41,39,41,40,38,41,43,43,45,47,46,44,45,50,46,43,43,40,42,35,30,32,31,23,20,17,17,18,15,15,17,16,14,12,16,14,11,10,22,41,43,45,53,67,65,59,49,37,19,5,1,0,2,2,6,63,199,304,306,-48,-385,-362,-249,-112,-1,32,38,44,51,59,65,70,71,79,88,92
2019-05-14,13:24:14.637,101,108,115,124,137,148,162,171,179,193,199,203,202,202,193,179,170,157,149,140,126,106,89,76,59,50,47,48,46,47,46,43,41,48,47,43,46,51,54,50,54,52,50,54,49,44,43,39,33,30,30,28,23,18,17,16,13,15,16,13,15,22,19,18,16,14,20,36,39,44,53,63,61,63,55,44,30,11,3,-3,2,4,4,54,189,284,295,25,-366,-383,-272,-125,0,32,40,47,57,70,74,72,79,87,91,102,110,120,131,138,146,156,174,189,199,207,213,215,213,205,196,181,173,164,152,135,121,104,84,69
2019-05-14,13:24:15.665,51,40,33,31,30,28,30,30,29,32,30,33,35,38,40,41,42,44,41,41,38,34,32,28,22,16,17,18,12,8,5,2,0,1,4,-1,0,-4,-5,1,-2,-2,0,6,22,21,29,39,45,39,33,27,21,6,-12,-17,-21,-24,-21,-14,61,196,256,235,-129,-441,-402,-266,-110,-18,1,12,19,28,29,35,41,44,50,55,62,70,78,88,95,104,120,128,137,150,159,165,175,172,163,152,140,127,112,102,89,74,56,37,22,7,1,-3,-9,-8,-6,-3,-6,0,0,-3,-4,-5,-3,0,-1,1,-2,-5,-8,-15,-10,-10
2019-05-14,13:24:16.693,-19,-27,-28,-31,-33,-34,-36,-42,-43,-45,-47,-44,-51,-52,-50,-49,-51,-56,-55,-53,-53,-54,-51,-38,-33,-29,-23,-10,-4,-5,-9,-15,-31,-52,-63,-60,-63,-69,-66,-25,102,210,245,0,-428,-476,-363,-201,-71,-39,-27,-17,-6,1,13,18,23,26,38,49,61,72,77,82,90,108,116,122,134,143,151,153,154,151,144,132,121,110,100,91,77,60,42,28,18,11,6,2,-3,-2,-2,0,-2,1,2,6,7,6,7,8,3,3,2,-6,-10,-12,-11,-19,-17,-20,-26,-28,-28,-28,-28,-29,-31,-32,-30,-28,-34,-35,-35,-36,-40,-39,-45,-42
2019-05-14,13:24:17.721,-38,-40,-33,-15,-13,-5,1,15,17,14,10,0,-24,-42,-44,-48,-50,-47,-42,35,169,249,258,-142,-463,-419,-265,-97,-23,-11,2,12,14,22,27,29,31,41,47,54,60,74,81,95,107,116,128,140,155,159,162,165,161,155,148,140,127,118,107,93,77,68,45,35,30,22,20,17,19,16,21,22,19,23,21,20,22,26,21,17,14,19,16,17,10,11,6,2,0,-5,-5,-7,-9,-10,-12,-14,-14,-9,-7,-12,-12,-8,-10,-17,-15,-13,-13,-16,-18,-17,-15,4,6,12,23,37,31,28,24,17,-6,-25,-24,-31,-29,-31,-29,41
2019-05-14,13:24:18.749,169,264,310,-70,-447,-416,-266,-86,-3,8,21,27,35,42,47,51,56,65,73,81,85,90,98,110,120,129,141,154,164,174,177,180,174,169,159,152,147,135,129,119,107,87,67,47,37,26,19,13,12,13,15,18,18,17,15,16,17,17,18,20,19,16,15,11,6,4,1,-3,-4,-6,-8,-9,-11,-13,-16,-19,-21,-18,-16,-14,-11,-17,-19,-21,-22,-20,-20,-21,-15,-5,-3,2,13,26,23,22,22,9,-11,-28,-27,-26,-25,-25,-20,41,181,290,288,-94,-431,-397,-278,-143,-31,-4,12,26,34,36,40,46,56,63,70,77,87,93
2019-05-14,13:24:19.777,100,110,118,124,134,139,148,155,160,166,165,158,149,141,129,122,107,92,81,68,45,31,19,9,4,1,2,-4,-3,3,0,-1,2,2,2,4,10,8,9,11,6,4,7,11,6,4,-5,-4,-7,-8,-9,-12,-10,-13,-21,-24,-23,-24,-26,-23,-28,-28,-25,-13,-2,-4,-1,16,20,16,13,6,-9,-31,-44,-39,-48,-52,-51,-34,64,204,264,151,-292,-453,-372,-247,-114,-32,-11,0,12,18,27,34,36,40,48,53,61,66,75,84,91,102,112,126,133,136,150,155,155,148,144,135,123,115,99,86,74,56,41,28,12,1,-6,-11
2019-05-14,13:24:20.805,-17,-11,-8,-11,-12,-7,-1,-3,1,3,4,11,12,12,10,11,5,5,3,0,-4,-6,-8,-7,-15,-21,-23,-24,-25,-28,-25,-26,-26,-28,-26,-29,-27,-17,-5,-4,4,17,22,16,14,8,-8,-27,-41,-46,-49,-47,-45,-32,62,197,250,181,-228,-451,-389,-258,-111,-28,-9,3,8,18,28,32,31,37,42,42,54,62,67,74,84,90,104,119,131,140,148,157,158,155,151,138,124,117,107,94,80,61,46,30,14,2,-5,-10,-11,-13,-11,-9,-13,-12,-11,-9,-4,-2,0,-2,1,8,7,5,6,4,-1,-3,-7,-9,-11,-12,-13,-19
2019-05-14,13:24:21.833,-25,-30,-27,-25,-22,-27,-29,-28,-28,-30,-24,-9,-1,-1,9,19,20,15,5,-1,-16,-36,-50,-49,-44,-47,-45,-3,119,224,246,24,-401,-464,-348,-190,-58,-25,-12,-2,7,8,13,23,29,35,37,47,55,58,70,77,84,96,107,115,128,145,152,159,160,148,140,130,121,108,94,82,65,49,37,18,3,-3,-9,-12,-19,-18,-15,-16,-14,-4,-1,3,2,3,0,1,4,1,2,2,-1,-5,-6,-11,-18,-19,-23,-27,-22,-20,-21,-26,-27,-29,-28,-33,-39,-41,-41,-37,-39,-37,-36,-34,-39,-24,-10,-14,-2,4,12,8,5,1,-12,-36
2019-05-14,13:24:22.861,-51,-56,-57,-56,-59,-49,55,189,234,131,-303,-488,-403,-251,-95,-37,-21,-11,-2,10,15,15,20,27,34,40,45,52,60,71,81,86,96,106,116,128,134,141,141,141,130,120,108,97,87,72,62,44,24,12,-4,-19,-26,-31,-36,-34,-31,-33,-30,-25,-21,-25,-21,-19,-18,-18,-15,-15,-15,-16,-17,-17,-19,-23,-29,-35,-34,-34,-35,-32,-36,-38,-40,-46,-47,-49,-47,-50,-54,-60,-57,-55,-60,-62,-61,-51,-35,-31,-26,-11,1,-6,-9,-12,-24,-44,-54,-58,-63,-65,-68,-61,31,169,247,222,-204,-479,-420,-263,-94,-38,-29,-17,-6,-2,6,12
2019-05-14,13:24:23.889,20,23,25,34,41,51,60,71,86,98,108,118,123,130,140,144,143,142,141,128,117,105,96,88,75,63,47,31,18,6,-7,-6,-3,-3,-6,-7,-11,-9,-7,-8,-5,-1,2,1,-2,2,1,0,2,-5,-7,-8,-12,-14,-22,-24,-26,-27,-30,-27,-30,-25,-24,-29,-32,-30,-28,-33,-31,-35,-36,-35,-33,-32,-25,-16,-2,0,3,10,18,18,19,11,-1,-16,-38,-40,-38,-40,-41,-40,6,132,240,312,33,-413,-440,-308,-128,-21,-5,11,22,32,34,37,44,51,60,63,68,76,84,96,107,118,131,137,143,156,164,164,165,161,153,149
2019-05-14,13:24:24.917,140,133,128,125,117,105,90,74,54,36,26,17,17,17,14,17,14,12,8,14,15,13,11,12,11,11,9,9,6,3,-1,0,2,-1,2,1,-5,-5,-6,-6,-8,-12,-16,-15,-10,-12,-13,-17,-19,-17,-16,-20,-20,-24,-22,-11,4,8,14,29,34,33,32,25,18,-3,-19,-17,-16,-18,-24,-19,49,180,286,304,-86,-420,-379,-259,-118,-15,7,13,23,33,41,44,45,49,55,61,66,72,87,97,102,113,125,132,146,155,167,166,168,160,154,148,140,128,121,114,101,86,75,58,43,31,17,10,3,1,7,6,8,8,9,12
2019-05-14,13:24:25.945,14,16,18,16,16,14,16,13,11,5,4,6,-1,-6,-11,-12,-9,-10,-12,-19,-19,-22,-20,-19,-20,-15,-14,-17,-19,-19,-17,-21,-22,-16,-1,-1,7,21,31,31,32,24,9,-16,-29,-30,-26,-31,-32,-26,48,186,278,261,-137,-428,-377,-259,-129,-27,3,19,24,36,42,43,45,50,62,64,72,79,84,96,110,119,129,136,146,155,166,170,171,167,164,155,143,133,125,112,108,93,76,62,41,27,22,16,10,7,8,5,2,6,8,5,5,7,9,11,13,18,15,15,14,11,8,3,1,-3,-5,-12,-15,-18,-19,-21,-23,-22
2019-05-14,13:24:26.973,-24,-25,-25,-25,-28,-27,-27,-26,-20,-20,-16,-3,0,8,14,25,21,19,11,1,-18,-40,-39,-36,-41,-40,-31,51,183,248,215,-168,-446,-398,-272,-129,-34,-15,-3,5,11,15,21,27,36,44,49,55,57,65,78,88,104,114,124,133,148,157,162,155,149,142,137,126,111,100,89,77,66,50,35,24,15,5,-1,2,0,-3,-5,0,-3,2,7,6,8,15,13,8,6,6,6,-1,0,-9,-17,-15,-15,-15,-16,-16,-18,-25,-20,-20,-21,-25,-22,-26,-29,-30,-30,-32,-34,-29,-17,1,-1,4,14,21,22,22,15,0,-19,-36,-38,-38
2019-05-14,13:24:28.001,-47,-46,-36,43,178,225,178,-188,-468,-417,-280,-122,-27,-7,0,7,13,19,26,27,35,40,50,60,71,79,86,94,105,114,125,142,150,155,164,165,163,160,153,141,126,119,105,91,74,62,46,29,21,9,3,-4,-5,-2,3,7,6,2,6,5,6,10,10,11,11,8,2,4,5,-1,-8,-11,-14,-20,-23,-23,-26,-22,-27,-30,-31,-32,-30,-31,-30,-34,-36,-39,-37,-37,-36,-25,-8,-6,5,13,20,18,10,4,-16,-38,-52,-55,-52,-55,-57,-43,44,179,233,198,-210,-481,-417,-269,-105,-34,-16,-10,-3,6,15,17,23,30,36,37
2019-05-14,13:24:29.029,42,50,58,70,82,95,110,117,121,131,143,152,155,147,142,132,118,106,97,82,69,56,36,18,2,-1,-9,-14,-17,-20,-22,-16,-11,-10,-11,-10,-11,-7,-11,-15,-10,-14,-19,-19,-17,-24,-28,-31,-31,-39,-40,-39,-41,-43,-46,-46,-45,-43,-45,-49,-45,-48,-49,-52,-46,-46,-49,-49,-43,-21,-14,-15,-10,2,3,0,-10,-24,-41,-58,-65,-66,-68,-67,-63,-18,114,218,267,-26,-446,-469,-342,-164,-52,-32,-25,-17,-5,7,9,16,19,27,35,42,47,54,68,76,89,106,120,130,142,144,147,154,152,145,137,125,115,104,95,90,74,61
2019-05-14,13:24:30.057,48,31,17,10,3,-3,-5,-6,-3,1,6,5,4,3,6,3,4,5,1,-6,-7,-13,-10,-9,-16,-26,-27,-29,-32,-34,-37,-37,-36,-40,-43,-40,-39,-36,-31,-31,-30,-29,-32,-32,-30,-33,-29,-11,-7,-6,-1,9,11,11,7,-7,-22,-37,-48,-43,-46,-49,-43,1,126,239,310,51,-409,-447,-317,-141,-23,-6,2,12,22,27,34,40,48,56,66,77,82,92,105,118,125,135,149,160,170,182,182,186,183,179,175,168,164,154,146,136,125,110,98,82,64,50,43,39,38,39,37,36,37,37,38,40,39,38,39,42,46,45,50,45
2019-05-14,13:24:31.085,41,38,36,37,30,28,22,18,17,16,13,12,8,4,6,2,3,-1,-2,-2,-4,-3,-2,-1,4,12,28,30,35,47,56,53,48,42,36,14,-2,-4,-3,-5,-7,-4,86,223,326,294,-170,-418,-339,-211,-66,12,26,35,46,53,58,66,71,74,77,82,92,102,109,114,124,134,148,159,173,183,190,192,189,186,185,179,169,161,154,146,133,121,103,88,72,58,49,46,37,36,42,37,36,42,44,45,48,48,48,45,43,45,43,42,41,33,31,27,23,21,23,20,15,20,19,11,16,13,13,9,5,6,5,5,10,11
2019-05-14,13:24:32.113,6,5,8,20,25,23,33,49,46,42,38,29,11,-10,-15,-11,-18,-18,-16,15,138,264,314,84,-353,-403,-302,-169,-47,5,21,34,37,45,52,63,68,72,80,84,99,108,112,122,130,144,155,167,173,182,184,190,187,183,179,169,158,144,128,121,110,100,76,60,53,45,38,35,32,29,30,35,32,32,36,42,40,45,48,45,46,41,41,40,38,36,31,26,22,23,16,16,16,15,12,7,5,4,2,-1,-4,-3,-2,-6,-8,-7,2,17,20,29,39,50,47,45,39,29,5,-7,-11,-12,-16,-15,1,95,231,290,209,-211
2019-05-14,13:24:33.141,-423,-353,-228,-87,-2,13,26,37,46,50,57,64,70,76,82,91,106,119,122,124,136,147,157,163,175,186,193,191,181,169,161,155,140,128,114,97,86,68,52,42,32,26,22,20,20,17,15,10,11,11,12,18,20,25,29,29,28,26,24,24,25,18,20,11,8,7,5,3,-3,-3,0,-3,0,-6,-4,-1,0,-4,-4,-4,-6,-1,15,20,25,33,49,51,51,40,31,20,-7,-10,-9,-11,-12,-9,27,152,252,263,36,-373,-419,-315,-160,-28,9,19,31,42,47,52,56,57,61,63,66,76,88,99,106,121,134,142,157,172
2019-05-14,13:24:34.161,178,184,191,194,185,183,174,159,147,138,124,108,89,71,56,41,35,24,18,15,14,15,18,16,15,16,19,17,18,21,23,18,16,16,13,14,14,10,5,-2,-1,-3,-3,-10,-14,-16,-19,-22,-25,-22,-25,-27,-24,-26,-31,-35,-33,-34,-31,-15,-9,-4,7,21,19,18,10,0,-17,-37,-48,-48,-48,-50,-53,-12,113,220,240,32,-394,-463,-351,-189,-59,-24,-13,1,8,14,19,27,29,36,40,45,52,60,68,81,92,99,111,121,130,144,154,159,156,154,147,138,128,111,94,86,66,50,33,16,-1,-8,-16,-20,-22,-23,-25,-211
2019-05-14,13:24:35.189,-21,-22,-23,-19,-19,-22,-25,-33,-23,-26,-22,-23,-29,-27,-31,-37,-41,-44,-43,-50,-51,-53,-53,-50,-56,-58,-57,-58,-55,-52,-51,-56,-61,-62,-61,-62,-66,-64,-58,-43,-36,-31,-21,-18,-20,-14,-26,-39,-55,-75,-77,-80,-81,-81,-78,-18,111,205,230,-85,-471,-473,-346,-184,-74,-48,-33,-25,-18,-13,-8,-1,5,12,16,25,33,41,49,58,69,81,92,104,113,124,129,127,123,118,111,101,87,80,72,60,52,35,22,10,-5,-17,-24,-25,-29,-29,-30,-31,-27,-27,-26,-27,-23,-24,-28,-27,-25,-26,-30,-36,-39,-42,-46,-44,-44,-45,-52,-53
2019-05-14,13:24:36.217,-53,-52,-52,-60,-61,-58,-60,-60,-59,-58,-57,-53,-52,-53,-54,-52,-51,-46,-43,-23,-15,-12,-2,8,7,7,-2,-16,-31,-45,-57,-54,-51,-61,-58,1,135,235,284,-38,-448,-457,-324,-149,-51,-34,-21,-8,4,6,16,20,28,37,43,53,62,73,84,98,106,113,124,130,137,145,151,155,149,140,126,116,109,91,81,76,65,47,32,18,1,-5,-12,-18,-21,-19,-18,-16,-13,-12,-15,-14,-12,-13,-15,-15,-18,-20,-21,-23,-24,-25,-28,-30,-29,-31,-32,-37,-38,-34,-33,-36,-38,-40,-42,-44,-46,-45,-47,-53,-52,-53,-52,-49,-49,-46,-39,-24
2019-05-14,13:24:37.245,-19,-13,-2,10,9,7,-2,-14,-34,-47,-50,-49,-54,-54,-48,31,170,268,252,-186,-461,-400,-261,-109,-31,-14,-7,6,15,21,26,32,37,44,51,57,58,66,79,82,93,106,114,128,140,143,148,150,144,134,128,120,108,100,88,80,67,49,33,10,-5,-11,-20,-20,-18,-19,-13,-10,-9,-11,-8,-13,-11,-12,-15,-13,-16,-21,-22,-24,-23,-25,-27,-30,-37,-38,-40,-37,-41,-42,-43,-48,-49,-48,-48,-49,-46,-46,-45,-51,-57,-55,-53,-51,-33,-23,-24,-12,1,6,5,0,-9,-23,-43,-54,-55,-57,-53,-52,-23,101,232,278,61,-379,-443,-344
2019-05-14,13:24:38.273,-206,-83,-24,-13,-9,6,13,13,16,24,27,35,39,46,53,60,73,85,95,111,122,129,143,149,152,153,149,142,132,125,117,107,93,87,72,53,34,17,3,0,-4,-9,-7,-6,-11,-7,-2,-1,-7,-8,-3,-4,-6,-4,-6,-8,-11,-11,-10,-13,-16,-17,-23,-26,-29,-29,-25,-24,-30,-33,-33,-35,-29,-29,-30,-29,-33,-35,-33,-32,-26,-15,-8,-3,7,18,20,13,14,9,-7,-29,-31,-29,-30,-37,-37,7,135,244,251,-14,-410,-431,-321,-179,-56,-15,-7,8,17,21,28,34,37,43,49,55,63,75,88,93,103,111,118,131,142,157
2019-05-14,13:24:39.301,162,167,170,169,161,149,136,126,117,103,89,74,60,45,37,30,23,14,13,14,11,5,6,11,13,13,13,13,18,21,22,21,18,17,10,8,9,2,0,-2,-4,-7,-8,-10,-12,-10,-9,-9,-13,-18,-19,-22,-24,-27,-25,-31,-29,-26,-11,-3,-2,12,23,28,26,18,12,-3,-22,-26,-23,-26,-30,-25,16,146,248,255,22,-385,-434,-321,-171,-40,-3,16,23,27,30,40,44,55,58,63,66,75,86,92,102,113,123,132,142,152,157,169,177,175,170,165,150,135,123,109,96,80,63,48,33,18,6,0,-2,-3,0,0,3,2
2019-05-14,13:24:40.329,-3,0,2,9,8,6,4,3,10,6,9,7,2,0,-2,-6,-9,-6,-7,-15,-14,-13,-14,-17,-15,-14,-13,-10,-10,-15,-10,-13,-17,-18,-8,-1,16,14,21,28,35,36,28,16,7,-12,-27,-29,-26,-27,-28,-24,57,195,250,209,-183,-456,-402,-266,-110,-24,-5,5,12,19,27,32,40,45,51,55,62,72,77,83,87,99,115,123,135,145,149,158,161,159,148,141,132,120,111,104,89,75,59,45,30,11,5,0,-6,-10,-7,-7,-7,-6,-4,-2,1,2,4,4,2,2,1,-3,-5,-5,-5,-10,-13,-16,-14,-21,-23,-26,-26,-28
2019-05-14,13:24:41.357,-30,-32,-33,-30,-33,-38,-36,-35,-37,-37,-38,-37,-30,-11,-13,-12,-5,6,3,6,3,-6,-26,-48,-55,-52,-51,-46,-51,1,140,239,274,-29,-431,-446,-313,-136,-25,0,6,18,24,31,36,39,40,51,54,62,72,78,89,104,112,123,128,140,150,161,167,171,171,169,166,154,147,142,130,116,105,88,71,56,47,37,34,28,25,22,24,27,27,27,37,42,45,43,39,40,40,37,37,37,34,35,29,27,23,25,26,19,19,17,19,14,15,23,22,17,17,19,14,15,18,17,17,13,10,19,21,43,47,48,56,66,63,63
2019-05-14,13:24:42.385,56,45,31,10,4,5,7,6,4,63,194,294,339,8,-393,-390,-246,-68,35,56,62,73,82,90,96,104,109,113,121,127,129,135,145,157,171,179,194,204,217,228,234,234,235,229,218,210,204,192,183,171,159,141,125,110,93,86,78,77,71,71,67,71,74,77,79,78,78,78,79,77,74,72,68,70,70,68,67,60,57,61,61,54,52,53,48,47,48,46,51,49,47,47,42,40,38,34,35,38,35,32,31,39,56,55,58,72,85,80,79,70,54,31,16,14,12,11,18,32,133,262,351,263,-229,-407,-316,-153,2,47
2019-05-14,13:24:43.413,57,62,68,75,80,83,84,91,98,105,113,119,131,138,145,152,166,178,186,194,201,202,202,199,193,186,176,168,164,155,146,131,115,101,81,68,58,53,42,41,37,38,44,43,41,43,41,39,36,37,36,33,39,37,33,29,26,23,20,18,15,10,12,10,5,6,1,-6,-2,0,-1,0,-5,-9,-11,-8,-6,2,13,11,14,29,43,39,37,30,20,-2,-14,-20,-21,-22,-22,-14,75,223,326,244,-224,-427,-356,-229,-98,-11,8,21,32,38,45,50,53,61,66,76,83,88,96,103,110,122,135,146,159,162,174,180,178,170
2019-05-14,13:24:44.441,155,149,137,124,117,110,99,85,65,52,35,25,19,10,8,6,10,12,10,11,8,11,13,12,9,6,11,13,5,6,3,-2,-8,-10,-12,-13,-20,-24,-27,-26,-27,-26,-32,-32,-26,-30,-28,-30,-31,-26,-27,-24,-5,-4,5,16,23,26,22,11,4,-13,-34,-38,-39,-40,-38,-29,57,201,286,223,-212,-430,-365,-249,-124,-32,-6,5,9,23,26,33,38,39,42,47,52,64,76,81,89,101,111,123,134,143,151,159,158,160,154,141,135,127,114,106,93,79,59,41,26,18,6,-4,-7,-9,-9,-13,-6,-3,0,4,5,6,13,8
2019-05-14,13:24:45.469,1,1,3,3,1,-5,-6,-11,-13,-17,-20,-23,-21,-23,-31,-30,-25,-29,-30,-32,-33,-34,-29,-17,-5,-4,1,9,16,7,2,-1,-13,-32,-51,-54,-55,-56,-60,-39,75,207,257,115,-328,-461,-377,-243,-108,-36,-22,-14,-6,2,9,12,19,25,27,36,43,50,61,70,79,91,102,114,125,133,145,152,151,153,146,131,120,108,97,81,67,47,29,12,-3,-17,-22,-30,-39,-37,-35,-34,-26,-20,-21,-21,-18,-18,-16,-13,-7,-10,-10,-12,-11,-11,-19,-18,-25,-26,-26,-31,-34,-32,-33,-35,-38,-41,-43,-48,-52,-50,-47,-30,-19,-19,-14,-1
