2019-05-14,14:27:18.580,-11,30,31,23,18,21,27,29,32,42,49,63,65,70,80,91,102,115,134,150,171,188,201,208,211,204,201,183,164,137,100,63,39,26,11,2,-6,-2,0,-3,-1,0,0,0,5,-4,0,-4,-11,-21,-20,-29,-26,-20,-14,-3,17,19,4,-7,-30,-50,-59,-58,-60,-65,-65,-70,-71,20,173,236,145,-105,-192,-139,-84,-50,-47,-46,-41,-31,-25,-18,-15,-5,8,16,30,40,55,69,88,109,125,146,159,174,186,190,191,182,171,153,130,105,83,65,49,41,38,38,42,36,37,44,44,48,51,52,52,57,53,60,59,61,60,62
2019-05-14,14:27:19.608,67,72,57,80,121,102,81,59,38,26,17,15,15,17,18,4,30,156,274,255,94,-107,-62,4,23,21,21,29,31,34,33,32,38,41,48,49,54,59,67,78,99,113,136,152,161,172,172,172,171,167,148,120,94,70,48,30,13,6,1,3,8,13,18,17,24,23,20,19,16,19,18,20,15,14,12,5,10,18,36,41,53,77,76,63,48,20,3,-5,-11,-12,-10,-14,-27,-12,94,214,211,65,-148,-113,-30,-8,-16,-17,-14,-12,-4,-1,1,6,11,13,15,22,37,46,54,61,75,94,113,129,140,142,144,140,134,121
2019-05-14,14:27:20.636,103,76,55,35,16,6,-4,-6,-6,-11,-17,-16,-17,-15,-15,-14,-11,-12,-4,-6,-8,-8,-9,-10,-8,-2,-5,5,17,23,42,53,47,27,3,-13,-26,-32,-34,-34,-31,-38,-50,16,166,254,181,-61,-163,-81,-33,-25,-25,-20,-21,-14,-8,-8,-5,2,5,14,21,26,35,49,65,86,102,122,140,145,157,158,155,147,138,118,95,69,42,25,7,0,-2,-4,-4,-10,-6,1,12,13,19,23,22,33,37,34,34,36,31,32,40,41,40,45,63,74,84,104,103,81,50,21,0,-12,-21,-27,-28,-23,-32,-38,75,237,280,131,-139,-139
2019-05-14,14:27:21.664,-45,-10,-9,-11,-10,-9,-14,-16,-9,4,1,5,6,16,23,30,48,56,74,89,105,124,132,132,135,131,127,122,112,95,67,42,25,11,9,7,6,12,9,9,11,18,19,14,9,4,-3,-1,2,-9,-15,-22,-19,-17,-14,-10,-8,7,10,22,47,54,42,23,-5,-16,-22,-22,-19,-26,-23,-29,-26,124,318,343,156,-149,-134,-49,-8,-2,0,2,6,8,5,6,7,12,24,33,42,56,64,74,86,101,121,131,150,161,162,170,161,164,156,131,110,73,55,33,18,7,10,8,13,13,15,17,23,30,29,27,27,28,22,15
2019-05-14,14:27:22.692,19,26,32,50,49,61,87,86,77,67,48,37,29,24,20,17,18,20,28,139,297,323,194,-63,-110,-59,0,33,36,43,42,47,55,60,71,75,83,87,92,91,98,108,120,141,164,181,195,205,205,197,192,185,171,153,130,105,82,64,56,48,47,45,46,51,56,58,62,63,58,60,56,53,48,42,44,39,37,38,41,49,54,57,82,84,74,55,27,10,-2,-8,-11,-14,-19,-25,-33,45,178,236,156,-78,-137,-56,-7,-6,-4,-5,-3,-2,-4,4,8,18,27,37,44,54,64,68,81,97,115,119,133,145,143,138,130,126
2019-05-14,14:27:23.720,111,88,64,37,11,-7,-21,-30,-31,-28,-27,-28,-23,-15,-18,-19,-17,-17,-17,-21,-15,-6,-6,-7,-6,-5,4,15,25,47,61,59,38,14,-8,-11,-15,-21,-23,-27,-32,-41,26,168,241,171,-63,-166,-79,-18,-5,-1,0,2,4,10,13,27,38,47,54,55,65,78,92,99,114,129,146,163,166,167,164,159,148,133,114,89,60,32,8,-14,-26,-28,-31,-31,-29,-22,-29,-28,-29,-30,-34,-28,-22,-21,-24,-25,-24,-25,-17,-5,8,20,38,40,32,6,-27,-37,-51,-57,-60,-62,-63,-69,-70,37,181,201,72,-178,-177,-87,-58,-55,-55,-53
2019-05-14,14:27:24.748,-52,-48,-41,-45,-45,-41,-36,-25,-16,-12,-3,12,31,41,58,79,94,108,111,102,100,94,84,61,33,6,-26,-55,-70,-77,-78,-82,-83,-83,-87,-84,-89,-87,-86,-83,-80,-84,-92,-99,-106,-97,-102,-100,-81,-73,-49,-26,-28,-38,-60,-93,-110,-118,-132,-145,-151,-149,-146,-125,-1,136,163,14,-209,-173,-75,-41,-33,-28,-40,-42,-41,-38,-35,-28,-18,-8,1,8,20,32,42,47,60,86,94,113,120,122,122,123,120,109,85,56,21,-9,-29,-47,-55,-53,-59,-62,-59,-55,-65,-64,-67,-72,-75,-77,-71,-69,-74,-75,-79,-72,-52,-50,-32,-12,-9,-14
2019-05-14,14:27:25.776,-44,-63,-80,-91,-89,-95,-97,-101,-115,-121,31,209,223,22,-269,-258,-175,-135,-126,-128,-138,-142,-138,-119,-102,-91,-88,-74,-67,-63,-52,-44,-37,-22,-7,16,39,41,60,58,47,30,18,0,-26,-54,-80,-100,-119,-126,-125,-127,-132,-118,-115,-119,-116,-112,-118,-122,-115,-105,-96,-93,-98,-103,-117,-106,-98,-100,-88,-77,-71,-87,-111,-131,-134,-141,-145,-139,-137,-139,-162,-79,153,269,160,-176,-331,-272,-200,-187,-196,-189,-174,-164,-151,-126,-115,-108,-96,-85,-90,-85,-75,-61,-46,-30,-12,4,18,34,36,32,11,4,-4,-29,-57,-86,-110,-134,-144,-153,-172,-174,-174,-172
2019-05-14,14:27:26.804,-153,-153,-152,-151,-152,-155,-152,-152,-154,-144,-139,-137,-134,-118,-118,-129,-146,-174,-183,-191,-192,-197,-196,-192,-195,-192,-96,43,60,-23,-254,-313,-262,-199,-167,-160,-156,-160,-163,-161,-154,-146,-141,-135,-137,-137,-143,-143,-161,-116,-91,-64,-85,21,-10,9,19,22,29,14,-11,-31,-24,-39,-77,-94,-100,-115,-138,-93,-94,-98,-114,-93,-107,-111,-124,-126,-132,-132,-143,-160,-140,-148,-142,-113,-112,-106,-81,-79,-122,-94,-170,-175,-201,-180,-169,-169,-192,-206,-152,-18,79,30,-162,-332,-276,-220,-179,-177,-180,-191,-187,-163,-166,-157,-151,-146,-146,-132,-127,-113,-104,-79,-62,-46,-23,-9
2019-05-14,14:27:27.832,1,8,3,6,14,-4,-26,-60,-94,-126,-145,-158,-168,-174,-173,-174,-172,-167,-163,-161,-157,-151,-144,-141,-147,-145,-151,-155,-164,-153,-140,-130,-121,-103,-101,-104,-132,-166,-179,-198,-204,-201,-203,-208,-218,-210,-111,21,32,-49,-291,-329,-253,-221,-229,-201,-186,-192,-197,-186,-191,-179,-183,-195,-184,-167,-163,-160,-145,-128,-109,-92,-77,-61,-49,-40,-40,-43,-52,-70,-102,-127,-157,-186,-205,-211,-218,-218,-217,-219,-212,-211,-208,-207,-204,-200,-198,-191,-179,-173,-177,-184,-193,-199,-192,-176,-160,-153,-137,-133,-136,-156,-184,-200,-212,-219,-223,-229,-229,-237,-250,-160,4,76,-10,-275,-368,-291
2019-05-14,14:27:28.860,-230,-216,-216,-216,-212,-205,-208,-202,-197,-194,-187,-178,-172,-163,-149,-136,-117,-103,-83,-71,-47,-30,-30,-27,-26,-38,-53,-74,-104,-135,-168,-194,-215,-227,-233,-234,-236,-236,-232,-234,-227,-219,-222,-219,-219,-217,-210,-211,-216,-218,-206,-208,-207,-202,-183,-183,-166,-145,-140,-151,-175,-198,-218,-231,-236,-234,-236,-238,-254,-237,-55,171,185,-45,-376,-361,-280,-238,-240,-240,-236,-229,-217,-221,-216,-218,-219,-206,-200,-195,-182,-165,-154,-137,-118,-95,-78,-61,-50,-48,-48,-52,-61,-73,-100,-145,-181,-201,-224,-239,-249,-242,-239,-236,-228,-220,-225,-223,-220,-215,-211,-206,-203,-190,-177,-169,-161,-146
2019-05-14,14:27:29.888,-136,-129,-114,-108,-107,-78,-81,-89,-104,-128,-145,-154,-155,-149,-159,-167,-178,-190,-112,68,181,103,-183,-334,-281,-219,-179,-165,-167,-174,-162,-165,-163,-155,-152,-145,-145,-145,-145,-138,-124,-107,-86,-65,-42,-28,-12,-16,-10,-7,-19,-33,-52,-71,-92,-115,-126,-143,-149,-151,-151,-155,-153,-148,-147,-142,-140,-136,-134,-130,-120,-126,-121,-121,-122,-123,-117,-101,-98,-77,-52,-53,-64,-76,-102,-116,-128,-126,-128,-125,-126,-130,-125,-8,156,214,106,-167,-235,-157,-109,-115,-112,-109,-109,-105,-95,-105,-107,-102,-89,-90,-86,-71,-58,-37,-28,-11,3,22,43,57,61,56,48,38,22,-12
2019-05-14,14:27:30.916,-45,-76,-102,-121,-136,-143,-142,-141,-141,-134,-130,-130,-130,-131,-131,-125,-124,-123,-118,-113,-114,-120,-121,-131,-132,-129,-118,-105,-86,-70,-70,-72,-94,-127,-143,-153,-159,-165,-155,-148,-161,-166,-63,108,171,60,-228,-301,-210,-152,-150,-150,-144,-140,-135,-130,-129,-127,-119,-116,-116,-107,-99,-92,-88,-79,-58,-41,-14,11,22,29,30,27,18,1,-22,-48,-79,-105,-134,-150,-168,-171,-171,-168,-164,-169,-160,-156,-153,-147,-152,-152,-154,-153,-150,-151,-149,-155,-159,-163,-160,-155,-138,-134,-116,-88,-89,-100,-118,-139,-155,-168,-175,-174,-171,-177,-185,-172,-30,154,187,15,-296,-296,-187,-138
2019-05-14,14:27:31.944,-131,-127,-119,-121,-117,-109,-108,-97,-87,-77,-75,-57,-51,-44,-31,-11,13,36,50,74,88,83,82,77,64,50,29,0,-32,-56,-70,-89,-91,-86,-87,-92,-83,-88,-84,-86,-81,-83,-85,-86,-85,-89,-86,-91,-95,-100,-98,-103,-111,-113,-102,-93,-91,-71,-50,-50,-74,-97,-109,-111,-119,-123,-129,-122,-128,-143,-133,46,245,240,6,-299,-272,-199,-145,-150,-144,-142,-151,-157,-152,-149,-132,-121,-108,-109,-91,-98,-81,-86,-75,-46,-30,-29,-5,3,0,-1,-4,-20,-46,-69,-113,-137,-169,-198,-204,-190,-215,-214,-186,-204,-204,-187,-182,-194,-176,-180,-197,-218,-247,-287,-368,-360
2019-05-14,14:27:32.972,-344,-347,-335,-310,-287,-271,-265,-262,-238,-238,-261,-245,-251,-249,-273,-294,-292,-199,-77,-45,-136,-351,-390,-358,-304,-283,-275,-259,-254,-258,-237,-241,-234,-234,-210,-215,-197,-185,-164,-143,-133,-118,-98,-87,-80,-74,-60,-74,-89,-109,-129,-149,-168,-187,-212,-240,-248,-263,-265,-270,-270,-270,-283,-286,-271,-252,-218,-210,-196,-185,-178,-188,-179,-142,-135,-98,-103,-78,-45,-12,5,38,45,21,1,-20,-37,-39,-44,-39,-37,-44,-27,-44,-9,150,308,323,176,-11,44,126,168,160,137,117,106,99,75,47,19,-8,-44,-73,-80,-60,-28,14,67,126,152,158,141,111,59,15,-17,-61
2019-05-14,14:27:34.000,-106,-141,-149,-124,-92,-51,-16,-3,20,32,23,3,-23,-74,-139,-227,-370,-615,-773,-815,-789,-91,1270,1781,1897,1929,1930,1951,1937,1930,1944,1959,2011,2104,2208,2291,2342,2392,2388,2333,2347,2544,2708,2666,2316,2022,2002,2005,2006,1974,1944,1925,1890,1861,1831,1805,1776,1757,1729,1703,1680,1661,1641,1624,1604,1612,1620,1613,1602,1587,1572,1551,1521,1470,1410,1350,1277,1217,1179,1152,1120,1090,1069,1051,1036,1023,1007,994,978,961,948,933,920,905,886,873,847,832,813,798,788,788,784,792,785,755,727,691,651,626,608,597,570,568,552,539,619,905,1126,1074,700,458,512,567,602,600,585,585
2019-05-14,14:27:35.028,573,573,565,565,568,571,572,579,591,583,590,593,594,604,614,620,623,628,624,613,594,566,537,493,459,422,394,370,346,332,325,317,310,308,311,315,313,318,316,303,302,297,288,282,287,288,281,303,299,288,274,246,223,201,192,191,178,169,159,146,201,368,480,426,205,14,31,91,133,138,126,128,133,127,127,132,134,144,153,163,163,177,185,186,200,219,234,249,257,251,250,244,232,210,182,147,117,88,64,40,32,19,20,29,34,41,45,47,59,64,67,74,80,77,68,46,35,42,57,39,10,46,72,31,78,48,-5,0
2019-05-14,14:27:36.056,-67,-122,-129,-164,-186,-203,-211,-213,-216,-116,97,243,184,-66,-226,-172,-111,-82,-80,-79,-71,-83,-98,-132,-166,-191,-210,-197,-184,-177,-168,-148,-134,-108,-83,-55,-14,14,64,103,136,156,176,199,232,262,279,290,308,328,359,396,401,375,330,297,276,248,225,208,186,169,163,159,156,146,139,134,128,129,127,142,155,157,174,183,166,140,130,115,98,88,87,88,84,76,61,120,337,535,508,225,9,41,95,115,112,99,104,94,87,83,70,77,100,86,89,90,96,104,112,123,129,155,165,177,167,169,154,151,131,98,41,21,-14,-53,-80,-91
2019-05-14,14:27:37.084,-97,-131,-126,-150,-153,-149,-162,-185,-205,-195,-223,-222,-226,-239,-219,-236,-238,-249,-250,-252,-251,-239,-221,-231,-248,-267,-296,-309,-330,-332,-347,-346,-337,-348,-341,-200,-36,-31,-191,-417,-429,-396,-360,-344,-341,-339,-335,-332,-330,-328,-341,-346,-347,-348,-351,-344,-343,-337,-332,-320,-304,-289,-279,-268,-274,-282,-283,-303,-324,-354,-380,-412,-435,-448,-468,-482,-485,-491,-497,-494,-493,-498,-493,-494,-497,-493,-491,-500,-495,-489,-492,-499,-504,-501,-500,-503,-499,-495,-477,-470,-466,-447,-435,-435,-452,-474,-497,-508,-520,-513,-513,-520,-533,-549,-480,-323,-184,-221,-434,-592,-559,-517,-522,-531,-534,-534,-538,-534
2019-05-14,14:27:38.112,-535,-532,-520,-520,-511,-512,-507,-497,-486,-479,-471,-445,-421,-408,-384,-374,-369,-373,-373,-384,-405,-431,-462,-490,-511,-528,-527,-528,-528,-524,-523,-528,-522,-524,-521,-524,-521,-518,-524,-523,-526,-529,-530,-529,-531,-529,-531,-528,-529,-531,-531,-514,-503,-498,-478,-468,-471,-487,-503,-521,-526,-531,-539,-538,-533,-530,-550,-502,-322,-176,-206,-425,-607,-578,-534,-522,-518,-513,-514,-517,-523,-520,-517,-508,-496,-491,-486,-487,-476,-467,-457,-445,-428,-410,-386,-371,-369,-366,-369,-371,-382,-402,-431,-460,-489,-520,-532,-537,-538,-538,-539,-541,-541,-539,-539,-537,-535,-534,-535,-536,-544,-541,-537,-535,-537,-539,-551,-544
2019-05-14,14:27:39.140,-546,-548,-552,-547,-546,-549,-551,-540,-535,-533,-514,-509,-520,-525,-539,-558,-567,-572,-580,-581,-571,-575,-595,-513,-328,-213,-267,-516,-648,-616,-574,-565,-568,-569,-569,-568,-567,-562,-558,-559,-552,-539,-535,-532,-519,-507,-500,-477,-453,-437,-421,-410,-399,-394,-397,-394,-404,-421,-446,-472,-495,-510,-520,-523,-527,-526,-520,-517,-515,-518,-518,-517,-508,-498,-502,-498,-488,-490,-487,-480,-481,-494,-498,-494,-495,-492,-494,-500,-509,-509,-503,-505,-511,-512,-515,-500,-496,-462,-470,-475,-477,-485,-499,-507,-512,-509,-511,-510,-527,-473,-289,-137,-159,-395,-583,-563,-518,-497,-492,-493,-487,-484,-485,-485,-479,-468,-466,-461
2019-05-14,14:27:40.168,-459,-449,-444,-434,-422,-406,-386,-358,-339,-326,-321,-317,-312,-315,-326,-333,-352,-377,-400,-423,-439,-447,-453,-458,-466,-458,-453,-451,-446,-445,-441,-447,-444,-441,-445,-440,-435,-437,-443,-445,-437,-431,-431,-433,-431,-430,-427,-433,-442,-436,-436,-434,-436,-436,-439,-420,-418,-392,-385,-388,-388,-402,-417,-417,-414,-410,-402,-409,-423,-388,-204,-35,-34,-252,-475,-458,-411,-384,-385,-377,-376,-382,-370,-368,-363,-349,-342,-341,-336,-324,-314,-303,-289,-271,-252,-233,-204,-189,-176,-169,-174,-180,-183,-193,-218,-251,-282,-304,-315,-332,-343,-349,-337,-331,-330,-327,-319,-315,-314,-307,-303,-300,-295,-297,-294,-286,-292,-295
2019-05-14,14:27:41.196,-287,-292,-289,-291,-294,-296,-301,-299,-303,-305,-297,-293,-287,-294,-283,-286,-285,-275,-261,-251,-273,-269,-277,-305,-313,-313,-309,-309,-312,-333,-340,-180,45,116,-43,-337,-387,-339,-304,-299,-297,-291,-287,-286,-279,-281,-271,-268,-265,-268,-261,-255,-241,-228,-205,-190,-170,-153,-138,-125,-128,-133,-132,-141,-155,-182,-205,-232,-256,-275,-289,-297,-303,-306,-308,-306,-295,-294,-292,-281,-277,-278,-279,-283,-282,-282,-287,-292,-287,-294,-300,-306,-308,-309,-312,-323,-318,-321,-317,-319,-325,-320,-323,-324,-330,-321,-306,-298,-272,-277,-288,-292,-301,-312,-313,-310,-302,-300,-306,-307,-173,71,194,68,-260,-361,-317,-280
2019-05-14,14:27:42.224,-257,-253,-250,-238,-232,-222,-216,-213,-207,-199,-195,-185,-172,-160,-154,-133,-117,-98,-75,-51,-37,-30,-27,-29,-26,-37,-56,-85,-113,-147,-170,-195,-207,-212,-218,-217,-223,-218,-214,-215,-210,-205,-205,-210,-214,-216,-211,-207,-212,-219,-219,-217,-224,-227,-226,-225,-221,-222,-230,-221,-224,-222,-218,-220,-221,-225,-209,-196,-200,-175,-190,-190,-204,-220,-231,-226,-226,-221,-229,-240,-255,-118,134,266,135,-197,-302,-265,-218,-208,-200,-191,-186,-184,-179,-173,-170,-165,-159,-157,-153,-153,-148,-143,-130,-114,-99,-76,-53,-30,-16,-23,-25,-33,-46,-66,-105,-136,-164,-197,-220,-239,-250,-255,-260,-255,-252,-244
2019-05-14,14:27:43.252,-240,-233,-219,-210,-210,-202,-192,-187,-190,-182,-174,-175,-177,-181,-179,-186,-192,-193,-199,-206,-213,-221,-229,-229,-235,-237,-237,-225,-230,-202,-210,-211,-219,-234,-246,-253,-256,-258,-264,-269,-292,-209,29,205,153,-176,-371,-341,-287,-267,-265,-265,-257,-259,-254,-259,-263,-251,-257,-239,-236,-251,-245,-236,-224,-209,-188,-168,-152,-129,-123,-137,-148,-166,-186,-211,-231,-255,-289,-311,-313,-326,-338,-352,-350,-351,-351,-344,-334,-317,-319,-293,-289,-294,-296,-301,-299,-299,-300,-296,-291,-282,-281,-286,-282,-286,-292,-303,-313,-305,-288,-298,-282,-267,-278,-282,-298,-314,-310,-314,-311,-309,-315,-336,-328,-178,27,66
2019-05-14,14:27:44.280,-108,-397,-427,-375,-328,-316,-317,-314,-305,-293,-297,-302,-296,-302,-304,-308,-305,-302,-296,-281,-262,-255,-232,-202,-188,-182,-189,-187,-195,-207,-218,-246,-274,-298,-332,-343,-372,-387,-400,-422,-441,-435,-445,-457,-453,-455,-453,-453,-458,-472,-485,-491,-501,-499,-499,-501,-510,-514,-518,-540,-545,-515,-469,-429,-395,-360,-337,-313,-272,-257,-225,-231,-250,-271,-296,-319,-341,-352,-355,-356,-362,-385,-348,-156,35,35,-194,-427,-407,-346,-329,-328,-324,-316,-322,-323,-322,-327,-331,-324,-312,-303,-303,-291,-274,-260,-244,-224,-206,-182,-162,-149,-134,-134,-145,-146,-160,-190,-222,-258,-287,-307,-319,-325,-335,-333,-335,-324
2019-05-14,14:27:45.308,-316,-317,-314,-311,-314,-315,-316,-315,-315,-317,-321,-324,-327,-326,-323,-313,-311,-309,-307,-310,-311,-314,-317,-326,-333,-322,-320,-300,-283,-303,-308,-322,-337,-347,-356,-361,-368,-369,-377,-377,-228,4,86,-65,-376,-429,-373,-332,-318,-319,-310,-305,-307,-303,-301,-295,-285,-277,-278,-270,-262,-252,-240,-217,-197,-176,-160,-138,-124,-117,-114,-115,-123,-135,-159,-195,-223,-247,-264,-285,-296,-305,-297,-297,-302,-297,-299,-297,-292,-283,-279,-277,-268,-273,-256,-248,-259,-253,-251,-254,-265,-270,-264,-266,-268,-275,-285,-275,-286,-290,-279,-272,-262,-245,-259,-276,-283,-306,-314,-320,-323,-323,-327,-339,-334,-211,-29,35
2019-05-14,14:27:46.336,-87,-371,-435,-396,-349,-332,-330,-328,-325,-320,-317,-314,-306,-295,-279,-277,-272,-266,-263,-246,-247,-236,-223,-197,-178,-158,-146,-147,-144,-143,-151,-174,-203,-231,-258,-284,-297,-304,-311,-310,-311,-310,-307,-304,-306,-302,-303,-298,-303,-299,-293,-290,-295,-296,-297,-301,-304,-313,-319,-326,-331,-340,-343,-345,-351,-365,-360,-358,-351,-341,-353,-359,-368,-384,-392,-402,-403,-404,-405,-419,-413,-289,-116,-62,-183,-440,-484,-432,-399,-401,-407,-412,-411,-411,-404,-401,-404,-400,-397,-394,-391,-390,-383,-365,-357,-337,-312,-298,-272,-256,-248,-246,-247,-246,-257,-285,-312,-342,-368,-389,-397,-407,-409,-408,-403,-399,-403,-399
2019-05-14,14:27:47.364,-405,-406,-407,-401,-402,-401,-402,-394,-391,-388,-389,-392,-397,-395,-399,-393,-392,-397,-404,-407,-408,-411,-398,-386,-381,-360,-370,-377,-386,-400,-412,-412,-405,-401,-402,-407,-414,-318,-139,-54,-157,-423,-511,-453,-413,-406,-408,-408,-402,-397,-398,-399,-396,-391,-387,-382,-383,-377,-366,-351,-334,-316,-294,-269,-251,-239,-229,-231,-232,-231,-242,-268,-300,-331,-355,-376,-391,-399,-406,-409,-408,-411,-410,-411,-415,-406,-403,-401,-404,-402,-394,-386,-379,-381,-389,-389,-398,-408,-410,-412,-413,-417,-417,-411,-409,-414,-418,-424,-412,-409,-397,-386,-396,-406,-420,-428,-431,-427,-428,-422,-425,-432,-435,-312,-110,-31,-155,-442
2019-05-14,14:27:48.392,-505,-437,-399,-397,-393,-401,-395,-396,-399,-400,-400,-394,-379,-371,-372,-365,-370,-370,-356,-342,-321,-301,-282,-273,-261,-257,-258,-264,-275,-298,-333,-359,-388,-407,-427,-438,-450,-456,-458,-444,-437,-431,-433,-436,-433,-437,-435,-436,-437,-438,-438,-442,-440,-435,-430,-430,-431,-434,-440,-439,-436,-436,-441,-445,-443,-446,-450,-436,-439,-422,-419,-419,-419,-431,-441,-445,-452,-450,-438,-431,-451,-425,-244,-38,-26,-258,-538,-520,-453,-428,-427,-420,-421,-423,-421,-421,-419,-413,-405,-393,-380,-375,-365,-353,-336,-315,-288,-257,-238,-215,-213,-213,-215,-231,-233,-251,-288,-318,-357,-384,-403,-413,-422,-434,-440,-442,-450,-451
2019-05-14,14:27:49.420,-450,-446,-445,-426,-431,-421,-423,-420,-414,-421,-413,-427,-430,-424,-438,-444,-449,-452,-450,-451,-449,-452,-454,-444,-447,-431,-427,-430,-429,-429,-439,-441,-438,-427,-416,-416,-426,-387,-223,-96,-117,-314,-541,-531,-482,-430,-407,-403,-401,-402,-392,-385,-380,-368,-360,-352,-344,-338,-331,-326,-317,-302,-285,-262,-239,-224,-209,-201,-196,-193,-200,-220,-251,-280,-300,-324,-338,-352,-362,-369,-361,-358,-359,-356,-354,-353,-348,-344,-344,-346,-344,-344,-348,-344,-353,-359,-364,-370,-368,-369,-365,-367,-373,-375,-380,-394,-416,-412,-419,-442,-441,-477,-514,-558,-589,-597,-587,-577,-556,-531,-505,-482,-347,-129,-30,-123,-380,-449
2019-05-14,14:27:50.448,-390,-346,-335,-334,-326,-320,-316,-320,-330,-341,-348,-349,-349,-352,-347,-331,-327,-329,-321,-309,-290,-277,-263,-257,-264,-266,-278,-290,-323,-359,-400,-434,-463,-487,-515,-518,-524,-529,-528,-543,-549,-547,-544,-543,-538,-547,-540,-537,-552,-552,-546,-542,-547,-561,-570,-574,-579,-571,-567,-572,-562,-561,-550,-542,-524,-497,-505,-505,-520,-532,-539,-536,-532,-533,-538,-539,-550,-467,-264,-115,-190,-455,-594,-556,-522,-516,-512,-510,-513,-510,-508,-508,-508,-509,-514,-514,-503,-492,-485,-474,-454,-439,-421,-402,-385,-363,-356,-354,-353,-354,-374,-397,-422,-454,-495,-509,-525,-540,-557,-544,-543,-545,-535,-536,-542,-534,-530,-525
2019-05-14,14:27:51.476,-516,-515,-515,-525,-525,-524,-523,-521,-516,-520,-517,-511,-515,-524,-521,-516,-522,-516,-502,-505,-481,-493,-500,-519,-536,-546,-555,-560,-556,-562,-571,-592,-550,-359,-176,-171,-416,-622,-605,-555,-527,-522,-518,-513,-506,-500,-494,-482,-477,-463,-448,-433,-418,-415,-396,-383,-371,-357,-336,-323,-322,-319,-317,-327,-346,-360,-387,-423,-461,-493,-511,-529,-550,-558,-554,-560,-566,-566,-560,-558,-556,-558,-555,-556,-553,-548,-544,-540,-533,-526,-523,-513,-510,-501,-498,-493,-484,-482,-481,-475,-468,-449,-437,-422,-410,-421,-423,-430,-449,-454,-454,-451,-449,-449,-462,-478,-352,-130,-32,-167,-478,-553,-507,-478,-477,-477,-482,-479
2019-05-14,14:27:52.504,-482,-484,-496,-505,-502,-501,-506,-505,-506,-509,-501,-492,-479,-461,-441,-416,-394,-389,-387,-383,-400,-451,-497,-584,-592,-562,-467,-399,-363,-338,-291,-236,-196,-148,-145,-155,-158,-168,-197,-234,-241,-240,-249,-257,-276,-281,-299,-288,-304,-351,-310,-314,-334,-357,-303,-311,-314,-295,-312,-320,-327,-385,-358,-234,-229,-295,-317,-392,-531,-398,-263,-345,-284,-69,132,72,-235,-434,-397,-358,-346,-326,-331,-326,-384,-324,-284,-304,-335,-338,-300,-267,-248,-247,-239,-227,-213,-204,-209,-180,-156,-136,-148,-138,-129,-139,-154,-180,-236,-261,-255,-284,-299,-299,-307,-300,-297,-293,-292,-279,-289,-284,-285,-292,-300,-299,-309,-302
2019-05-14,14:27:53.532,-294,-297,-284,-283,-280,-278,-282,-291,-299,-299,-309,-303,-307,-318,-306,-291,-295,-272,-282,-285,-299,-314,-327,-325,-325,-327,-321,-328,-349,-257,-7,175,104,-219,-392,-356,-307,-294,-302,-303,-300,-294,-291,-286,-285,-276,-265,-254,-251,-242,-221,-202,-179,-155,-133,-99,-73,-49,-30,-18,-12,-13,-30,-52,-85,-126,-162,-182,-205,-213,-224,-227,-224,-220,-223,-213,-204,-202,-204,-201,-204,-202,-203,-204,-210,-211,-207,-220,-225,-228,-231,-236,-235,-237,-248,-249,-261,-260,-271,-278,-264,-255,-232,-222,-230,-234,-242,-253,-251,-273,-274,-288,-280,-295,-295,-172,18,73,-58,-331,-399,-373,-331,-302,-295,-282,-267,-258
2019-05-14,14:27:54.560,-238,-232,-243,-240,-244,-236,-237,-221,-200,-170,-142,-123,-94,-55,-23,-15,-3,-4,2,-17,-48,-74,-97,-137,-184,-221,-249,-264,-279,-285,-314,-300,-277,-286,-278,-286,-282,-263,-263,-253,-242,-235,-260,-241,-251,-262,-245,-240,-237,-238,-244,-254,-262,-272,-278,-277,-267,-261,-231,-216,-219,-227,-245,-238,-244,-260,-281,-286,-303,-329,-343,-222,-43,-3,-157,-417,-446,-393,-344,-332,-323,-314,-309,-299,-293,-280,-285,-284,-274,-263,-262,-252,-244,-240,-227,-199,-175,-158,-131,-114,-92,-87,-80,-80,-100,-130,-151,-189,-226,-248,-272,-282,-299,-303,-304,-318,-329,-337,-348,-364,-367,-361,-361,-350,-335,-324,-318,-323
2019-05-14,14:27:55.588,-322,-327,-344,-359,-361,-359,-360,-363,-372,-369,-373,-370,-365,-344,-336,-319,-312,-318,-309,-306,-309,-306,-302,-300,-301,-307,-323,-306,-176,-28,-11,-124,-362,-388,-314,-247,-224,-206,-185,-167,-161,-142,-137,-142,-149,-148,-146,-134,-128,-125,-111,-82,-59,-27,16,44,76,108,126,128,128,107,61,20,-17,-54,-85,-97,-113,-134,-135,-128,-121,-119,-125,-128,-126,-130,-136,-135,-140,-143,-142,-141,-142,-139,-135,-135,-138,-143,-142,-135,-132,-124,-126,-120,-123,-133,-120,-116,-104,-93,-109,-110,-122,-137,-135,-125,-131,-123,-116,-133,-140,-12,199,278,154,-150,-226,-170,-109,-98,-91,-86,-85,-75,-78,-77
2019-05-14,14:27:56.616,-66,-61,-52,-44,-32,-31,-31,-22,-4,21,41,71,102,128,152,164,169,166,145,123,90,56,27,-1,-24,-37,-49,-42,-44,-40,-41,-42,-34,-34,-30,-29,-26,-26,-28,-29,-31,-31,-29,-28,-24,-28,-27,-30,-31,-29,-33,-38,-35,-34,-33,-36,-26,-14,-5,27,21,25,23,4,0,12,26,28,34,42,41,168,368,455,353,75,-19,36,101,134,146,156,162,175,174,179,186,184,193,199,205,211,226,236,246,273,305,331,361,384,399,409,418,415,410,392,364,335,306,289,280,268,266,264,263,274,282,292,299,304,316,323,331,326,329,332,337,339
2019-05-14,14:27:57.644,332,335,336,338,336,342,344,346,347,346,345,348,344,342,365,369,407,401,396,391,376,365,362,350,343,340,346,325,384,590,772,735,444,204,240,315,340,335,343,346,351,349,349,348,351,362,371,378,385,397,410,429,455,479,506,535,558,567,577,578,568,560,546,513,468,429,403,381,369,362,357,350,349,354,360,364,366,361,366,369,374,378,384,388,391,397,402,398,399,396,399,397,398,400,398,403,406,403,397,411,425,443,468,455,445,432,419,411,405,402,403,402,391,384,509,707,770,647,350,271,322,377,399,397,399,398,401,401
2019-05-14,14:27:58.672,401,406,414,423,431,440,450,456,472,488,511,532,552,579,593,601,598,595,592,577,543,512,480,448,422,399,383,365,356,345,338,336,343,343,349,353,353,352,356,358,359,357,354,357,358,355,347,345,339,333,330,322,325,335,338,361,366,355,351,339,323,312,311,310,312,321,319,330,452,615,643,521,261,224,272,328,348,358,362,360,365,371,370,368,376,376,379,386,390,402,423,438,457,483,505,528,542,552,565,565,558,541,512,478,447,417,396,383,378,369,367,371,370,372,370,371,369,369,369,368,364,357,351,350,353,353,348,350
2019-05-14,14:27:59.700,344,343,341,337,335,333,320,328,342,346,367,349,348,343,331,318,315,315,312,315,313,302,392,579,688,612,354,206,256,312,328,327,331,332,335,336,345,339,342,350,358,364,374,381,389,397,418,441,464,492,511,515,522,521,511,494,469,428,393,363,336,312,301,291,285,278,282,284,282,287,284,285,284,284,278,273,268,268,263,262,260,263,268,270,264,258,254,252,250,253,269,267,287,287,271,266,255,240,237,236,237,237,237,225,232,399,627,668,469,150,126,196,231,235,233,234,236,237,231,236,239,246,249,252,253,261,269,277
2019-05-14,14:28:00.728,294,317,340,365,391,410,422,416,408,395,368,336,296,265,229,209,195,179,181,172,169,171,170,178,181,179,180,181,179,179,174,175,176,173,174,177,171,173,169,167,173,169,170,182,179,202,199,187,180,169,152,151,153,152,145,143,129,157,310,464,445,266,13,30,85,128,142,141,148,152,154,152,156,155,157,158,160,163,179,182,192,204,219,236,260,280,294,299,307,313,302,281,246,208,167,141,124,111,105,99,97,95,97,100,102,110,112,114,116,110,111,112,115,119,115,114,116,110,108,106,98,97,114,121,140,148,146,151
2019-05-14,14:28:01.756,152,137,129,129,125,122,127,124,119,191,359,470,411,190,27,69,126,155,158,158,162,165,163,170,175,187,195,205,214,222,229,238,248,266,289,311,327,349,364,369,373,369,351,325,293,256,229,205,184,172,168,161,152,145,143,146,148,148,145,143,152,156,158,155,158,160,155,158,155,149,147,145,141,141,144,142,139,153,161,179,189,174,178,169,149,145,142,136,141,140,131,127,253,464,538,408,111,29,90,135,142,138,136,137,141,142,140,142,143,150,154,162,163,165,173,181,201,223,249,272,293,303,298,298,289,267,223,178
2019-05-14,14:28:02.784,133,97,69,49,41,29,24,21,13,15,22,21,20,19,20,18,22,15,5,9,3,-3,-2,1,2,-6,-9,-14,-17,-26,-25,-26,-29,-29,-36,-45,-30,-33,-13,-11,-27,-35,-50,-69,-80,-86,-91,-96,-104,-116,-104,48,264,292,123,-185,-228,-165,-121,-115,-117,-113,-109,-102,-102,-110,-106,-96,-96,-99,-97,-88,-79,-63,-47,-30,-6,16,28,49,57,53,52,45,22,-20,-64,-100,-135,-167,-181,-189,-195,-198,-195,-197,-199,-200,-195,-193,-190,-181,-182,-181,-187,-184,-182,-184,-183,-183,-190,-191,-189,-187,-182,-183,-185,-186,-194,-192,-192,-197,-187,-177,-161,-152,-161,-157
2019-05-14,14:28:03.812,-157,-167,-167,-168,-166,-164,-160,-166,-160,-34,155,215,98,-182,-262,-209,-159,-145,-145,-138,-132,-124,-119,-116,-115,-110,-102,-96,-86,-85,-68,-57,-42,-26,-6,22,50,70,86,91,95,96,85,60,22,-15,-52,-72,-86,-95,-103,-112,-114,-119,-121,-119,-117,-115,-113,-108,-109,-107,-101,-95,-93,-92,-89,-95,-91,-92,-91,-93,-96,-97,-97,-100,-99,-100,-99,-93,-101,-101,-102,-97,-91,-89,-63,-72,-74,-78,-100,-115,-114,-119,-121,-122,-130,-147,-87,81,222,173,-65,-246,-190,-130,-120,-119,-119,-120,-119,-117,-105,-99,-99,-92,-86,-79,-64,-62,-50,-44,-26,8,30,60,87,104
2019-05-14,14:28:04.840,129,140,133,119,117,82,31,-12,-35,-70,-81,-88,-91,-93,-97,-102,-104,-93,-99,-100,-95,-99,-94,-87,-84,-78,-72,-67,-73,-62,-62,-69,-62,-63,-61,-66,-79,-79,-85,-89,-89,-93,-85,-98,-106,-94,-92,-93,-70,-77,-85,-91,-94,-113,-117,-122,-110,-111,-118,-172,-91,259,587,536,46,-295,-251,-183,-137,-127,-126,-121,-113,-109,-107,-112,-111,-101,-88,-80,-68,-55,-34,-23,-5,24,54,76,118,139,149,159,148,142,113,73,32,-13,-55,-79,-101,-118,-126,-120,-119,-124,-126,-111,-103,-99,-109,-105,-102,-102,-100,-106,-108,-108,-104,-106,-109,-108,-105,-109,-113,-113,-115,-107
2019-05-14,14:28:05.868,-111,-97,-87,-86,-80,-76,-64,-40,-51,-49,-43,-59,-71,-72,-73,-87,-96,-110,-121,59,306,341,126,-269,-328,-262,-168,-131,-126,-121,-116,-108,-97,-103,-97,-100,-95,-72,-58,-47,-45,-20,-5,25,51,80,99,111,130,140,148,139,120,82,49,2,-24,-53,-69,-68,-75,-71,-87,-78,-79,-69,-61,-86,-62,-45,-41,-55,-38,-38,-49,-42,-43,-44,-53,-54,-59,-42,-54,-43,-35,-33,-32,-45,-46,-26,-21,-40,-23,-22,26,19,15,10,10,5,-8,-10,4,6,1,-52,13,442,921,893,286,-172,-141,-83,-29,-38,-39,-43,-35,-26,-21,-13,-1,8,18,28,37,59
2019-05-14,14:28:06.896,67,88,114,140,168,206,231,257,271,288,277,270,239,196,143,105,60,39,35,23,11,16,10,5,4,12,14,16,24,30,35,24,33,35,38,35,44,35,41,29,35,31,32,19,30,23,14,47,56,92,92,70,62,46,25,17,15,15,17,20,-17,-10,352,841,924,416,-138,-118,-44,20,37,40,53,61,67,78,79,84,101,109,121,138,148,160,171,200,219,247,287,320,345,361,366,370,358,327,288,243,189,156,120,83,72,63,55,59,59,57,66,80,90,104,105,105,99,89,94,100,95,93,88,93,91,89,82,80,86,90
2019-05-14,14:28:07.924,89,110,115,145,150,132,122,115,88,81,73,78,84,85,72,20,142,591,1007,912,264,-95,-18,52,114,122,122,129,133,134,140,159,161,165,188,204,220,241,257,278,299,338,372,408,450,476,486,490,475,457,422,380,325,275,233,200,177,172,161,160,155,156,149,146,147,152,155,156,153,150,146,145,139,129,129,129,125,123,114,108,97,92,91,97,99,117,137,128,114,102,68,51,37,33,36,37,33,9,3,211,514,599,354,-93,-162,-93,-19,4,4,12,12,12,11,15,25,40,53,64,70,82,99,121,139,158,190,220,246,269
2019-05-14,14:28:08.952,290,302,297,291,271,235,185,134,88,59,44,44,33,29,32,35,41,39,39,36,44,51,54,55,50,47,48,48,47,54,60,58,65,68,62,63,66,56,49,64,62,93,97,86,79,62,30,13,8,11,7,0,-8,-35,68,348,563,458,55,-184,-137,-68,-39,-36,-37,-32,-17,-14,-12,-14,-4,4,16,31,38,49,55,82,99,126,161,191,216,231,250,246,243,224,194,156,103,62,30,5,-22,-37,-38,-36,-33,-31,-26,-21,-20,-25,-24,-8,0,5,9,17,15,15,14,14,17,24,17,13,9,8,7,7,6,4,20,18,53,57
2019-05-14,14:28:09.980,45,34,25,8,-1,-7,-13,-11,-15,-36,-36,181,506,584,328,-90,-134,-72,-25,-19,-22,-25,-17,-12,-18,-13,-13,-14,-5,6,14,20,35,48,60,94,111,144,175,201,219,226,227,226,199,157,114,67,25,-1,-25,-39,-46,-53,-57,-53,-50,-49,-45,-40,-36,-30,-25,-27,-29,-25,-19,-15,-16,-10,-11,-16,-25,-20,-20,-18,-11,-4,0,2,-6,-10,8,18,35,45,31,32,24,10,11,14,16,10,13,2,6,163,384,448,291,-48,-113,-44,26,48,53,56,58,62,67,71,75,80,84,90,98,110,116,131,150,169,198,227,251,274,295,299
2019-05-14,14:28:11.008,297,295,272,242,205,159,123,93,72,65,64,52,41,39,38,44,45,42,43,40,43,45,47,44,43,41,35,33,31,24,26,24,18,10,13,9,5,7,7,7,-1,-6,-4,16,22,43,35,30,22,8,-12,-16,-20,-16,-12,-24,-39,26,217,378,327,88,-106,-56,3,19,12,14,13,8,12,17,17,17,24,36,40,49,59,68,79,96,111,127,154,174,193,204,210,210,201,181,144,100,67,40,16,0,0,3,-1,0,2,-4,-3,5,7,7,4,7,11,11,12,17,27,31,33,32,34,38,38,38,35,37,35,29,25,22
2019-05-14,14:28:12.036,22,30,36,40,37,42,68,71,92,82,79,68,53,41,35,34,28,32,26,8,56,238,423,400,163,-82,-50,27,49,50,49,45,39,41,44,45,57,71,77,85,85,91,97,109,119,135,160,193,214,231,251,257,257,250,229,192,158,119,83,55,41,28,5,-12,-21,-18,-13,-33,-21,-11,-16,-24,-24,-6,-8,-5,-2,-7,-5,-8,0,-10,-13,-16,-23,-33,-41,-41,-38,-39,-49,-42,-43,-40,-37,-30,-24,-17,-24,-6,1,24,35,37,41,25,19,7,12,2,7,13,-9,-8,131,360,450,308,6,-62,-31,28,63,57,71,88,95,107
2019-05-14,14:28:13.064,119,110,124,130,146,154,162,163,170,183,176,191,217,243,263,274,291,296,281,291,281,257,227,192,172,145,135,127,137,142,140,136,142,157,148,154,159,164,166,172,177,178,176,174,175,176,160,157,150,159,167,150,156,165,167,161,158,158,168,165,175,178,169,169,182,203,204,223,226,219,199,199,180,176,176,177,172,158,141,204,437,649,621,333,116,124,163,185,186,175,180,180,191,186,183,188,193,201,206,213,233,235,248,266,275,300,338,357,387,412,416,423,414,406,369,337,305,271,247,233,214,196,194,195,185,177,187,182
2019-05-14,14:28:14.092,188,186,194,202,199,201,205,216,206,208,199,202,197,193,194,192,184,195,200,201,203,197,206,218,219,218,225,230,224,224,245,250,271,264,268,269,265,252,253,248,247,254,258,229,263,496,750,778,508,233,235,265,307,302,296,300,325,324,320,336,349,352,362,378,389,391,409,427,442,460,485,516,548,560,577,580,580,587,580,544,509,472,438,408,388,379,377,375,367,366,363,361,353,347,355,356,358,357,359,356,348,355,359,355,346,344,342,339,332,331,330,332,326,321,324,320,319,318,326,330,318,327,334,328,342,340,358,362
2019-05-14,14:28:15.120,340,339,338,324,329,328,335,335,334,311,313,509,804,894,660,322,284,314,350,348,356,360,363,360,358,367,366,363,375,368,377,388,395,404,415,431,450,471,497,515,529,525,521,518,497,471,441,401,358,333,317,294,282,276,273,259,265,268,267,269,271,267,267,271,270,268,265,267,260,256,260,265,263,268,270,279,284,275,275,275,267,262,260,260,254,257,259,257,246,246,261,270,289,280,281,271,253,242,240,229,229,236,220,197,307,594,765,652,281,139,163,202,222,220,218,221,223,229,244,246,237,238,245,256,259,267,279,293
2019-05-14,14:28:16.148,313,328,338,363,384,413,414,416,417,405,382,359,322,280,247,222,202,188,182,181,176,175,178,176,184,186,185,195,197,200,208,208,202,205,196,201,204,196,200,215,214,215,204,212,209,207,208,209,194,206,212,214,212,203,224,225,238,240,233,224,212,194,185,176,177,188,193,174,163,370,650,746,510,154,120,168,208,215,216,213,209,213,214,206,213,217,217,226,237,245,255,271,280,297,325,339,371,396,406,419,428,420,406,385,351,309,273,249,218,202,196,200,201,193,189,180,186,184,174,173,170,173,172,161,166,155,153,145
2019-05-14,14:28:17.176,134,118,95,69,50,28,17,12,15,5,-14,-33,-43,-54,-37,-27,-20,-1,14,21,44,43,26,23,15,13,29,43,50,61,62,25,64,299,543,552,259,-20,-15,21,40,27,6,-5,-1,-4,-3,5,21,38,43,72,88,94,95,112,134,162,196,223,259,293,314,324,334,335,313,277,232,190,150,124,100,93,80,73,65,63,69,68,64,57,58,54,40,33,36,34,25,23,15,5,-7,-17,-22,-25,-33,-36,-44,-49,-47,-55,-57,-67,-51,-51,-49,-27,-35,-34,-55,-67,-80,-92,-96,-89,-92,-102,-110,-31,152,246,172,-104,-232,-202,-165,-146
2019-05-14,14:28:18.204,-150,-154,-157,-155,-153,-154,-150,-154,-159,-146,-136,-129,-120,-120,-112,-103,-90,-79,-67,-47,-37,-31,-34,-45,-55,-86,-119,-153,-191,-215,-235,-253,-266,-273,-279,-281,-280,-279,-276,-271,-279,-281,-277,-279,-280,-282,-278,-281,-281,-292,-294,-297,-304,-305,-312,-312,-316,-321,-330,-335,-328,-331,-320,-307,-322,-321,-336,-346,-351,-360,-358,-357,-362,-363,-365,-274,-117,-64,-153,-378,-452,-413,-377,-364,-361,-359,-361,-358,-355,-358,-356,-351,-351,-350,-340,-335,-328,-329,-309,-294,-277,-256,-228,-207,-198,-190,-189,-186,-196,-219,-244,-274,-303,-322,-332,-347,-353,-346,-346,-355,-356,-355,-366,-363,-367,-365,-359,-361
2019-05-14,14:28:19.232,-354,-355,-351,-354,-357,-361,-365,-360,-370,-380,-377,-379,-385,-382,-379,-385,-363,-360,-378,-377,-386,-403,-399,-400,-408,-410,-408,-427,-423,-313,-147,-102,-204,-449,-503,-472,-436,-418,-416,-416,-419,-415,-407,-402,-400,-402,-381,-376,-369,-360,-353,-347,-341,-324,-305,-290,-264,-245,-241,-232,-225,-222,-228,-249,-284,-319,-348,-378,-397,-405,-410,-414,-419,-423,-426,-423,-418,-427,-412,-399,-393,-394,-392,-390,-391,-391,-388,-389,-389,-396,-394,-394,-395,-388,-388,-400,-390,-374,-373,-359,-376,-378,-387,-402,-407,-418,-420,-422,-420,-425,-437,-371,-220,-119,-170,-369,-488,-443,-410,-407,-408,-408,-410,-399,-390,-390,-390,-387
2019-05-14,14:28:20.260,-385,-382,-375,-375,-365,-354,-340,-316,-297,-273,-250,-222,-202,-193,-185,-187,-198,-220,-253,-285,-327,-349,-365,-372,-379,-380,-383,-391,-385,-382,-390,-391,-383,-376,-373,-365,-359,-352,-353,-356,-358,-352,-349,-346,-349,-346,-344,-345,-352,-357,-363,-368,-352,-351,-339,-335,-343,-349,-358,-380,-388,-385,-383,-380,-384,-393,-393,-288,-113,-66,-190,-425,-455,-398,-367,-361,-359,-359,-358,-356,-347,-340,-321,-313,-305,-305,-289,-279,-270,-260,-244,-233,-212,-188,-172,-155,-142,-136,-135,-126,-139,-167,-202,-232,-257,-282,-298,-315,-321,-323,-324,-324,-329,-327,-323,-326,-327,-325,-321,-318,-312,-315,-310,-313,-318,-308,-294,-294
2019-05-14,14:28:21.288,-291,-289,-288,-287,-285,-284,-287,-291,-289,-288,-295,-303,-295,-281,-265,-247,-264,-268,-274,-290,-297,-294,-289,-288,-286,-288,-305,-216,-21,89,11,-249,-369,-319,-280,-277,-275,-272,-269,-268,-263,-259,-258,-261,-257,-250,-244,-232,-222,-212,-198,-186,-170,-147,-124,-105,-89,-80,-73,-71,-81,-102,-133,-173,-207,-226,-248,-266,-277,-279,-274,-272,-271,-273,-272,-261,-260,-263,-260,-260,-258,-259,-259,-258,-256,-255,-259,-252,-255,-259,-260,-261,-266,-268,-267,-267,-264,-265,-263,-263,-265,-268,-272,-279,-276,-261,-256,-227,-230,-237,-246,-259,-274,-281,-284,-282,-288,-291,-307,-277,-96,94,94,-119,-353,-337,-281,-252
2019-05-14,14:28:22.316,-250,-244,-247,-242,-239,-234,-229,-216,-209,-204,-197,-186,-178,-170,-163,-148,-128,-109,-88,-72,-48,-35,-31,-35,-40,-55,-81,-116,-151,-183,-213,-228,-238,-245,-251,-254,-255,-254,-257,-251,-247,-252,-251,-246,-245,-246,-239,-237,-236,-235,-235,-234,-239,-244,-247,-249,-244,-245,-249,-250,-253,-248,-244,-242,-239,-240,-236,-235,-242,-244,-243,-228,-228,-200,-207,-210,-214,-226,-238,-237,-235,-230,-224,-224,-250,-202,12,218,200,-75,-303,-270,-221,-196,-195,-195,-192,-191,-185,-181,-176,-173,-170,-159,-158,-148,-143,-135,-121,-103,-85,-63,-41,-19,-5,9,14,7,-2,-12,-44,-83,-124,-161,-189,-210,-220,-227
2019-05-14,14:28:23.344,-234,-240,-247,-245,-242,-240,-241,-246,-244,-239,-236,-237,-233,-232,-236,-234,-234,-240,-241,-242,-248,-247,-247,-250,-254,-252,-258,-270,-273,-267,-265,-265,-263,-255,-260,-260,-248,-243,-211,-219,-226,-231,-244,-257,-256,-258,-253,-250,-252,-271,-199,-7,116,60,-207,-380,-338,-282,-249,-244,-242,-236,-230,-219,-215,-208,-204,-198,-196,-192,-182,-172,-164,-153,-135,-114,-87,-62,-34,-14,-3,0,0,-3,-16,-46,-81,-113,-134,-150,-161,-171,-177,-180,-181,-180,-185,-187,-186,-178,-167,-165,-174,-167,-161,-156,-157,-152,-151,-150,-152,-153,-152,-149,-147,-150,-148,-150,-147,-145,-142,-139,-136,-136,-138,-139,-132,-122
2019-05-14,14:28:24.372,-102,-82,-92,-94,-102,-120,-127,-126,-119,-122,-121,-120,-126,-14,184,257,143,-133,-208,-168,-121,-97,-99,-101,-96,-98,-104,-100,-97,-90,-75,-68,-61,-60,-49,-34,-14,3,25,50,76,102,121,126,134,132,121,107,70,27,-11,-45,-66,-85,-99,-101,-99,-102,-103,-104,-102,-95,-94,-87,-78,-75,-79,-77,-75,-75,-77,-79,-73,-80,-78,-76,-79,-81,-84,-85,-90,-92,-93,-92,-86,-88,-89,-88,-84,-79,-81,-72,-68,-54,-49,-57,-63,-69,-86,-91,-96,-95,-92,-90,-112,-104,47,242,272,100,-177,-187,-132,-93,-85,-91,-94,-91,-85,-80,-80,-80,-73,-66,-55,-47,-36,-28
2019-05-14,14:28:25.400,-15,2,19,43,65,88,108,119,123,126,126,125,103,66,24,-13,-39,-57,-68,-76,-82,-80,-86,-79,-78,-70,-67,-63,-63,-63,-66,-69,-69,-73,-75,-76,-79,-89,-95,-92,-96,-99,-102,-98,-97,-104,-104,-113,-109,-110,-108,-105,-107,-109,-99,-103,-98,-88,-87,-69,-74,-71,-77,-93,-109,-106,-108,-105,-103,-103,-113,-31,177,319,250,-28,-184,-145,-98,-89,-82,-81,-82,-80,-85,-83,-80,-82,-70,-62,-54,-48,-43,-37,-19,0,21,42,64,84,107,121,124,126,122,111,89,47,6,-31,-59,-81,-92,-95,-98,-99,-96,-95,-98,-101,-97,-93,-87,-84,-86,-93,-92,-90
2019-05-14,14:28:26.428,-91,-94,-92,-97,-100,-96,-97,-99,-119,-137,-155,-173,-179,-187,-190,-192,-189,-193,-191,-192,-191,-193,-181,-186,-175,-171,-182,-185,-193,-213,-220,-228,-225,-217,-223,-234,-222,-64,147,192,4,-279,-294,-238,-215,-214,-216,-221,-213,-203,-202,-198,-194,-189,-180,-170,-156,-150,-140,-131,-121,-111,-84,-58,-36,-8,10,15,15,14,11,-23,-55,-92,-130,-163,-184,-197,-205,-211,-215,-218,-219,-217,-214,-217,-212,-211,-210,-207,-203,-200,-195,-192,-193,-190,-189,-192,-190,-188,-191,-193,-197,-198,-201,-199,-197,-196,-197,-197,-198,-197,-194,-195,-198,-195,-173,-174,-156,-158,-166,-176,-188,-202,-207,-204,-201,-197
2019-05-14,14:28:27.456,-196,-212,-174,19,235,248,-14,-270,-249,-196,-180,-179,-176,-188,-185,-182,-179,-172,-171,-167,-164,-158,-156,-145,-132,-127,-111,-98,-66,-41,-22,3,11,20,13,5,-10,-40,-70,-104,-127,-168,-188,-200,-211,-216,-218,-212,-212,-211,-214,-211,-205,-195,-188,-178,-181,-187,-184,-187,-198,-188,-213,-225,-223,-227,-229,-235,-236,-239,-244,-243,-251,-251,-254,-259,-265,-267,-259,-267,-244,-255,-264,-272,-288,-299,-314,-322,-325,-320,-321,-328,-259,-97,-9,-64,-289,-431,-398,-355,-326,-319,-317,-317,-316,-308,-308,-299,-300,-297,-289,-278,-266,-257,-242,-237,-232,-217,-196,-173,-175,-133,-128,-129,-123,-118,-139,-167
2019-05-14,14:28:28.484,-198,-225,-253,-274,-290,-301,-305,-303,-303,-303,-298,-298,-303,-300,-296,-297,-290,-287,-279,-280,-277,-281,-285,-284,-288,-291,-291,-292,-295,-296,-304,-311,-321,-318,-316,-319,-315,-314,-299,-299,-276,-280,-295,-291,-306,-319,-320,-318,-312,-312,-309,-320,-298,-177,-41,-22,-175,-355,-332,-283,-271,-275,-274,-263,-259,-252,-246,-242,-236,-238,-228,-220,-213,-197,-182,-177,-164,-146,-127,-96,-65,-39,-14,-3,-3,-8,-29,-53,-86,-128,-156,-180,-204,-209,-217,-228,-231,-231,-226,-223,-207,-193,-194,-193,-203,-215,-215,-204,-203,-202,-193,-194,-195,-198,-204,-212,-215,-216,-218,-221,-218,-223,-230,-236,-235,-236,-214,-203
2019-05-14,14:28:29.512,-184,-195,-195,-207,-220,-238,-233,-235,-232,-228,-227,-256,-213,-9,190,160,-121,-309,-281,-235,-216,-225,-220,-213,-210,-207,-218,-217,-215,-218,-220,-192,-192,-187,-183,-171,-149,-144,-131,-110,-85,-82,-79,-88,-102,-110,-123,-125,-151,-187,-217,-221,-221,-227,-205,-204,-215,-223,-223,-223,-218,-217,-207,-209,-218,-224,-214,-208,-214,-204,-216,-218,-229,-220,-222,-240,-240,-245,-268,-267,-274,-284,-283,-287,-283,-289,-270,-258,-246,-267,-268,-269,-287,-294,-300,-322,-328,-354,-358,-390,-320,-89,92,-1,-312,-438,-412,-350,-354,-348,-343,-338,-327,-326,-320,-309,-317,-299,-309,-308,-293,-305,-284,-281,-270,-248,-231,-216
2019-05-14,14:28:30.540,-204,-186,-175,-190,-192,-203,-235,-277,-299,-349,-388,-403,-423,-436,-437,-443,-454,-460,-472,-475,-470,-467,-461,-468,-472,-484,-500,-493,-504,-509,-513,-523,-535,-538,-534,-550,-546,-565,-567,-585,-598,-599,-607,-589,-575,-550,-524,-530,-533,-538,-564,-573,-586,-576,-574,-565,-571,-603,-551,-354,-186,-236,-518,-742,-703,-638,-591,-575,-565,-551,-528,-530,-516,-515,-512,-505,-505,-504,-474,-460,-441,-436,-414,-394,-391,-358,-338,-325,-316,-311,-318,-330,-351,-379,-413,-453,-491,-538,-564,-580,-598,-603,-601,-609,-621,-629,-630,-634,-645,-649,-647,-646,-640,-626,-618,-618,-620,-621,-627,-631,-632,-644,-660,-666,-659,-658,-654,-659
2019-05-14,14:28:31.568,-628,-613,-647,-662,-679,-714,-732,-748,-743,-743,-747,-750,-774,-720,-513,-337,-391,-666,-865,-833,-781,-763,-770,-774,-767,-764,-765,-756,-754,-751,-750,-746,-736,-725,-716,-708,-681,-687,-665,-637,-617,-593,-575,-567,-572,-581,-584,-590,-625,-653,-687,-716,-741,-752,-764,-759,-774,-762,-772,-777,-759,-756,-757,-754,-774,-767,-774,-783,-784,-790,-793,-801,-817,-802,-795,-789,-806,-785,-779,-775,-759,-745,-777,-772,-774,-808,-802,-804,-813,-820,-823,-836,-836,-807,-714,-578,-583,-715,-918,-919,-873,-824,-807,-812,-822,-797,-787,-776,-771,-758,-756,-746,-747,-731,-724,-720,-723,-705,-698,-693,-663,-665,-650,-645,-634,-636,-636,-657
2019-05-14,14:28:32.596,-662,-695,-735,-771,-795,-820,-844,-847,-850,-871,-870,-890,-889,-876,-886,-899,-896,-900,-907,-902,-906,-900,-920,-918,-919,-937,-932,-926,-915,-929,-925,-897,-913,-891,-882,-903,-933,-928,-953,-962,-965,-976,-984,-995,-998,-1010,-920,-760,-731,-859,-1088,-1122,-1064,-1046,-1053,-1050,-1055,-1057,-1064,-1070,-1067,-1077,-1088,-1080,-1081,-1072,-1070,-1059,-1057,-1050,-1044,-1046,-1024,-1006,-990,-984,-991,-1001,-1019,-1025,-1050,-1089,-1132,-1160,-1186,-1221,-1233,-1253,-1252,-1251,-1239,-1245,-1234,-1225,-1230,-1235,-1229,-1244,-1251,-1257,-1258,-1245,-1239,-1243,-1248,-1259,-1260,-1271,-1287,-1283,-1286,-1273,-1255,-1257,-1257,-1251,-1273,-1285,-1286,-1294,-1296,-1314,-1316,-1320,-1321,-1242,-1052,-977
2019-05-14,14:28:33.624,-1115,-1390,-1474,-1418,-1382,-1369,-1361,-1367,-1364,-1347,-1338,-1329,-1314,-1305,-1281,-1278,-1271,-1255,-1242,-1235,-1230,-1220,-1199,-1180,-1173,-1151,-1133,-1138,-1130,-1137,-1150,-1177,-1200,-1225,-1251,-1274,-1297,-1305,-1314,-1309,-1306,-1302,-1296,-1287,-1294,-1310,-1317,-1320,-1326,-1330,-1331,-1342,-1338,-1340,-1357,-1354,-1356,-1358,-1380,-1376,-1370,-1369,-1363,-1350,-1376,-1394,-1417,-1447,-1460,-1466,-1469,-1476,-1482,-1485,-1498,-1443,-1262,-1064,-1089,-1301,-1471,-1419,-1357,-1337,-1338,-1355,-1334,-1350,-1356,-1346,-1338,-1361,-1344,-1343,-1348,-1367,-1347,-1342,-1338,-1325,-1320,-1303,-1277,-1264,-1249,-1226,-1218,-1224,-1232,-1257,-1278,-1318,-1355,-1385,-1413,-1433,-1451,-1457,-1469,-1467,-1468,-1482,-1481,-1488,-1487,-1499,-1492,-1506
2019-05-14,14:28:34.652,-1511,-1517,-1532,-1551,-1546,-1574,-1562,-1555,-1566,-1556,-1549,-1540,-1501,-1497,-1492,-1494,-1522,-1528,-1531,-1529,-1530,-1520,-1515,-1524,-1512,-1416,-1219,-1094,-1197,-1473,-1560,-1484,-1437,-1409,-1399,-1392,-1372,-1374,-1346,-1339,-1331,-1315,-1315,-1324,-1325,-1283,-1287,-1276,-1244,-1228,-1214,-1206,-1171,-1132,-1091,-1067,-1057,-1071,-1099,-1111,-1132,-1155,-1164,-1204,-1233,-1258,-1288,-1276,-1271,-1271,-1261,-1262,-1256,-1258,-1246,-1256,-1259,-1238,-1230,-1242,-1232,-1233,-1236,-1234,-1234,-1229,-1226,-1204,-1203,-1187,-1170,-1179,-1202,-1221,-1236,-1251,-1254,-1262,-1259,-1253,-1264,-1255,-1165,-1024,-976,-1066,-1283,-1344,-1295,-1255,-1232,-1239,-1237,-1234,-1217,-1213,-1220,-1211,-1195,-1217,-1185,-1165,-1163,-1148,-1130,-1113,-1101,-1063
2019-05-14,14:28:35.680,-1050,-1016,-1005,-1009,-1008,-1010,-1022,-1050,-1039,-1061,-1107,-1119,-1149,-1179,-1211,-1213,-1220,-1227,-1250,-1239,-1245,-1251,-1248,-1251,-1260,-1252,-1256,-1252,-1254,-1258,-1264,-1271,-1269,-1270,-1292,-1305,-1296,-1267,-1264,-1244,-1243,-1242,-1256,-1286,-1291,-1301,-1303,-1307,-1304,-1306,-1315,-1320,-1240,-1110,-1077,-1166,-1355,-1400,-1359,-1326,-1323,-1326,-1327,-1322,-1319,-1318,-1321,-1319,-1323,-1321,-1314,-1312,-1306,-1300,-1289,-1283,-1264,-1253,-1243,-1235,-1223,-1221,-1216,-1225,-1232,-1243,-1264,-1303,-1335,-1355,-1379,-1399,-1403,-1406,-1412,-1420,-1422,-1424,-1432,-1426,-1434,-1419,-1424,-1413,-1411,-1402,-1401,-1388,-1377,-1382,-1380,-1378,-1373,-1374,-1369,-1375,-1354,-1338,-1347,-1359,-1370,-1397,-1410,-1416,-1414,-1421,-1412,-1396
2019-05-14,14:28:36.708,-1396,-1391,-1315,-1196,-1188,-1292,-1478,-1515,-1458,-1417,-1402,-1395,-1382,-1366,-1366,-1361,-1366,-1364,-1361,-1349,-1352,-1342,-1340,-1342,-1324,-1308,-1304,-1284,-1256,-1245,-1221,-1200,-1195,-1194,-1200,-1203,-1226,-1250,-1278,-1316,-1337,-1339,-1358,-1370,-1386,-1391,-1388,-1386,-1385,-1392,-1386,-1397,-1400,-1409,-1411,-1426,-1431,-1436,-1448,-1451,-1478,-1477,-1483,-1491,-1499,-1497,-1494,-1483,-1482,-1474,-1470,-1467,-1479,-1498,-1513,-1508,-1510,-1511,-1499,-1501,-1511,-1467,-1338,-1245,-1312,-1507,-1645,-1607,-1580,-1576,-1585,-1588,-1596,-1599,-1603,-1606,-1595,-1583,-1578,-1559,-1562,-1546,-1550,-1531,-1528,-1505,-1499,-1479,-1446,-1427,-1418,-1404,-1413,-1430,-1453,-1455,-1483,-1514,-1548,-1564,-1587,-1580,-1590,-1585,-1588,-1579,-1581,-1564
2019-05-14,14:28:37.736,-1579,-1587,-1573,-1572,-1569,-1563,-1567,-1552,-1556,-1558,-1548,-1542,-1533,-1544,-1541,-1535,-1532,-1526,-1524,-1497,-1498,-1474,-1466,-1474,-1471,-1497,-1513,-1510,-1520,-1526,-1523,-1519,-1523,-1510,-1428,-1294,-1278,-1378,-1558,-1576,-1521,-1478,-1458,-1456,-1458,-1462,-1461,-1477,-1479,-1490,-1496,-1493,-1501,-1487,-1477,-1451,-1423,-1407,-1394,-1382,-1354,-1338,-1367,-1407,-1414,-1413,-1407,-1416,-1433,-1463,-1506,-1543,-1567,-1584,-1582,-1583,-1572,-1561,-1563,-1555,-1561,-1555,-1556,-1558,-1556,-1555,-1562,-1554,-1555,-1567,-1582,-1591,-1597,-1611,-1608,-1613,-1631,-1645,-1652,-1664,-1683,-1689,-1696,-1694,-1678,-1689,-1692,-1698,-1719,-1735,-1748,-1752,-1750,-1740,-1724,-1710,-1627,-1468,-1395,-1469,-1685,-1765,-1713,-1673,-1666,-1676,-1688,-1696
2019-05-14,14:28:38.764,-1687,-1682,-1680,-1662,-1654,-1652,-1641,-1644,-1641,-1631,-1615,-1603,-1582,-1553,-1512,-1507,-1516,-1517,-1519,-1525,-1533,-1548,-1569,-1589,-1613,-1635,-1646,-1649,-1651,-1655,-1653,-1644,-1631,-1616,-1607,-1607,-1610,-1607,-1599,-1595,-1583,-1580,-1572,-1552,-1551,-1555,-1554,-1545,-1548,-1548,-1555,-1557,-1555,-1551,-1554,-1554,-1548,-1552,-1545,-1523,-1504,-1464,-1465,-1467,-1464,-1478,-1492,-1489,-1482,-1486,-1483,-1485,-1491,-1453,-1315,-1183,-1202,-1371,-1543,-1508,-1436,-1415,-1412,-1409,-1402,-1393,-1378,-1376,-1366,-1353,-1342,-1333,-1323,-1313,-1289,-1268,-1251,-1233,-1218,-1200,-1177,-1171,-1160,-1142,-1150,-1150,-1153,-1159,-1189,-1223,-1261,-1280,-1301,-1309,-1325,-1328,-1339,-1361,-1341,-1356,-1357,-1368,-1370,-1370,-1374,-1373,-1367,-1365
2019-05-14,14:28:39.792,-1371,-1366,-1366,-1367,-1362,-1368,-1378,-1386,-1381,-1382,-1375,-1365,-1369,-1366,-1374,-1381,-1372,-1365,-1354,-1331,-1341,-1331,-1341,-1358,-1364,-1373,-1379,-1395,-1391,-1389,-1362,-1253,-1110,-1083,-1172,-1379,-1400,-1358,-1314,-1308,-1307,-1303,-1293,-1289,-1289,-1281,-1271,-1268,-1258,-1249,-1235,-1225,-1212,-1196,-1187,-1167,-1146,-1121,-1098,-1068,-1044,-1032,-1023,-1013,-1015,-1028,-1046,-1059,-1067,-1079,-1081,-1085,-1080,-1079,-1077,-1067,-1058,-1047,-1040,-1035,-1016,-1015,-1006,-998,-994,-993,-996,-999,-998,-1000,-1003,-1001,-996,-993,-991,-988,-986,-985,-986,-980,-977,-969,-952,-936,-930,-939,-935,-942,-954,-950,-949,-947,-934,-929,-930,-918,-819,-686,-662,-764,-966,-980,-912,-876,-866,-861,-856,-847
2019-05-14,14:28:40.820,-841,-838,-833,-832,-820,-807,-803,-805,-793,-781,-770,-746,-723,-704,-681,-648,-626,-610,-596,-586,-588,-594,-614,-638,-668,-691,-709,-724,-734,-743,-748,-743,-740,-739,-733,-730,-725,-722,-710,-700,-692,-685,-685,-682,-671,-665,-661,-653,-647,-646,-648,-652,-644,-645,-642,-641,-638,-632,-636,-645,-634,-610,-604,-574,-583,-581,-592,-598,-605,-612,-615,-610,-608,-604,-599,-519,-373,-295,-353,-568,-661,-605,-546,-526,-515,-512,-510,-505,-489,-486,-482,-474,-468,-460,-450,-437,-430,-421,-400,-379,-356,-333,-303,-280,-266,-253,-245,-249,-249,-260,-284,-312,-345,-373,-395,-402,-410,-414,-408,-400,-397,-391,-394,-399,-392,-392,-391,-394
2019-05-14,14:28:41.848,-396,-392,-391,-384,-389,-390,-392,-389,-387,-387,-384,-368,-372,-358,-358,-359,-349,-339,-333,-328,-319,-316,-289,-276,-274,-273,-277,-288,-290,-282,-272,-266,-266,-270,-256,-148,-13,-2,-122,-327,-332,-278,-241,-235,-234,-244,-227,-232,-231,-231,-218,-209,-205,-194,-186,-176,-159,-142,-129,-113,-95,-79,-64,-39,-32,-26,-14,-14,-20,-28,-48,-78,-108,-125,-136,-141,-141,-134,-129,-133,-130,-112,-111,-107,-104,-99,-98,-95,-90,-79,-64,-58,-53,-59,-63,-64,-66,-55,-52,-49,-52,-46,-43,-32,-34,-33,-22,-16,7,4,-3,-15,-40,-50,-54,-56,-60,-55,-53,-59,11,155,231,175,-36,-139,-104,-60
2019-05-14,14:28:42.876,-47,-48,-51,-56,-61,-42,-17,3,4,18,31,43,36,36,36,45,71,92,126,155,175,185,188,185,191,188,171,143,100,72,49,35,28,31,32,32,35,38,39,49,60,73,78,85,96,106,113,111,102,101,114,134,160,180,178,171,158,137,124,117,109,111,121,125,139,144,161,180,179,184,176,165,161,153,149,152,155,152,147,252,407,450,350,120,86,149,184,178,171,174,176,185,195,203,205,210,219,228,234,250,258,274,294,310,326,355,372,392,409,419,426,428,421,416,388,352,323,297,285,272,263,254,256,263,266,272,279,278
2019-05-14,14:28:43.904,278,284,290,290,297,295,297,294,291,298,292,293,292,298,301,291,290,296,295,292,292,289,283,278,294,292,310,314,310,300,283,265,263,258,264,268,272,258,272,391,521,519,380,164,181,243,276,286,289,297,295,300,299,313,314,320,332,341,355,365,376,392,401,415,432,453,471,485,503,506,504,502,491,470,441,414,387,363,347,337,323,317,313,312,307,310,309,312,317,327,335,339,344,343,344,350,350,346,345,350,339,343,344,348,346,344,345,351,349,343,354,367,366,391,384,382,376,363,366,368,367,369,379,379,378,441,588,671
2019-05-14,14:28:44.932,623,432,305,342,393,413,413,420,431,434,439,444,454,459,464,480,494,506,515,522,541,559,581,597,613,630,642,660,667,667,662,648,619,589,560,537,520,502,488,482,481,478,476,479,477,477,477,484,493,503,510,512,517,520,523,519,515,506,498,491,488,482,475,473,475,480,481,475,472,457,463,485,480,501,494,492,485,464,452,454,454,458,460,453,443,502,647,749,706,492,364,417,465,477,470,469,470,472,479,478,479,474,478,482,494,502,505,513,518,530,546,560,577,596,616,636,639,641,635,620,594,560,519,494,478,455,443,440
2019-05-14,14:28:45.960,440,429,430,431,428,427,429,432,429,422,424,424,427,426,424,421,415,406,400,404,404,404,402,401,397,394,397,394,389,382,389,408,413,443,434,424,415,389,377,375,374,374,366,363,342,396,544,641,591,367,233,293,348,362,368,367,378,378,371,374,370,375,389,400,407,424,434,440,454,479,489,504,531,549,560,576,576,578,575,564,540,511,486,452,433,420,412,404,396,395,389,387,393,401,401,403,402,396,391,405,407,405,403,402,399,399,396,395,396,403,399,403,412,419,420,422,421,420,431,438,464,466,459,455,446,438,437,433
2019-05-14,14:28:46.988,435,446,440,433,457,597,720,709,559,354,365,418,458,473,472,477,482,484,490,499,510,520,528,532,536,544,547,556,568,583,602,625,653,673,688,696,691,690,679,656,628,592,564,537,518,512,504,493,496,498,498,498,508,510,512,519,522,523,518,517,514,507,504,497,501,505,495,491,491,491,488,490,489,488,487,485,502,508,526,539,529,527,515,490,482,484,479,480,479,470,472,568,694,713,603,402,398,463,488,483,482,484,476,470,485,506,515,517,517,510,504,510,523,535,541,556,563,581,609,634,646,652,657,657,648,634,608,575
2019-05-14,14:28:48.016,551,531,516,508,505,502,508,505,504,501,502,505,504,501,498,502,501,495,495,496,495,492,484,480,479,474,467,473,471,472,479,480,481,485,486,509,515,534,542,539,539,526,517,514,506,504,500,499,485,490,595,723,731,583,389,419,480,501,498,500,495,486,475,470,469,473,477,485,493,505,513,518,533,549,565,586,604,621,638,655,661,657,653,640,619,585,550,530,508,497,488,486,484,490,488,499,497,500,506,509,513,526,538,540,541,538,528,524,518,516,512,502,501,496,500,504,503,508,509,514,514,508,507,517,519,544,541,538
2019-05-14,14:28:49.044,530,510,498,498,502,498,496,489,473,523,674,805,770,548,404,457,523,533,533,533,530,525,526,525,530,538,548,559,566,579,590,598,608,617,627,634,648,669,680,688,684,682,681,676,658,627,600,579,553,542,530,521,516,513,516,523,520,515,512,511,509,515,519,517,514,522,526,527,520,515,515,504,503,499,499,495,506,512,515,526,525,519,526,546,546,575,576,568,556,535,528,531,534,545,553,554,537,577,741,877,828,599,442,497,548,555,555,551,544,543,538,532,528,525,531,531,545,552,560,570,581,596,612,633,656,675,691,702
2019-05-14,14:28:50.072,712,717,715,705,683,657,623,599,576,566,547,541,534,536,536,535,538,531,530,545,543,548,551,543,535,536,531,524,526,521,513,506,503,496,500,504,505,502,504,506,500,507,505,507,534,545,570,575,567,560,542,531,528,536,540,541,532,511,552,742,893,859,602,416,449,513,538,535,545,549,550,557,561,566,561,558,562,575,587,593,595,596,612,643,663,686,704,722,724,728,725,719,704,674,641,610,575,556,537,526,524,520,517,522,522,528,530,528,530,530,523,525,527,529,528,522,525,527,527,535,533,522,521,514,507,506,514,518
2019-05-14,14:28:51.100,515,513,514,507,523,528,538,559,543,528,511,482,480,475,485,483,471,457,447,571,778,865,713,402,336,381,427,437,439,439,443,439,442,446,445,444,450,456,470,481,492,513,524,541,561,585,609,628,646,648,654,647,634,608,577,543,505,477,450,430,435,429,424,423,421,426,422,424,430,429,430,432,429,424,425,422,416,412,408,402,397,390,384,379,372,363,355,348,347,350,349,370,392,380,383,374,359,359,357,354,359,356,351,358,468,629,669,552,296,232,269,323,349,358,356,364,371,374,373,381,389,392,394,403,411,415,426,439
2019-05-14,14:28:52.128,455,475,503,524,549,564,574,576,576,573,558,530,504,480,447,424,413,399,387,387,391,394,399,397,404,409,418,416,422,424,425,419,423,431,436,436,437,436,433,427,426,422,424,425,425,419,430,446,461,474,467,463,445,433,434,429,427,424,418,405,399,485,623,670,570,346,316,382,405,407,405,403,406,409,411,408,408,408,406,411,418,420,427,438,450,460,478,495,521,541,561,569,570,568,558,531,499,467,432,404,387,381,372,371,368,369,368,381,379,381,385,395,403,410,411,409,407,409,406,398,394,389,381,379,377,376,382,375
2019-05-14,14:28:53.156,368,367,370,390,388,410,420,406,393,373,355,350,337,335,331,328,329,346,465,608,628,473,268,291,357,380,376,369,370,373,370,366,364,370,377,390,389,394,405,415,427,435,441,455,478,494,513,518,523,529,522,509,488,450,410,380,353,331,315,310,303,300,303,308,310,319,320,320,325,321,320,314,318,323,315,312,316,306,307,304,297,295,292,285,282,280,279,281,273,293,308,315,335,327,319,305,283,275,268,266,268,263,258,257,353,502,566,446,194,157,227,268,272,272,279,287,292,291,281,276,274,276,292,299,302,312,320,338
2019-05-14,14:28:54.184,347,363,379,400,426,440,442,443,436,431,412,385,348,313,290,270,258,254,255,257,249,249,246,247,249,257,260,260,257,255,257,264,273,280,285,281,278,266,262,257,254,258,253,248,250,247,248,243,258,266,279,293,285,273,255,236,232,233,231,227,221,215,215,321,481,523,368,120,114,187,216,216,220,224,233,234,228,230,237,241,242,251,268,279,291,305,329,353,371,386,395,417,429,432,434,435,429,413,382,350,315,289,262,255,249,250,247,244,251,251,251,258,257,258,258,256,254,252,250,250,243,239,231,225,220,216,217,210
2019-05-14,14:28:55.213,214,210,202,198,201,202,200,193,197,205,215,235,221,223,201,177,167,161,156,154,162,150,140,254,461,551,407,98,30,68,109,116,105,102,97,91,88,77,75,78,78,83,88,101,109,122,134,148,170,187,212,230,241,252,252,246,237,209,175,135,105,73,52,43,31,28,30,35,37,32,35,30,18,14,17,14,13,19,24,26,27,29,24,24,19,16,12,13,20,17,18,12,0,-8,-10,4,-7,10,4,-2,-12,-24,-38,-39,-43,-49,-60,-58,-61,-30,129,257,225,25,-176,-152,-102,-62,-57,-49,-46,-44,-42,-36,-30,-23,-17,-3
2019-05-14,14:28:56.240,3,0,6,12,19,33,49,70,94,122,144,153,163,168,171,161,139,106,74,46,24,10,-2,-8,-13,-12,-7,-9,-9,-11,-4,2,9,15,22,28,29,30,26,29,30,25,28,34,32,33,28,25,22,30,29,18,25,41,50,72,58,51,38,19,9,8,9,9,0,-3,-8,44,204,334,288,53,-99,-51,1,8,6,7,13,23,26,24,28,25,30,38,55,57,60,73,84,98,110,133,154,171,191,206,214,220,214,200,172,135,98,64,35,24,12,11,12,14,16,9,9,9,15,15,11,17,23,29,32,34,40,42,43,44
2019-05-14,14:28:57.268,36,40,37,30,25,23,21,14,15,16,4,6,21,16,40,28,22,14,-1,-16,-23,-21,-18,-13,-21,-43,17,202,357,315,59,-124,-75,-20,-7,-2,-7,-8,-4,1,6,12,11,15,25,31,34,34,42,51,63,77,105,129,145,159,172,174,170,162,143,120,83,48,9,-17,-36,-49,-54,-62,-65,-61,-62,-67,-73,-73,-65,-62,-57,-56,-51,-49,-52,-59,-64,-61,-55,-59,-62,-72,-83,-82,-83,-81,-85,-86,-88,-95,-104,-96,-79,-76,-45,-52,-58,-68,-89,-102,-100,-92,-87,-94,-101,-125,-80,102,253,206,-47,-244,-202,-143,-129,-127,-127,-133,-123,-113
2019-05-14,14:28:58.296,-113,-108,-100,-93,-89,-74,-64,-53,-44,-34,-12,7,22,46,71,94,100,106,103,93,81,52,14,-17,-46,-70,-90,-104,-109,-120,-115,-112,-118,-115,-113,-116,-118,-114,-108,-106,-100,-97,-94,-102,-108,-108,-104,-105,-102,-104,-104,-105,-102,-106,-101,-100,-101,-103,-102,-91,-89,-60,-60,-62,-63,-72,-78,-78,-76,-74,-73,-74,-82,-40,129,258,224,20,-158,-120,-61,-23,-17,-9,3,7,3,10,16,23,28,34,38,47,55,62,75,87,102,121,148,172,191,202,208,213,213,201,174,133,91,61,31,9,-6,-16,-23,-25,-22,-17,-9,0,3,4,8,10,12,18
2019-05-14,14:28:59.325,16,10,4,2,4,-4,-7,-11,-13,-12,-17,-19,-21,-14,-18,-23,-24,-26,-26,-7,-5,21,21,12,6,-15,-23,-26,-29,-23,-19,-19,-31,6,165,310,286,63,-129,-81,-18,-2,-3,-3,-6,-11,-8,-3,-7,-10,-11,-8,-13,3,10,4,26,45,51,70,94,116,123,144,156,158,163,160,129,104,73,41,5,-10,-30,-41,-36,-35,-36,-34,-28,-19,-17,-9,-11,-12,-11,-16,-22,-31,-38,-36,-50,-46,-43,-56,-53,-63,-73,-87,-90,-100,-105,-105,-109,-118,-108,-94,-90,-56,-65,-65,-76,-89,-100,-102,-102,-106,-108,-106,-124,-54,206,395,323,-43,-251,-211
2019-05-14,14:29:00.352,-140,-89,-82,-83,-77,-77,-73,-80,-78,-84,-79,-67,-52,-42,-30,-18,-10,9,27,44,56,50,45,34,-5,-35,-41,-49,-56,-102,-142,-176,-188,-213,-183,-150,-155,-130,-93,-107,-143,-110,-60,-82,-74,-95,-92,-89,-113,-116,-124,-148,-138,-141,-149,-156,-168,-174,-179,-190,-202,-218,-228,-236,-230,-221,-211,-183,-208,-218,-247,-276,-305,-318,-321,-308,-291,-279,-295,-149,204,442,292,-169,-341,-334,-300,-304,-330,-356,-365,-379,-375,-372,-370,-367,-353,-361,-371,-368,-365,-348,-313,-274,-245,-222,-209,-211,-219,-238,-243,-257,-274,-294,-335,-382,-421,-461,-478,-491,-500,-506,-509,-513,-517,-514,-519,-524
2019-05-14,14:29:01.381,-511,-509,-511,-516,-520,-526,-521,-517,-522,-520,-526,-525,-527,-530,-528,-529,-538,-541,-544,-546,-554,-544,-535,-514,-513,-535,-546,-560,-576,-579,-589,-595,-596,-601,-613,-624,-485,-257,-167,-317,-622,-677,-631,-593,-584,-582,-577,-575,-571,-567,-570,-573,-574,-570,-556,-549,-536,-525,-514,-496,-485,-472,-450,-423,-395,-375,-361,-346,-348,-361,-385,-419,-457,-497,-522,-543,-563,-577,-584,-580,-577,-573,-572,-567,-561,-561,-565,-570,-564,-562,-561,-561,-563,-571,-574,-581,-586,-581,-572,-581,-590,-586,-594,-599,-601,-599,-578,-561,-547,-526,-543,-547,-554,-573,-582,-577,-581,-581,-579,-589,-608,-530,-314,-148,-222,-519,-667,-624
2019-05-14,14:29:02.408,-588,-587,-584,-576,-571,-576,-575,-558,-555,-556,-546,-546,-543,-542,-524,-518,-506,-486,-465,-462,-459,-451,-437,-399,-364,-363,-370,-400,-446,-501,-545,-586,-617,-635,-646,-661,-669,-677,-687,-703,-701,-704,-717,-727,-750,-774,-791,-809,-824,-829,-835,-847,-853,-854,-857,-865,-876,-880,-888,-894,-895,-896,-909,-904,-909,-904,-928,-991,-1035,-1085,-1132,-1160,-1184,-1199,-1203,-1205,-1223,-1248,-1152,-949,-837,-972,-1295,-1393,-1355,-1314,-1312,-1319,-1322,-1320,-1315,-1306,-1307,-1298,-1289,-1282,-1268,-1253,-1246,-1235,-1219,-1199,-1178,-1150,-1119,-1090,-1074,-1058,-1052,-1057,-1060,-1068,-1089,-1120,-1160,-1197,-1229,-1248,-1265,-1275,-1284,-1287,-1286,-1277,-1269,-1262,-1250,-1240
2019-05-14,14:29:03.437,-1226,-1225,-1223,-1223,-1217,-1207,-1209,-1212,-1213,-1220,-1224,-1229,-1219,-1214,-1211,-1209,-1215,-1214,-1211,-1212,-1198,-1199,-1160,-1146,-1147,-1144,-1159,-1178,-1183,-1182,-1178,-1175,-1176,-1187,-1189,-1041,-806,-726,-904,-1200,-1229,-1190,-1199,-1278,-1335,-1353,-1337,-1280,-1223,-1188,-1169,-1163,-1164,-1157,-1147,-1118,-1086,-1057,-1031,-1005,-993,-975,-952,-931,-911,-914,-914,-930,-927,-933,-950,-995,-1026,-1062,-1096,-1104,-1103,-1084,-1064,-1055,-1048,-1053,-1044,-1037,-1038,-1018,-1006,-1001,-1004,-1008,-1018,-1017,-1004,-997,-1000,-1013,-1005,-1010,-993,-993,-976,-977,-974,-977,-977,-970,-955,-941,-917,-932,-931,-928,-929,-943,-946,-946,-931,-922,-953,-965,-890,-662,-497,-511,-770,-933,-870,-832
2019-05-14,14:29:04.465,-827,-812,-813,-821,-826,-832,-827,-830,-839,-827,-815,-805,-784,-776,-748,-727,-696,-662,-638,-621,-591,-560,-566,-572,-575,-577,-573,-594,-622,-644,-682,-693,-710,-719,-716,-711,-707,-702,-703,-694,-689,-680,-673,-658,-652,-652,-651,-643,-646,-639,-629,-625,-626,-626,-632,-624,-627,-631,-614,-611,-610,-600,-591,-588,-587,-558,-570,-582,-583,-598,-611,-615,-612,-606,-603,-595,-601,-559,-353,-145,-156,-431,-625,-592,-534,-513,-508,-506,-498,-475,-456,-442,-427,-416,-401,-393,-390,-392,-388,-373,-352,-329,-303,-269,-229,-198,-187,-197,-199,-221,-247,-271,-303,-333,-358,-386,-419,-440,-453,-456,-454,-446,-440,-444,-450,-462,-484,-491
2019-05-14,14:29:05.493,-501,-507,-514,-521,-526,-543,-548,-569,-571,-560,-549,-533,-537,-543,-539,-540,-550,-557,-554,-564,-572,-555,-565,-565,-553,-577,-583,-593,-606,-615,-622,-620,-617,-617,-628,-638,-529,-341,-279,-399,-664,-731,-685,-641,-618,-623,-612,-611,-612,-600,-591,-584,-588,-580,-574,-566,-570,-563,-557,-546,-532,-514,-500,-478,-449,-444,-426,-422,-429,-434,-451,-482,-531,-573,-611,-633,-655,-675,-682,-681,-684,-681,-683,-684,-686,-689,-687,-681,-672,-667,-661,-646,-638,-629,-619,-614,-621,-617,-626,-626,-625,-616,-613,-607,-608,-613,-619,-601,-598,-587,-566,-578,-582,-598,-620,-618,-617,-606,-607,-613,-621,-632,-533,-345,-268,-388,-656,-714
2019-05-14,14:29:06.521,-658,-629,-626,-622,-627,-629,-627,-631,-629,-635,-645,-650,-654,-649,-640,-639,-631,-628,-619,-607,-591,-583,-561,-562,-558,-566,-561,-563,-583,-623,-663,-701,-727,-753,-767,-780,-789,-796,-787,-777,-778,-778,-783,-784,-774,-760,-752,-746,-749,-746,-732,-736,-732,-720,-725,-726,-732,-737,-743,-748,-754,-750,-748,-740,-739,-738,-714,-709,-691,-684,-691,-693,-705,-713,-713,-712,-705,-704,-706,-723,-695,-546,-392,-388,-565,-794,-784,-729,-699,-696,-694,-696,-697,-698,-705,-711,-716,-713,-714,-711,-710,-709,-703,-696,-684,-672,-653,-636,-609,-587,-573,-566,-559,-561,-574,-603,-637,-681,-720,-746,-765,-777,-786,-791,-799,-809,-807,-800
2019-05-14,14:29:07.549,-801,-799,-789,-788,-778,-768,-769,-766,-758,-764,-770,-763,-760,-765,-762,-761,-757,-756,-749,-744,-741,-743,-741,-743,-744,-736,-709,-695,-669,-685,-682,-690,-703,-708,-707,-696,-696,-693,-696,-706,-635,-454,-313,-363,-609,-767,-716,-661,-656,-657,-654,-652,-649,-640,-636,-631,-627,-628,-618,-606,-604,-592,-573,-558,-548,-518,-496,-469,-443,-425,-411,-398,-392,-395,-400,-418,-447,-480,-507,-527,-550,-561,-562,-560,-559,-556,-549,-540,-528,-524,-521,-517,-511,-509,-508,-505,-509,-520,-522,-527,-528,-525,-516,-519,-522,-510,-508,-517,-514,-509,-507,-505,-497,-478,-478,-448,-450,-452,-467,-477,-478,-479,-474,-464,-463,-463,-468,-429
2019-05-14,14:29:08.577,-276,-143,-160,-340,-547,-524,-463,-417,-411,-407,-397,-392,-383,-381,-377,-378,-367,-359,-353,-352,-337,-321,-316,-300,-280,-257,-234,-203,-179,-169,-163,-158,-154,-163,-182,-213,-248,-275,-296,-315,-328,-331,-334,-337,-336,-332,-334,-328,-328,-332,-326,-322,-317,-317,-314,-308,-306,-303,-302,-304,-307,-313,-313,-310,-309,-304,-310,-312,-311,-321,-317,-327,-328,-338,-329,-309,-309,-285,-289,-290,-308,-325,-342,-350,-339,-339,-339,-339,-347,-274,-103,3,-59,-310,-428,-363,-319,-315,-321,-321,-309,-299,-294,-292,-289,-273,-266,-260,-248,-236,-225,-216,-195,-178,-158,-134,-118,-90,-73,-64,-56,-53,-59,-75,-100,-135,-169,-203
2019-05-14,14:29:09.605,-223,-239,-246,-247,-246,-255,-250,-254,-252,-250,-251,-246,-239,-240,-243,-244,-243,-243,-245,-243,-236,-231,-232,-227,-230,-232,-232,-232,-240,-246,-248,-240,-237,-231,-226,-227,-224,-211,-192,-190,-168,-178,-181,-187,-210,-224,-228,-233,-243,-241,-254,-271,-207,-40,72,2,-249,-377,-318,-267,-261,-270,-271,-274,-274,-269,-263,-257,-252,-251,-241,-236,-226,-214,-202,-195,-177,-153,-129,-108,-89,-75,-64,-55,-48,-51,-62,-82,-115,-156,-182,-210,-228,-236,-244,-254,-255,-250,-251,-248,-245,-248,-251,-251,-253,-257,-251,-253,-256,-258,-260,-260,-262,-268,-267,-265,-261,-260,-262,-261,-258,-260,-265,-257,-259,-269,-280,-272
2019-05-14,14:29:10.633,-255,-252,-225,-232,-241,-248,-263,-277,-277,-274,-273,-272,-277,-274,-197,-40,37,-25,-237,-347,-303,-244,-223,-219,-226,-220,-220,-214,-211,-212,-212,-211,-196,-183,-173,-160,-153,-142,-126,-107,-86,-62,-42,-24,-19,-12,-11,-15,-20,-37,-63,-98,-124,-145,-162,-166,-176,-186,-187,-182,-179,-176,-186,-184,-178,-171,-164,-159,-160,-164,-161,-167,-171,-169,-169,-177,-175,-177,-174,-172,-174,-170,-167,-167,-169,-171,-176,-177,-179,-177,-158,-155,-127,-132,-136,-135,-149,-163,-162,-162,-162,-165,-166,-177,-150,-6,123,107,-73,-258,-221,-155,-125,-119,-116,-113,-108,-110,-105,-107,-107,-102,-103,-93,-91,-79,-58,-47
2019-05-14,14:29:11.661,-35,-15,6,26,56,76,92,97,99,100,97,76,42,-3,-44,-73,-93,-101,-111,-117,-117,-111,-106,-113,-112,-112,-115,-108,-102,-100,-97,-93,-86,-88,-82,-81,-79,-74,-67,-73,-87,-88,-88,-96,-99,-94,-92,-97,-88,-92,-90,-89,-78,-60,-51,-27,-35,-38,-52,-67,-76,-86,-78,-74,-71,-71,-88,-25,146,283,237,-11,-169,-106,-48,-43,-49,-43,-49,-54,-56,-55,-54,-51,-37,-31,-32,-26,-17,-11,1,17,34,49,72,92,111,119,126,121,122,118,89,52,9,-35,-70,-87,-103,-114,-121,-131,-129,-119,-115,-117,-112,-104,-89,-77,-70,-67,-70,-69,-72,-79,-73,-67
2019-05-14,14:29:12.689,-70,-63,-66,-64,-68,-76,-78,-72,-78,-75,-76,-75,-80,-86,-80,-78,-72,-26,-21,-18,-35,-59,-68,-79,-93,-109,-119,-137,-154,-65,116,210,96,-171,-241,-169,-115,-107,-111,-114,-119,-119,-116,-113,-107,-103,-86,-73,-74,-62,-51,-37,-30,-15,1,17,36,55,79,97,108,100,94,90,74,37,10,-16,-44,-55,-57,-63,-65,-57,-60,-57,-51,-48,-42,-43,-45,-47,-51,-54,-46,-52,-50,-53,-56,-56,-55,-68,-67,-66,-68,-74,-67,-65,-66,-64,-67,-68,-71,-47,-47,-26,-33,-43,-51,-60,-69,-74,-76,-69,-63,-72,-90,-68,114,307,307,51,-194,-150,-86,-62,-63,-55
2019-05-14,14:29:13.717,-55,-53,-46,-45,-36,-28,-14,-9,5,12,26,45,62,83,104,130,153,168,203,223,224,224,216,209,190,161,122,88,63,39,22,7,11,10,9,7,9,15,16,14,18,19,18,19,21,14,8,9,15,7,10,10,9,3,7,6,7,7,-1,-1,-1,-9,-5,17,20,45,49,30,36,17,10,3,2,5,11,16,1,9,208,436,462,211,-78,-67,5,36,44,45,43,42,50,48,57,59,63,70,75,88,97,107,123,144,163,180,200,217,236,255,267,275,278,270,258,220,175,140,112,82,66,52,54,48,56,60,55,68,75,79
2019-05-14,14:29:14.745,84,90,100,100,113,106,104,97,99,91,81,76,78,71,73,76,78,78,76,78,72,84,92,106,123,99,92,80,63,56,59,55,50,55,40,30,154,391,524,372,28,-54,5,53,56,60,59,62,72,75,83,80,99,108,116,124,135,146,160,169,185,214,235,261,288,303,301,303,308,304,277,251,200,156,121,86,85,74,57,55,52,57,49,56,58,58,62,73,66,68,63,68,73,70,71,62,57,58,56,54,61,51,55,57,61,80,88,98,120,115,110,98,86,76,79,84,93,95,94,73,170,415,598,478,127,-5,54,100
2019-05-14,14:29:15.773,115,121,124,122,122,124,128,130,138,137,147,144,155,163,166,181,199,217,241,265,298,323,329,328,329,325,316,273,228,180,139,102,80,67,69,72,80,88,102,105,101,93,101,95,100,94,97,95,98,93,94,98,97,99,96,93,83,72,66,45,52,59,58,88,76,63,56,37,14,2,-17,-17,-26,-38,-63,16,262,477,414,56,-138,-100,-42,-22,-25,-28,-31,-28,-24,-26,-27,-26,-18,-8,2,10,21,29,51,62,83,109,126,139,151,165,171,173,177,157,131,93,38,2,-34,-50,-60,-62,-69,-71,-70,-66,-58,-52,-41,-30,-27,-20
2019-05-14,14:29:16.801,-16,-19,-20,-27,-24,-21,-22,-25,-28,-32,-34,-42,-36,-26,-21,-1,0,-6,-24,-35,-47,-50,-51,-51,-54,-51,-57,13,202,335,277,24,-143,-109,-53,-11,-3,-2,-4,4,14,20,24,31,34,42,54,52,51,60,66,72,94,116,139,164,180,193,201,203,193,168,142,101,54,12,-16,-30,-41,-47,-53,-55,-49,-40,-36,-37,-29,-14,-12,-14,-6,5,9,8,8,4,0,-3,-14,-17,-25,-26,-5,2,26,32,17,3,-20,-23,-18,-19,-22,-20,-23,-34,-17,116,301,348,188,-81,-96,-32,-7,-5,-5,0,1,6,8,6,1,8,22,23,24,28
2019-05-14,14:29:17.829,32,46,57,70,95,115,139,157,175,187,192,193,179,146,100,75,40,9,-7,-14,-17,-19,-23,-21,-18,-21,-23,-24,-27,-27,-21,-15,-10,-5,7,8,10,12,20,18,19,28,27,32,55,52,73,78,70,69,50,40,33,23,14,17,23,13,18,156,362,425,250,-48,-62,6,30,24,18,17,22,27,35,32,39,44,48,47,55,60,79,102,114,126,149,173,201,217,236,245,250,260,245,211,166,119,76,39,15,-5,-19,-30,-35,-40,-34,-34,-40,-44,-46,-43,-42,-44,-39,-36,-38,-38,-36,-35,-21,-18,-23,-25,-23,-22,-26,-24,-30,-27
2019-05-14,14:29:18.857,-24,-18,7,-12,-20,-37,-59,-68,-73,-74,-73,-73,-86,-93,17,245,368,249,-87,-207,-158,-112,-104,-105,-103,-97,-101,-96,-94,-87,-84,-76,-70,-61,-47,-32,-19,-2,14,38,64,87,110,136,145,150,154,145,123,87,45,8,-20,-48,-67,-78,-86,-89,-91,-98,-94,-91,-93,-91,-92,-85,-87,-76,-64,-62,-55,-45,-35,-26,-29,-23,-20,-27,-14,-15,-8,-4,-4,7,28,27,47,60,57,50,44,26,23,31,35,43,51,48,60,207,385,400,214,-50,-61,-20,36,52,47,53,57,66,79,80,84,91,105,113,128,139,155,169,185,201,225,244,265,291
2019-05-14,14:29:19.885,307,319,334,335,319,290,253,215,181,157,128,96,73,54,53,55,63,54,48,51,55,57,49,40,37,44,60,60,45,42,41,45,56,51,50,45,44,46,38,49,63,61,58,82,95,107,138,137,136,128,108,96,88,86,90,90,92,82,179,346,406,275,19,-38,38,69,73,66,67,67,75,78,73,77,78,76,82,88,94,105,119,133,148,177,201,223,248,272,281,289,294,288,270,232,179,136,100,67,43,48,46,46,47,49,43,46,45,46,53,56,69,67,67,71,71,63,66,63,71,66,72,82,93,97,97,98,96,91
2019-05-14,14:29:20.913,84,83,87,87,82,92,107,116,133,121,121,118,105,99,102,102,105,104,99,86,172,374,502,413,112,-23,34,77,84,81,76,78,83,84,78,71,68,67,82,90,92,101,115,126,138,153,172,195,227,244,256,273,283,282,263,227,185,142,95,71,53,45,47,46,46,58,63,68,70,72,68,67,71,74,80,86,92,95,102,103,100,93,93,99,96,104,100,101,102,99,96,94,85,84,84,85,88,91,85,82,89,90,117,104,109,104,92,85,92,94,96,97,92,89,194,414,526,415,115,4,60,115,127,125,121,123,121,108
2019-05-14,14:29:21.941,115,121,130,128,137,144,147,157,172,186,207,225,254,282,307,332,342,355,349,348,337,308,262,225,182,155,129,113,110,103,102,100,102,104,99,105,103,108,113,110,116,123,124,123,125,120,113,115,113,114,115,111,106,107,112,117,116,120,125,125,117,120,126,127,133,152,153,179,180,172,173,164,147,142,138,144,141,138,133,164,315,459,453,276,45,54,104,144,156,159,160,165,171,171,178,183,191,194,202,210,222,232,238,250,273,298,324,349,380,402,412,420,421,416,392,358,325,294,258,228,211,203,193,188,185,178,183,186
2019-05-14,14:29:22.969,183,190,191,195,195,187,188,186,187,188,187,180,175,179,178,182,180,178,171,169,170,167,159,161,158,158,156,153,151,149,147,143,162,170,188,197,185,184,172,164,157,152,155,164,161,146,163,319,515,551,374,92,68,121,158,156,147,147,146,149,150,155,156,163,171,179,188,200,202,220,240,255,274,300,334,360,390,421,443,459,471,465,442,414,386,356,341,333,331,341,351,357,368,375,383,389,406,421,440,461,482,493,500,513,532,532,529,522,514,507,498,501,509,514,517,531,536,545,557,564,570,580,583,587,590,592,598,593
2019-05-14,14:29:23.997,606,629,649,678,673,667,656,630,622,633,634,627,629,628,612,709,927,1053,966,661,512,558,608,618,614,605,604,602,610,613,611,609,611,619,626,636,643,645,648,657,669,681,700,727,750,769,780,779,769,757,726,676,624,587,563,546,531,524,525,534,530,528,531,540,538,543,544,545,549,547,550,555,557,556,551,545,542,530,526,531,534,533,535,529,513,510,512,513,508,507,506,501,493,490,488,490,488,481,476,486,488,502,499,482,474,454,429,420,414,424,430,438,432,459,643,852,868,666,399,412,478,510,513,511,512,516,522,515
2019-05-14,14:29:25.025,516,520,525,531,545,556,557,573,589,602,614,641,662,676,698,722,739,746,751,749,732,700,657,607,570,542,511,487,475,471,464,466,465,467,468,469,473,484,487,479,477,474,477,474,473,467,461,448,443,439,440,447,453,446,449,450,452,451,453,454,459,461,454,448,447,439,439,451,443,453,459,449,443,420,404,399,402,407,408,400,389,418,568,720,719,539,299,306,359,403,418,425,434,442,445,442,441,455,474,483,495,509,528,541,557,573,589,607,635,660,679,702,721,726,735,742,733,708,676,637,605,578,554,534,532,538,538,539
2019-05-14,14:29:26.053,549,544,537,533,535,534,540,536,525,522,520,519,513,512,517,517,518,515,519,520,521,525,525,524,516,510,510,513,514,518,521,518,512,511,519,514,530,536,551,565,552,556,545,525,510,505,506,505,505,488,482,607,810,888,749,452,384,440,480,485,487,485,487,496,499,498,508,509,515,525,538,547,555,566,589,601,622,641,664,687,702,717,724,729,727,721,705,671,631,592,560,529,504,495,491,486,475,470,464,460,463,467,461,468,468,470,468,463,461,454,449,444,432,429,435,436,429,431,428,423,423,422,415,409,406,407,402,396
2019-05-14,14:29:27.081,401,402,410,404,398,408,428,424,453,454,452,447,435,427,424,433,427,425,419,405,476,670,823,778,512,331,377,431,450,447,445,435,439,448,445,450,459,471,486,493,508,515,519,531,547,569,586,593,621,641,650,648,650,647,633,616,583,536,493,447,409,389,377,369,358,359,354,357,355,362,367,364,367,372,370,369,364,355,349,343,329,317,317,324,317,312,304,294,298,300,303,313,323,331,333,339,346,360,363,365,383,390,416,427,424,429,420,405,410,423,433,430,430,419,436,580,730,738,578,341,330,373,410,419,411,407,412,413
2019-05-14,14:29:28.109,404,412,413,409,415,424,432,427,434,451,458,472,483,504,532,564,589,614,624,626,629,630,611,573,537,499,472,447,442,440,439,437,436,433,439,441,435,425,431,441,432,425,431,423,415,414,417,420,425,425,429,433,432,427,427,426,429,424,429,431,430,436,433,436,436,449,457,474,482,483,480,471,446,443,447,442,443,448,430,438,578,758,779,606,343,328,382,396,380,374,375,382,390,395,405,400,403,397,395,393,395,411,420,431,447,457,471,476,496,511,525,532,537,537,529,496,456,401,360,317,286,267,259,251,254,261,276,283
2019-05-14,14:29:29.137,296,302,292,284,287,283,284,285,288,290,291,289,291,302,297,287,280,271,260,256,249,238,230,219,209,199,184,178,168,180,185,195,205,195,192,175,160,150,149,143,141,142,134,140,267,417,427,291,42,12,62,103,114,117,119,120,118,122,126,133,143,153,167,173,193,199,209,224,246,270,297,317,336,361,381,392,395,403,392,367,337,299,262,237,215,194,178,172,173,168,174,179,183,189,200,212,218,235,237,241,247,252,246,248,251,246,237,243,247,244,243,241,236,229,228,225,232,233,232,251,267,296,313,309,320,320,300,308
2019-05-14,14:29:30.165,307,316,328,323,317,324,448,627,676,570,315,281,338,376,377,378,386,393,397,403,411,416,427,439,446,452,449,454,462,479,500,523,553,587,618,643,667,668,662,650,633,598,556,514,474,442,411,392,377,366,361,352,349,349,347,345,343,346,340,340,345,346,356,360,359,355,350,358,356,339,328,319,320,320,315,316,315,312,301,296,295,289,303,317,315,341,334,332,322,310,300,303,308,317,325,327,313,377,561,701,648,399,227,277,336,343,347,353,356,363,366,365,367,381,384,391,396,397,394,397,402,413,433,450,471,501,521,537
2019-05-14,14:29:31.193,545,556,559,549,524,492,453,411,384,358,324,315,307,299,307,311,308,310,313,316,321,330,334,332,337,346,355,365,365,363,362,367,372,369,370,370,370,371,368,364,364,360,354,342,335,337,348,351,380,370,362,359,349,333,332,337,335,331,332,318,372,544,664,620,400,217,249,292,324,332,329,334,340,347,350,359,364,368,366,369,371,378,375,378,394,413,425,437,457,477,490,498,514,523,523,512,487,439,400,365,334,318,310,304,299,303,310,314,322,322,323,331,329,328,327,323,327,324,323,321,319,326,327,319,312,302,300,306
2019-05-14,14:29:32.221,311,311,312,305,304,302,321,340,338,358,348,343,338,317,306,300,294,293,292,277,269,339,502,603,538,296,150,200,252,265,261,254,252,250,246,244,235,226,197,183,178,170,163,159,164,171,179,200,225,246,270,290,298,307,309,301,280,241,198,156,120,94,68,57,40,35,25,21,18,19,24,30,31,31,34,35,22,20,18,12,13,12,13,10,4,-6,-13,-23,-27,-32,-35,-35,-43,-52,-57,-64,-65,-48,-50,-26,-24,-37,-53,-76,-101,-113,-127,-133,-130,-137,-148,-122,29,216,230,30,-222,-198,-130,-111,-115,-118,-112,-109,-106,-102,-106,-100
2019-05-14,14:29:33.249,-92,-89,-78,-72,-68,-63,-44,-34,-18,2,24,38,62,77,88,92,90,87,70,45,3,-37,-78,-112,-130,-149,-165,-169,-179,-180,-187,-191,-198,-201,-204,-213,-215,-221,-223,-223,-221,-229,-235,-242,-249,-254,-262,-267,-282,-289,-293,-292,-292,-297,-298,-298,-294,-298,-309,-307,-301,-302,-282,-300,-304,-320,-348,-359,-358,-357,-357,-357,-360,-379,-312,-136,-21,-89,-342,-492,-450,-398,-386,-394,-391,-388,-381,-379,-385,-380,-381,-379,-369,-368,-362,-351,-351,-345,-335,-318,-299,-274,-244,-216,-192,-181,-179,-175,-176,-193,-223,-271,-314,-347,-362,-374,-375,-381,-384,-385,-383,-382,-371,-374,-370,-376,-372,-371
2019-05-14,14:29:34.277,-375,-372,-373,-383,-393,-403,-411,-416,-419,-427,-442,-450,-457,-451,-453,-451,-455,-457,-459,-466,-461,-458,-443,-432,-442,-442,-453,-465,-472,-475,-470,-468,-459,-458,-455,-352,-176,-116,-207,-454,-527,-468,-415,-398,-401,-400,-390,-387,-381,-378,-373,-368,-367,-363,-354,-344,-334,-329,-318,-308,-295,-274,-249,-230,-211,-198,-186,-190,-192,-204,-228,-274,-317,-349,-381,-397,-409,-425,-430,-427,-425,-421,-418,-419,-421,-401,-394,-395,-393,-393,-398,-404,-415,-415,-420,-426,-431,-433,-440,-451,-444,-438,-438,-445,-451,-454,-465,-474,-482,-487,-478,-473,-466,-456,-475,-477,-496,-514,-515,-517,-517,-519,-514,-522,-525,-410,-230,-156
2019-05-14,14:29:35.305,-259,-525,-599,-547,-511,-510,-518,-519,-523,-520,-510,-505,-507,-501,-494,-484,-479,-481,-480,-470,-450,-436,-422,-400,-370,-347,-332,-309,-299,-291,-292,-299,-327,-361,-398,-433,-466,-494,-517,-524,-526,-528,-528,-527,-523,-518,-522,-516,-514,-521,-526,-525,-529,-530,-528,-533,-538,-538,-543,-551,-556,-561,-569,-579,-585,-591,-595,-595,-599,-604,-606,-600,-598,-593,-580,-583,-572,-585,-591,-613,-635,-650,-647,-654,-652,-652,-666,-684,-604,-418,-292,-372,-651,-780,-722,-675,-670,-670,-667,-671,-668,-670,-666,-668,-664,-665,-662,-663,-656,-654,-651,-642,-628,-615,-594,-564,-546,-525,-514,-504,-503,-500,-503,-524,-565,-609,-649,-692
2019-05-14,14:29:36.333,-722,-740,-751,-761,-767,-764,-767,-771,-771,-767,-770,-770,-763,-767,-768,-764,-758,-759,-764,-752,-752,-763,-762,-754,-748,-747,-745,-743,-742,-730,-726,-722,-722,-724,-724,-728,-711,-702,-700,-679,-696,-704,-713,-729,-744,-753,-755,-755,-755,-760,-765,-678,-514,-434,-515,-763,-872,-824,-767,-737,-731,-732,-733,-726,-724,-722,-712,-708,-704,-688,-676,-661,-648,-635,-624,-617,-598,-577,-552,-528,-507,-491,-476,-471,-474,-491,-516,-547,-583,-609,-632,-654,-671,-678,-676,-675,-668,-664,-665,-665,-669,-661,-653,-638,-626,-627,-619,-607,-605,-602,-599,-607,-609,-607,-606,-609,-611,-617,-616,-615,-618,-618,-617,-612,-612,-616,-605,-600
2019-05-14,14:29:37.361,-595,-575,-585,-585,-591,-613,-624,-622,-625,-621,-612,-610,-616,-538,-363,-263,-342,-600,-708,-646,-602,-596,-597,-595,-596,-595,-597,-603,-601,-602,-596,-588,-588,-584,-579,-568,-558,-547,-527,-504,-480,-450,-425,-408,-400,-398,-404,-422,-445,-484,-532,-569,-598,-618,-637,-647,-650,-654,-659,-668,-670,-675,-671,-668,-663,-659,-659,-656,-656,-651,-650,-653,-654,-661,-668,-669,-670,-672,-679,-684,-682,-681,-681,-682,-688,-691,-689,-692,-691,-693,-686,-673,-664,-629,-646,-650,-666,-688,-701,-704,-706,-707,-702,-712,-731,-654,-460,-320,-385,-661,-813,-755,-695,-685,-688,-687,-679,-669,-659,-661,-661,-658,-647,-642,-646,-639,-637,-636
2019-05-14,14:29:38.389,-623,-609,-597,-587,-563,-538,-528,-508,-497,-492,-487,-497,-513,-546,-577,-611,-646,-666,-681,-695,-700,-705,-704,-708,-704,-711,-717,-710,-703,-698,-699,-702,-707,-707,-710,-715,-723,-714,-718,-720,-718,-721,-725,-731,-732,-731,-732,-723,-724,-729,-737,-740,-742,-742,-737,-737,-731,-725,-713,-716,-722,-721,-736,-751,-749,-755,-761,-759,-759,-773,-756,-614,-454,-441,-608,-855,-852,-791,-750,-750,-748,-742,-744,-744,-738,-737,-731,-729,-729,-718,-702,-692,-682,-668,-656,-645,-630,-608,-577,-552,-528,-515,-513,-514,-518,-531,-555,-591,-621,-655,-684,-696,-706,-722,-729,-732,-730,-729,-727,-737,-743,-740,-731,-727,-722,-719,-715,-709
2019-05-14,14:29:39.417,-700,-693,-692,-683,-682,-684,-687,-688,-684,-687,-689,-690,-692,-692,-689,-688,-687,-682,-682,-673,-652,-647,-627,-621,-630,-634,-642,-652,-650,-645,-640,-638,-641,-646,-620,-473,-318,-318,-485,-706,-690,-635,-602,-590,-585,-592,-599,-601,-608,-605,-604,-596,-591,-585,-579,-571,-560,-545,-533,-514,-503,-487,-461,-434,-416,-401,-395,-396,-401,-409,-437,-478,-519,-551,-586,-599,-601,-616,-626,-624,-616,-613,-621,-615,-605,-603,-595,-595,-590,-581,-578,-579,-590,-587,-595,-598,-599,-600,-603,-608,-610,-603,-606,-608,-609,-607,-608,-611,-614,-614,-612,-610,-621,-610,-594,-587,-556,-569,-571,-581,-601,-605,-599,-598,-592,-591,-592,-607
2019-05-14,14:29:40.445,-528,-357,-237,-321,-594,-720,-648,-605,-604,-603,-605,-611,-610,-608,-609,-601,-602,-602,-593,-587,-580,-580,-567,-548,-538,-521,-503,-483,-454,-436,-421,-413,-410,-414,-421,-434,-459,-501,-536,-563,-584,-604,-611,-616,-621,-625,-626,-629,-626,-623,-620,-620,-611,-610,-608,-603,-604,-600,-603,-604,-596,-597,-591,-602,-605,-600,-594,-592,-588,-587,-584,-594,-584,-579,-580,-582,-583,-584,-581,-561,-553,-529,-529,-541,-539,-547,-558,-559,-567,-561,-551,-548,-552,-525,-368,-210,-202,-369,-609,-607,-554,-510,-498,-483,-469,-459,-446,-435,-436,-432,-425,-422,-411,-395,-391,-380,-367,-360,-342,-321,-298,-275,-249,-229,-213,-197,-190,-191
2019-05-14,14:29:41.473,-195,-218,-259,-297,-325,-358,-379,-393,-399,-401,-399,-398,-390,-389,-384,-384,-382,-376,-371,-370,-367,-365,-369,-374,-382,-390,-400,-402,-414,-421,-418,-421,-425,-428,-427,-429,-431,-429,-436,-442,-446,-445,-445,-432,-416,-397,-391,-410,-417,-428,-448,-456,-458,-458,-458,-457,-472,-469,-358,-162,-80,-204,-495,-562,-495,-459,-458,-457,-453,-445,-443,-440,-432,-431,-426,-423,-424,-422,-413,-400,-382,-366,-349,-333,-308,-279,-258,-232,-217,-202,-194,-199,-201,-225,-257,-293,-332,-359,-375,-384,-396,-389,-384,-376,-370,-363,-369,-368,-368,-368,-375,-372,-371,-371,-368,-352,-350,-347,-344,-342,-341,-342,-348,-362,-372,-370,-378,-382
2019-05-14,14:29:42.501,-381,-386,-393,-396,-404,-410,-412,-397,-383,-378,-360,-375,-385,-394,-405,-411,-411,-410,-413,-415,-417,-425,-350,-127,23,-57,-350,-496,-448,-400,-395,-396,-395,-396,-391,-377,-369,-356,-346,-338,-320,-307,-293,-276,-267,-259,-248,-228,-207,-183,-159,-129,-112,-93,-87,-87,-99,-123,-158,-206,-249,-286,-316,-338,-346,-362,-370,-361,-358,-354,-347,-339,-335,-332,-331,-329,-323,-315,-316,-317,-317,-320,-326,-334,-339,-346,-352,-362,-364,-376,-383,-390,-398,-396,-396,-394,-393,-392,-378,-378,-356,-361,-364,-368,-380,-388,-382,-381,-380,-370,-372,-382,-335,-153,-11,-47,-276,-480,-451,-394,-363,-364,-369,-372,-369,-375,-372,-373
2019-05-14,14:29:43.529,-369,-364,-355,-347,-344,-331,-325,-325,-318,-300,-285,-278,-250,-231,-219,-212,-205,-206,-214,-229,-259,-296,-327,-352,-376,-398,-410,-412,-411,-415,-409,-412,-412,-413,-414,-413,-414,-434,-467,-491,-515,-541,-558,-578,-593,-599,-606,-617,-622,-622,-625,-634,-641,-647,-654,-647,-650,-648,-640,-622,-610,-629,-629,-646,-663,-666,-669,-670,-673,-668,-675,-685,-583,-385,-294,-391,-666,-771,-722,-669,-657,-651,-644,-641,-631,-623,-617,-619,-616,-615,-612,-608,-598,-586,-583,-573,-559,-540,-528,-511,-494,-477,-470,-467,-472,-479,-490,-515,-560,-603,-644,-679,-700,-721,-737,-751,-756,-768,-776,-774,-765,-763,-760,-758,-758,-759,-760,-763
2019-05-14,14:29:44.557,-769,-768,-777,-786,-797,-803,-814,-816,-808,-812,-820,-826,-819,-822,-827,-827,-837,-837,-829,-826,-799,-804,-817,-834,-849,-861,-860,-861,-857,-859,-866,-874,-838,-650,-443,-440,-681,-937,-911,-856,-839,-840,-841,-841,-832,-836,-830,-822,-808,-800,-791,-782,-769,-761,-742,-721,-704,-685,-660,-635,-609,-579,-555,-546,-548,-554,-554,-568,-594,-637,-675,-701,-723,-740,-757,-771,-780,-786,-788,-785,-784,-776,-768,-762,-747,-746,-742,-737,-729,-720,-722,-716,-719,-718,-712,-705,-704,-709,-704,-699,-695,-701,-699,-706,-708,-717,-716,-708,-706,-688,-705,-704,-711,-736,-744,-747,-746,-742,-741,-743,-763,-676,-455,-299,-363,-657,-825,-772
2019-05-14,14:29:45.585,-710,-695,-699,-704,-709,-704,-694,-696,-687,-678,-667,-657,-648,-634,-624,-613,-594,-566,-548,-526,-496,-466,-449,-428,-414,-410,-408,-417,-438,-475,-514,-549,-584,-607,-616,-624,-621,-619,-624,-627,-620,-615,-621,-631,-627,-622,-621,-616,-608,-604,-600,-595,-593,-589,-587,-592,-590,-593,-599,-593,-585,-577,-583,-580,-585,-596,-581,-572,-552,-545,-557,-568,-583,-598,-593,-594,-601,-599,-601,-607,-595,-469,-287,-236,-362,-632,-681,-630,-575,-565,-562,-561,-555,-540,-531,-526,-520,-509,-498,-485,-473,-470,-459,-444,-430,-414,-395,-374,-345,-319,-288,-266,-253,-245,-248,-258,-286,-323,-369,-398,-419,-436,-450,-452,-455,-456,-467,-460
2019-05-14,14:29:46.613,-461,-459,-450,-441,-438,-435,-430,-426,-429,-431,-436,-443,-445,-447,-450,-447,-441,-444,-447,-447,-443,-442,-448,-448,-453,-454,-458,-436,-436,-422,-401,-413,-414,-426,-447,-448,-442,-449,-442,-442,-452,-476,-384,-176,-48,-137,-428,-558,-508,-455,-441,-450,-445,-442,-450,-449,-443,-438,-431,-418,-416,-411,-402,-392,-384,-371,-355,-333,-312,-286,-255,-225,-202,-186,-181,-176,-178,-201,-229,-270,-312,-341,-365,-384,-395,-410,-419,-425,-433,-434,-437,-440,-434,-431,-435,-430,-417,-414,-413,-402,-399,-396,-395,-390,-398,-402,-407,-415,-419,-421,-416,-410,-408,-401,-405,-411,-408,-410,-408,-401,-389,-379,-395,-394,-410,-434,-446,-445
2019-05-14,14:29:47.641,-445,-439,-439,-453,-461,-347,-112,18,-101,-434,-551,-485,-439,-436,-432,-434,-430,-422,-418,-419,-416,-408,-397,-391,-381,-372,-364,-341,-319,-302,-280,-258,-234,-206,-180,-163,-156,-151,-145,-156,-182,-212,-252,-295,-331,-355,-371,-375,-377,-379,-376,-376,-375,-372,-371,-372,-378,-381,-373,-370,-377,-377,-375,-372,-375,-372,-380,-386,-384,-383,-387,-392,-392,-394,-394,-383,-385,-388,-383,-388,-392,-391,-379,-367,-356,-337,-338,-337,-345,-363,-370,-375,-383,-381,-375,-379,-383,-293,-91,18,-70,-349,-474,-425,-366,-345,-343,-348,-339,-332,-336,-330,-317,-317,-306,-295,-284,-282,-268,-252,-237,-220,-193,-163,-137,-108,-82,-63
2019-05-14,14:29:48.669,-47,-39,-40,-48,-64,-109,-153,-192,-223,-246,-259,-264,-278,-276,-272,-262,-259,-256,-243,-244,-231,-226,-228,-220,-219,-219,-220,-216,-206,-209,-205,-205,-214,-213,-207,-203,-197,-200,-198,-193,-179,-167,-156,-149,-148,-136,-137,-111,-111,-120,-119,-130,-147,-148,-147,-145,-142,-137,-143,-119,53,220,210,13,-226,-203,-144,-111,-106,-109,-105,-102,-108,-104,-99,-103,-101,-96,-93,-88,-75,-63,-52,-41,-21,-5,18,54,84,105,122,125,120,108,80,43,-5,-44,-87,-120,-136,-150,-158,-163,-166,-165,-166,-164,-158,-160,-155,-148,-143,-140,-131,-130,-131,-133,-143,-153,-148,-146,-148,-154,-150,-148,-159,-164
2019-05-14,14:29:49.697,-177,-178,-172,-171,-168,-165,-166,-165,-169,-150,-147,-128,-124,-134,-144,-152,-167,-170,-176,-170,-170,-172,-189,-173,-15,191,220,39,-243,-243,-177,-158,-167,-168,-159,-152,-153,-153,-156,-156,-150,-143,-140,-133,-127,-119,-110,-95,-78,-62,-41,-17,10,33,47,53,59,60,52,25,-13,-57,-90,-119,-133,-146,-152,-161,-160,-153,-154,-159,-160,-161,-168,-179,-182,-190,-196,-201,-213,-214,-207,-206,-215,-229,-239,-240,-246,-246,-244,-250,-260,-262,-270,-270,-266,-273,-276,-279,-280,-297,-287,-290,-281,-283,-302,-304,-316,-337,-347,-346,-343,-344,-349,-364,-372,-241,-29,48,-92,-395,-454,-390,-357,-357,-353,-351
2019-05-14,14:29:50.725,-346,-340,-338,-342,-338,-330,-328,-318,-303,-296,-290,-280,-269,-254,-233,-220,-203,-182,-162,-141,-134,-128,-140,-150,-172,-205,-248,-295,-327,-353,-360,-363,-369,-378,-384,-387,-389,-397,-395,-389,-386,-381,-378,-368,-363,-363,-356,-351,-348,-349,-355,-358,-362,-368,-369,-366,-377,-383,-380,-382,-380,-376,-373,-376,-369,-372,-361,-359,-326,-323,-327,-329,-340,-350,-346,-344,-340,-333,-327,-339,-321,-189,-45,-43,-181,-408,-410,-353,-308,-302,-302,-286,-290,-288,-277,-263,-253,-248,-237,-233,-225,-215,-200,-182,-173,-162,-143,-123,-98,-72,-55,-43,-32,-24,-19,-14,-34,-72,-102,-126,-149,-167,-166,-172,-172,-170,-173,-150
2019-05-14,14:29:51.753,-144,-135,-130,-133,-117,-116,-104,-87,-90,-110,-100,-95,-104,-93,-99,-109,-105,-107,-111,-124,-132,-137,-142,-144,-154,-163,-174,-186,-177,-187,-172,-169,-182,-179,-184,-209,-208,-217,-208,-197,-196,-204,-214,-47,205,263,82,-289,-355,-304,-241,-208,-209,-201,-209,-215,-221,-223,-224,-224,-217,-201,-203,-197,-173,-157,-139,-117,-96,-71,-43,-14,0,5,13,30,15,-5,-29,-80,-133,-179,-229,-264,-289,-310,-327,-331,-334,-336,-346,-351,-347,-349,-347,-348,-350,-344,-336,-334,-338,-334,-348,-355,-353,-366,-382,-391,-399,-411,-420,-421,-421,-425,-420,-426,-419,-409,-409,-385,-411,-420,-433,-450,-467,-468,-477,-480
2019-05-14,14:29:52.781,-481,-480,-501,-415,-174,-16,-85,-409,-603,-555,-499,-468,-473,-476,-470,-467,-467,-468,-478,-477,-472,-472,-464,-450,-442,-436,-415,-397,-388,-356,-331,-305,-279,-253,-241,-233,-228,-228,-243,-266,-306,-345,-373,-390,-412,-426,-424,-423,-424,-419,-410,-408,-398,-383,-380,-379,-381,-374,-373,-373,-367,-365,-370,-363,-372,-374,-366,-363,-371,-371,-368,-371,-370,-365,-370,-369,-346,-344,-325,-324,-328,-333,-340,-353,-354,-359,-352,-342,-353,-359,-325,-177,2,10,-161,-418,-414,-359,-332,-328,-327,-321,-316,-312,-318,-313,-300,-298,-296,-284,-282,-280,-268,-258,-244,-234,-209,-184,-155,-129,-111,-99,-83,-81,-83,-97,-128,-163
2019-05-14,14:29:53.809,-206,-241,-271,-302,-308,-320,-330,-338,-333,-330,-345,-344,-336,-333,-330,-324,-328,-328,-317,-312,-310,-307,-301,-305,-315,-311,-312,-317,-318,-319,-326,-331,-333,-342,-347,-337,-329,-327,-316,-334,-345,-351,-377,-399,-402,-413,-412,-420,-427,-443,-379,-203,-69,-137,-401,-539,-482,-439,-435,-444,-452,-451,-453,-456,-462,-465,-464,-461,-453,-445,-436,-424,-419,-403,-388,-373,-361,-344,-319,-297,-283,-266,-267,-271,-283,-299,-340,-385,-435,-472,-511,-539,-555,-563,-573,-583,-589,-594,-593,-603,-604,-603,-606,-607,-607,-611,-615,-627,-622,-624,-633,-640,-644,-646,-653,-660,-667,-670,-663,-663,-672,-670,-672,-684,-672,-657,-657,-642
2019-05-14,14:29:54.837,-657,-661,-673,-695,-712,-717,-720,-715,-722,-734,-746,-684,-489,-340,-395,-682,-844,-780,-732,-722,-723,-721,-717,-723,-719,-707,-708,-703,-692,-686,-674,-668,-655,-648,-627,-607,-584,-558,-533,-507,-486,-466,-451,-443,-446,-448,-472,-505,-544,-585,-631,-654,-675,-695,-701,-702,-699,-696,-694,-697,-698,-698,-698,-692,-692,-686,-687,-681,-683,-685,-688,-688,-690,-680,-684,-689,-697,-695,-703,-703,-702,-705,-702,-697,-696,-701,-704,-679,-671,-643,-638,-647,-645,-658,-664,-663,-667,-668,-671,-670,-673,-667,-523,-319,-265,-429,-722,-745,-674,-636,-628,-622,-619,-619,-625,-611,-612,-597,-583,-574,-560,-549,-543,-538,-526,-518,-505,-488
2019-05-14,14:29:55.865,-467,-440,-415,-395,-373,-364,-362,-362,-378,-394,-429,-470,-504,-524,-545,-557,-568,-560,-562,-553,-553,-553,-551,-554,-545,-546,-544,-538,-537,-534,-533,-539,-539,-540,-540,-547,-551,-552,-555,-547,-551,-546,-545,-537,-534,-535,-527,-521,-514,-507,-496,-476,-479,-479,-486,-504,-498,-485,-484,-474,-468,-466,-465,-354,-172,-109,-215,-476,-542,-479,-424,-399,-393,-386,-380,-375,-363,-356,-354,-346,-330,-326,-315,-306,-292,-278,-260,-239,-219,-186,-165,-142,-125,-114,-111,-107,-99,-110,-132,-167,-200,-238,-261,-282,-299,-301,-297,-300,-303,-304,-302,-291,-298,-292,-287,-291,-286,-293,-298,-297,-296,-295,-295,-297,-299,-306,-309,-308
2019-05-14,14:29:56.893,-312,-314,-312,-324,-326,-319,-316,-307,-297,-304,-305,-285,-278,-267,-268,-285,-289,-301,-314,-324,-327,-320,-315,-313,-325,-335,-220,-11,77,-51,-354,-424,-361,-315,-312,-311,-309,-309,-307,-310,-311,-312,-305,-294,-297,-288,-285,-274,-260,-250,-230,-211,-185,-161,-133,-109,-97,-93,-87,-83,-98,-112,-147,-185,-232,-262,-285,-308,-322,-327,-332,-325,-317,-314,-319,-311,-302,-301,-304,-302,-307,-306,-306,-304,-298,-295,-299,-301,-298,-297,-300,-298,-293,-295,-307,-299,-296,-291,-281,-281,-284,-289,-297,-299,-291,-285,-259,-263,-274,-282,-295,-314,-315,-317,-322,-317,-316,-323,-302,-131,91,121,-104,-391,-374,-306,-282,-284
2019-05-14,14:29:57.921,-278,-269,-275,-268,-273,-272,-263,-256,-247,-239,-225,-217,-212,-205,-191,-175,-158,-126,-98,-73,-48,-28,-18,-23,-21,-30,-64,-105,-137,-176,-205,-229,-239,-247,-253,-258,-261,-264,-258,-264,-265,-266,-271,-281,-280,-278,-281,-284,-284,-286,-289,-300,-313,-327,-327,-335,-339,-343,-350,-351,-349,-346,-349,-360,-350,-356,-365,-366,-364,-344,-340,-308,-311,-323,-325,-336,-351,-348,-346,-356,-355,-361,-369,-348,-190,-14,-6,-185,-441,-433,-365,-331,-324,-319,-310,-306,-295,-286,-288,-284,-278,-265,-260,-248,-235,-218,-206,-189,-167,-152,-138,-109,-83,-54,-33,-25,-19,-11,-11,-39,-74,-109,-142,-172,-195,-206,-214,-216
2019-05-14,14:29:58.949,-215,-213,-208,-202,-201,-203,-195,-193,-195,-185,-192,-189,-188,-179,-178,-168,-164,-163,-160,-154,-151,-149,-144,-134,-136,-138,-137,-129,-127,-121,-124,-117,-105,-106,-75,-74,-69,-77,-84,-89,-83,-82,-87,-85,-84,-93,-68,94,262,258,77,-167,-166,-102,-70,-71,-62,-52,-43,-37,-33,-29,-24,-12,3,7,14,30,36,44,61,74,83,99,118,146,168,180,185,186,183,172,142,106,60,25,-3,-31,-52,-62,-70,-77,-80,-87,-83,-80,-77,-82,-81,-73,-66,-73,-74,-68,-78,-86,-90,-95,-100,-108,-105,-101,-97,-95,-94,-98,-99,-95,-97,-98,-98,-106,-110,-111,-105,-91,-87,-64
2019-05-14,14:29:59.977,-73,-83,-91,-116,-133,-130,-129,-126,-129,-131,-143,-110,65,245,252,33,-231,-226,-157,-131,-137,-131,-127,-122,-121,-108,-105,-101,-98,-93,-89,-90,-83,-63,-50,-37,-30,-16,2,23,53,70,92,103,106,113,103,71,32,-5,-44,-79,-105,-117,-124,-120,-115,-111,-108,-107,-104,-104,-106,-107,-107,-106,-106,-104,-97,-93,-86,-95,-86,-81,-83,-78,-76,-69,-65,-69,-71,-75,-72,-71,-62,-60,-61,-59,-61,-58,-46,-39,-38,-23,-45,-44,-56,-75,-91,-99,-98,-102,-102,-111,-137,-82,107,273,226,-45,-247,-195,-136,-126,-126,-118,-118,-119,-109,-102,-105,-104,-99,-96,-92,-91,-68,-63
2019-05-14,14:30:01.005,-50,-41,-23,-8,14,33,55,81,95,104,107,105,90,52,18,-29,-63,-81,-96,-115,-120,-121,-119,-111,-109,-110,-107,-106,-101,-98,-96,-95,-95,-93,-91,-80,-87,-86,-85,-83,-92,-94,-96,-93,-84,-87,-88,-83,-81,-81,-76,-66,-60,-64,-47,-41,-22,-11,-24,-22,-30,-44,-36,-29,-27,-25,-30,-39,-32,83,241,280,162,-84,-128,-77,-32,-17,-11,-8,-11,-3,5,10,22,23,25,31,37,43,52,61,78,97,114,128,137,149,164,173,182,199,207,195,171,132,93,51,14,-13,-37,-43,-44,-42,-37,-36,-34,-32,-27,-26,-25,-11,-6,0,7,5,7,9
2019-05-14,14:30:02.033,10,16,15,17,12,16,16,15,16,9,6,13,17,20,20,15,33,54,68,93,83,79,69,49,30,27,33,34,31,31,19,75,228,344,297,73,-69,-9,48,60,64,72,75,82,79,69,67,68,65,70,82,88,93,108,123,130,142,161,186,213,243,272,286,299,304,305,295,264,222,188,155,131,115,102,93,86,87,90,89,93,103,103,99,106,108,110,102,101,94,97,104,106,98,96,92,91,82,80,75,75,74,75,71,76,76,71,67,81,95,110,122,106,100,86,73,65,59,51,59,63,57,45,132,314,418,328,61,-37
2019-05-14,14:30:03.061,42,93,100,97,96,111,113,107,107,108,119,121,134,136,138,158,161,167,178,195,215,238,274,297,310,320,328,320,303,284,248,200,167,136,110,97,90,86,78,73,70,67,69,68,63,66,66,56,57,61,61,58,70,68,70,73,69,63,58,63,54,54,54,51,49,51,46,35,25,26,42,49,75,64,52,38,12,1,-3,-4,-2,-4,-6,-17,46,202,310,267,65,-86,-44,7,26,28,28,37,43,50,52,55,52,46,64,79,92,105,114,122,130,149,167,184,207,230,249,262,273,276,272,256,232,200,170,140,119,106,91,82
2019-05-14,14:30:04.089,81,85,89,94,103,113,122,132,150,162,164,174,182,189,192,194,199,204,209,211,211,215,212,210,215,214,215,218,215,213,223,251,259,285,280,284,269,253,250,248,242,246,241,244,246,291,439,566,546,359,177,209,260,284,287,285,288,301,304,311,316,321,316,323,341,353,364,377,387,401,416,438,464,491,518,536,541,551,562,578,576,564,536,511,496,485,473,474,486,498,505,514,531,532,533,542,549,549,552,555,548,552,553,554,556,563,562,565,571,568,568,578,572,568,582,594,596,596,600,607,605,620,638,633,670,667,666,660
2019-05-14,14:30:05.117,656,652,656,650,651,651,658,657,692,845,1008,1007,803,610,647,712,735,731,739,738,747,749,747,743,749,756,764,773,789,799,811,821,829,837,855,870,895,916,935,943,954,953,942,926,892,851,808,770,743,722,710,695,684,684,685,687,689,690,699,696,697,698,690,684,680,673,672,680,683,677,672,666,668,665,659,656,662,660,659,661,658,652,637,632,633,627,610,624,626,645,652,644,628,610,585,575,563,556,550,540,528,519,621,777,824,713,474,433,501,562,583,590,592,601,607,610,612,619,630,641,652,666,674,690,701,721,731,744
2019-05-14,14:30:06.145,773,795,820,836,845,849,852,850,846,839,812,781,753,739,724,714,712,712,713,711,711,708,707,711,712,714,706,707,706,714,717,714,711,711,711,714,719,712,706,708,697,688,687,681,658,632,620,601,597,596,592,598,626,655,680,705,695,693,683,664,653,649,651,653,645,639,620,693,874,998,915,633,501,554,605,617,621,626,628,622,627,629,636,638,644,661,665,676,684,701,712,729,761,788,809,845,871,891,897,894,881,863,842,808,762,712,668,637,613,599,592,582,579,578,566,553,545,539,547,550,546,541,539,542,547,548,554,555
2019-05-14,14:30:07.173,563,559,562,549,541,531,530,540,535,536,534,541,547,532,525,523,522,512,506,533,521,544,539,518,506,487,480,477,466,464,461,459,444,483,683,879,868,609,349,382,448,479,488,497,492,494,491,494,510,514,516,538,553,576,614,637,663,698,735,765,791,832,872,899,929,954,971,976,974,948,912,874,836,796,776,760,747,742,755,758,758,770,769,757,758,751,752,733,742,736,726,725,712,704,709,703,686,680,667,661,645,630,609,600,581,567,559,552,546,543,536,532,515,508,523,517,539,516,500,484,457,436,437,436,434,440,437,408
2019-05-14,14:30:08.201,438,645,861,851,559,286,317,381,405,410,409,402,392,393,390,389,393,404,418,421,423,425,435,455,465,472,491,510,538,556,581,596,604,604,594,584,559,515,476,436,406,387,379,381,374,373,376,372,366,359,360,362,366,366,366,360,356,348,344,337,337,344,338,330,328,318,316,311,313,306,307,309,298,291,281,282,280,285,282,282,293,299,305,325,309,303,292,273,257,247,240,237,228,221,203,289,500,614,515,213,82,136,188,213,208,205,196,193,201,201,210,215,226,236,239,245,253,270,289,305,320,341,364,396,419,435,447,447
2019-05-14,14:30:09.229,448,436,422,389,350,310,283,265,249,236,231,220,227,235,242,254,249,256,253,258,267,271,281,275,277,285,288,294,298,301,296,281,276,269,266,268,266,265,260,254,255,244,247,259,273,290,297,287,284,278,262,256,263,262,260,260,266,282,403,580,615,500,240,190,234,291,310,309,312,314,313,323,337,345,348,360,370,386,388,406,429,452,475,502,528,558,586,603,616,640,642,639,633,617,585,549,506,479,455,446,437,440,447,450,454,457,457,458,455,459,459,451,446,450,446,451,451,460,448,441,437,428,429,427,428,434,425,424
2019-05-14,14:30:10.257,418,416,422,420,430,442,445,451,460,445,435,426,402,399,407,414,411,403,392,385,496,681,736,608,347,306,379,412,409,410,417,422,424,425,425,420,421,423,430,432,432,445,461,472,491,516,538,568,599,620,641,659,659,657,646,626,589,541,500,471,445,436,424,425,432,429,425,438,441,443,448,453,458,464,465,467,465,467,477,478,471,478,480,479,479,482,479,474,462,460,458,459,450,447,470,475,504,505,500,492,473,458,463,464,472,478,477,461,476,618,808,834,636,372,380,454,472,470,475,482,481,487,493,491,496,508,512,518
2019-05-14,14:30:11.285,524,539,547,559,566,577,593,614,638,665,683,690,700,707,701,686,657,617,574,527,494,469,448,441,439,438,441,444,442,433,436,438,436,437,434,435,438,441,440,427,417,409,398,388,377,369,358,353,348,342,340,336,328,320,312,320,320,335,328,305,302,288,268,261,242,233,229,217,204,198,343,560,620,443,119,81,150,194,191,187,192,187,181,181,178,170,164,169,173,178,181,187,191,198,210,217,227,244,262,270,282,278,274,264,245,215,176,130,89,48,21,8,-9,-8,-10,-15,-14,-18,-19,-24,-20,-30,-27,-30,-36,-39,-50,-48
2019-05-14,14:30:12.313,-46,-44,-54,-70,-85,-83,-87,-91,-102,-105,-107,-113,-114,-117,-111,-110,-88,-77,-92,-102,-109,-115,-111,-106,-115,-118,-118,-129,-132,-21,152,201,86,-185,-266,-222,-167,-147,-148,-144,-139,-137,-135,-131,-125,-118,-107,-100,-90,-74,-64,-57,-47,-34,-18,4,23,47,62,81,87,88,89,83,59,20,-27,-68,-104,-128,-148,-160,-166,-175,-178,-173,-176,-175,-176,-164,-162,-155,-153,-151,-151,-147,-145,-142,-148,-150,-155,-171,-171,-168,-176,-181,-180,-178,-173,-166,-170,-184,-177,-161,-166,-137,-149,-157,-165,-175,-187,-195,-203,-212,-221,-226,-247,-213,-45,137,130,-95,-311,-265,-203,-199,-205,-207
2019-05-14,14:30:13.341,-199,-192,-187,-194,-186,-176,-176,-171,-168,-168,-163,-150,-140,-127,-103,-89,-71,-51,-27,-4,9,11,6,-10,-33,-59,-95,-141,-177,-216,-232,-253,-262,-268,-278,-280,-279,-277,-280,-289,-291,-294,-291,-295,-294,-305,-303,-302,-305,-306,-313,-317,-319,-328,-332,-329,-333,-339,-344,-346,-355,-354,-357,-347,-351,-333,-331,-346,-345,-362,-384,-394,-396,-387,-384,-391,-394,-395,-293,-133,-100,-221,-487,-539,-490,-437,-432,-427,-414,-408,-406,-397,-384,-379,-382,-378,-374,-380,-365,-353,-338,-332,-307,-284,-262,-233,-210,-193,-186,-176,-176,-178,-180,-210,-245,-280,-307,-330,-348,-359,-359,-357,-365,-367,-356,-340,-343,-338
2019-05-14,14:30:14.369,-322,-324,-329,-322,-329,-341,-358,-362,-376,-383,-373,-367,-355,-354,-357,-357,-376,-388,-412,-438,-461,-485,-484,-463,-462,-453,-472,-483,-494,-518,-527,-525,-541,-536,-540,-550,-562,-483,-302,-201,-262,-498,-575,-516,-487,-490,-484,-485,-482,-484,-482,-474,-475,-463,-452,-442,-432,-419,-408,-398,-389,-370,-353,-330,-311,-291,-272,-258,-255,-252,-243,-246,-272,-302,-344,-381,-413,-430,-446,-463,-464,-462,-461,-451,-449,-433,-430,-419,-416,-416,-420,-417,-427,-432,-423,-429,-435,-430,-435,-439,-433,-435,-437,-441,-440,-445,-444,-449,-443,-430,-419,-404,-400,-409,-414,-429,-461,-469,-472,-470,-461,-464,-479,-493,-431,-269,-184,-270
2019-05-14,14:30:15.397,-518,-581,-509,-474,-477,-474,-461,-470,-472,-466,-461,-464,-447,-448,-450,-431,-434,-435,-434,-414,-395,-384,-365,-340,-323,-303,-293,-290,-295,-276,-291,-315,-345,-371,-403,-425,-448,-470,-474,-474,-484,-490,-483,-469,-462,-452,-436,-425,-415,-401,-383,-369,-361,-353,-351,-348,-340,-339,-347,-362,-378,-389,-394,-396,-414,-436,-433,-442,-447,-432,-431,-408,-410,-436,-451,-466,-487,-495,-507,-515,-512,-509,-515,-478,-363,-198,-159,-397,-608,-595,-552,-542,-553,-556,-549,-549,-541,-534,-533,-524,-513,-519,-495,-474,-464,-443,-438,-436,-422,-415,-401,-385,-373,-349,-354,-357,-354,-354,-367,-401,-440,-490,-521,-535,-552,-570,-582,-596
2019-05-14,14:30:16.425,-605,-599,-609,-623,-635,-646,-652,-665,-665,-667,-676,-676,-672,-678,-676,-673,-678,-696,-700,-708,-719,-709,-703,-700,-686,-684,-678,-668,-668,-657,-638,-614,-600,-594,-596,-614,-626,-642,-645,-647,-655,-650,-658,-662,-592,-403,-285,-415,-722,-785,-743,-711,-717,-724,-729,-726,-720,-715,-715,-714,-716,-719,-713,-709,-701,-699,-692,-691,-676,-664,-653,-634,-615,-592,-566,-554,-560,-589,-597,-627,-667,-705,-747,-768,-796,-816,-831,-838,-836,-839,-852,-867,-870,-885,-893,-906,-920,-925,-925,-933,-928,-918,-902,-886,-876,-866,-854,-846,-838,-826,-829,-824,-817,-812,-791,-775,-773,-764,-742,-748,-726,-737,-740,-759,-770,-768,-764,-754
2019-05-14,14:30:17.453,-751,-748,-749,-765,-729,-538,-318,-287,-583,-806,-770,-704,-686,-676,-664,-656,-655,-642,-635,-634,-638,-635,-636,-635,-625,-624,-618,-604,-585,-570,-551,-519,-492,-471,-447,-444,-449,-452,-450,-456,-482,-517,-563,-601,-637,-657,-674,-671,-665,-662,-652,-633,-632,-623,-622,-611,-610,-605,-610,-605,-595,-599,-605,-594,-578,-570,-560,-543,-529,-524,-532,-546,-566,-565,-559,-545,-542,-549,-545,-540,-534,-521,-546,-554,-577,-605,-625,-619,-621,-613,-592,-590,-598,-532,-319,-143,-199,-505,-604,-539,-497,-503,-513,-522,-530,-539,-549,-538,-526,-522,-521,-522,-510,-498,-483,-469,-449,-424,-404,-376,-343,-322,-299,-281,-271,-286,-290,-289
2019-05-14,14:30:18.481,-309,-337,-372,-411,-445,-461,-473,-482,-488,-480,-473,-472,-470,-467,-457,-459,-446,-427,-431,-439,-439,-446,-455,-464,-478,-492,-516,-536,-540,-525,-511,-513,-516,-509,-506,-513,-506,-508,-513,-501,-505,-487,-495,-502,-507,-522,-529,-518,-513,-501,-491,-478,-475,-425,-218,-2,-11,-341,-533,-496,-446,-421,-423,-407,-408,-407,-395,-395,-392,-380,-380,-381,-380,-373,-368,-373,-354,-340,-315,-296,-268,-253,-225,-208,-205,-200,-199,-213,-231,-253,-301,-341,-384,-411,-436,-445,-447,-445,-439,-429,-420,-419,-407,-392,-388,-403,-406,-395,-390,-387,-391,-389,-392,-397,-393,-400,-401,-406,-418,-418,-413,-419,-426,-412,-414,-407,-402,-407
2019-05-14,14:30:19.509,-423,-430,-440,-445,-445,-437,-428,-428,-440,-442,-318,-126,-75,-224,-477,-525,-506,-455,-438,-444,-452,-446,-440,-447,-457,-450,-446,-441,-432,-430,-421,-409,-401,-376,-353,-339,-321,-301,-281,-266,-260,-245,-252,-252,-254,-271,-306,-330,-356,-383,-411,-418,-419,-419,-422,-417,-406,-411,-404,-395,-389,-382,-384,-386,-388,-384,-376,-389,-389,-391,-402,-399,-398,-405,-407,-397,-398,-402,-400,-386,-377,-370,-344,-364,-374,-382,-397,-409,-416,-409,-417,-420,-427,-453,-366,-87,128,45,-328,-498,-478,-442,-415,-411,-412,-403,-402,-411,-410,-399,-395,-390,-379,-376,-362,-350,-341,-328,-306,-290,-272,-246,-231,-212,-196,-184,-186,-190
2019-05-14,14:30:20.537,-179,-189,-222,-278,-311,-330,-358,-373,-380,-387,-381,-381,-378,-364,-372,-373,-389,-397,-387,-388,-364,-349,-344,-337,-321,-310,-301,-293,-288,-279,-274,-272,-261,-259,-255,-241,-266,-285,-308,-333,-338,-345,-343,-357,-369,-377,-415,-320,-38,165,74,-340,-571,-552,-512,-486,-484,-489,-501,-501,-496,-497,-496,-490,-483,-483,-460,-453,-444,-425,-427,-409,-387,-355,-323,-289,-265,-240,-234,-248,-245,-260,-302,-339,-392,-446,-482,-521,-548,-567,-582,-585,-594,-606,-611,-621,-625,-630,-624,-625,-621,-620,-619,-618,-613,-624,-630,-635,-635,-635,-645,-633,-624,-623,-606,-613,-633,-642,-674,-688,-701,-705,-722,-727,-728,-726,-766,-678
2019-05-14,14:30:21.565,-381,-114,-165,-565,-826,-820,-782,-774,-783,-793,-806,-810,-833,-831,-830,-832,-830,-819,-813,-806,-804,-802,-796,-781,-761,-740,-705,-682,-657,-634,-627,-630,-627,-648,-685,-730,-772,-797,-831,-864,-886,-878,-882,-877,-878,-878,-876,-877,-877,-871,-870,-862,-852,-841,-835,-833,-834,-838,-827,-804,-795,-787,-757,-736,-721,-743,-760,-789,-804,-808,-810,-805,-799,-803,-808,-808,-648,-428,-370,-546,-834,-853,-791,-752,-736,-741,-742,-735,-714,-700,-690,-684,-665,-658,-643,-631,-611,-602,-594,-574,-553,-522,-495,-461,-424,-405,-389,-375,-372,-370,-386,-422,-458,-493,-516,-542,-559,-568,-578,-579,-571,-573,-568,-565,-562,-558,-555,-548
2019-05-14,14:30:22.593,-541,-532,-531,-533,-536,-516,-519,-517,-515,-511,-496,-477,-465,-440,-423,-422,-434,-461,-478,-485,-488,-488,-483,-480,-480,-498,-471,-296,-70,-52,-281,-540,-519,-451,-430,-427,-431,-428,-422,-419,-420,-418,-424,-422,-421,-406,-389,-374,-361,-348,-331,-312,-293,-270,-238,-219,-190,-172,-153,-143,-150,-169,-205,-239,-282,-310,-337,-362,-363,-340,-359,-345,-330,-323,-325,-323,-319,-314,-331,-350,-348,-352,-354,-361,-366,-363,-358,-370,-381,-398,-401,-413,-405,-400,-395,-401,-379,-404,-434,-458,-487,-526,-512,-511,-514,-517,-505,-525,-487,-310,-124,-149,-382,-643,-626,-586,-541,-547,-548,-534,-525,-529,-509,-503,-500,-489,-477,-454
2019-05-14,14:30:23.621,-442,-435,-422,-412,-391,-383,-369,-347,-324,-317,-307,-303,-304,-313,-318,-346,-392,-424,-462,-511,-540,-551,-567,-596,-595,-598,-601,-593,-601,-606,-603,-605,-626,-618,-625,-630,-637,-631,-636,-639,-643,-652,-659,-667,-675,-680,-672,-669,-667,-660,-653,-664,-674,-691,-717,-729,-740,-746,-748,-742,-750,-775,-697,-512,-377,-460,-728,-839,-765,-724,-724,-723,-715,-714,-706,-699,-694,-684,-679,-677,-663,-651,-636,-619,-602,-580,-556,-510,-467,-425,-387,-352,-324,-307,-290,-275,-265,-259,-283,-301,-311,-331,-333,-324,-298,-294,-298,-283,-281,-281,-274,-277,-271,-264,-249,-232,-203,-181,-167,-164,-165,-166,-173,-184,-191,-189,-203,-210
2019-05-14,14:30:24.649,-188,-196,-197,-186,-169,-167,-166,-156,-160,-158,-149,-134,-114,-118,-103,-109,-83,80,294,304,83,-180,-157,-91,-60,-54,-30,-18,12,15,30,36,47,21,5,-1,-33,-51,-51,-38,-17,24,56,104,169,185,190,211,202,201,186,181,157,127,86,49,20,9,2,3,4,21,30,35,45,46,64,75,93,113,125,134,129,127,118,130,142,145,152,160,162,154,165,193,197,191,180,159,141,143,146,148,147,152,147,128,189,377,515,453,187,18,41,101,129,130,137,142,131,133,144,146,139,145,143,155,158,163,169,175,187,210,227,252,284,307,325,338
2019-05-14,14:30:25.677,335,332,322,292,244,210,181,155,135,118,98,81,75,86,89,81,85,79,81,83,70,54,50,37,22,6,-4,-32,-56,-64,-78,-89,-93,-99,-107,-113,-124,-141,-129,-128,-130,-118,-88,-80,-87,-91,-127,-156,-164,-175,-191,-206,-222,-244,-276,-179,15,150,59,-220,-322,-278,-227,-210,-204,-198,-199,-193,-197,-212,-230,-251,-269,-272,-268,-263,-250,-245,-222,-198,-175,-149,-117,-87,-68,-66,-85,-101,-107,-129,-162,-197,-231,-269,-293,-309,-321,-315,-311,-314,-322,-325,-332,-338,-346,-335,-329,-338,-335,-325,-325,-330,-327,-324,-324,-318,-328,-333,-335,-349,-351,-354,-356,-358,-364,-365,-369,-356
2019-05-14,14:30:26.705,-344,-334,-305,-314,-315,-318,-339,-342,-333,-330,-315,-311,-316,-334,-257,-7,189,141,-184,-379,-341,-287,-266,-262,-246,-232,-218,-202,-197,-191,-184,-173,-153,-139,-118,-94,-78,-57,-47,-34,-8,27,65,87,104,117,125,130,122,107,78,48,10,-28,-41,-50,-62,-51,-53,-51,-58,-51,-47,-52,-43,-40,-37,-20,-17,-11,-12,-10,-12,-16,-30,-28,-42,-37,-35,-31,-31,-35,-32,-37,-38,-34,-42,-28,-5,3,29,37,31,26,17,3,-5,-7,-7,-5,-5,-3,1,189,479,581,357,-5,-47,8,51,60,58,47,51,53,52,56,50,51,58,72,87,96,113,129,137,160
2019-05-14,14:30:27.733,178,215,230,267,293,304,326,331,325,319,290,250,208,168,137,111,91,88,79,73,69,73,72,80,89,91,97,99,87,93,90,87,93,100,95,90,92,87,82,88,89,91,95,97,91,85,75,74,68,73,75,85,100,77,70,56,44,39,36,39,46,51,44,23,167,459,621,467,76,-37,4,49,61,52,50,42,40,33,30,40,46,53,53,69,80,87,101,107,123,144,165,187,213,242,258,256,254,257,246,225,191,153,111,85,59,47,46,45,36,33,36,38,32,28,34,36,38,45,46,43,44,41,37,40,34,38,39,37
2019-05-14,14:30:28.761,32,32,39,34,37,40,41,40,42,41,34,42,45,66,69,68,67,57,43,31,29,31,40,42,27,36,182,369,415,260,-35,-63,-9,44,60,67,68,68,71,77,80,82,94,104,118,132,142,156,172,183,200,221,249,272,299,330,358,366,369,371,368,349,312,274,235,209,189,171,166,168,168,162,170,178,178,182,185,186,190,196,204,203,200,198,204,206,201,190,192,189,188,190,195,192,185,183,178,174,177,173,173,180,189,214,204,199,186,173,165,162,158,156,154,155,135,196,386,541,495,238,48,80,127,139,141,142,142,147
2019-05-14,14:30:29.789,150,155,159,157,161,162,166,175,170,183,188,201,216,233,257,278,306,340,351,346,354,359,345,317,275,235,201,175,155,142,144,140,139,141,151,158,166,171,177,182,187,186,183,180,176,170,170,176,171,171,171,180,186,175,176,182,183,173,165,162,165,165,160,154,177,178,189,182,174,167,159,144,146,149,154,157,158,142,161,336,555,585,368,75,64,112,132,121,115,116,111,109,109,116,119,120,121,126,128,128,135,143,159,176,204,225,243,266,290,302,306,300,296,274,241,198,149,109,71,42,33,30,26,26,29,24,17,20
2019-05-14,14:30:30.817,20,14,12,11,12,14,10,7,10,8,11,0,-14,-25,-21,-17,-25,-24,-26,-30,-36,-46,-54,-58,-67,-75,-74,-82,-74,-62,-38,-28,-47,-57,-69,-78,-85,-87,-93,-98,-104,-111,-118,35,268,350,179,-154,-209,-148,-109,-115,-129,-122,-113,-105,-100,-92,-87,-86,-76,-59,-78,-52,-43,-47,-26,-18,-6,19,47,76,95,116,123,126,121,110,83,52,24,-18,-52,-75,-86,-85,-82,-83,-80,-76,-73,-70,-54,-46,-51,-60,-63,-62,-63,-65,-59,-63,-65,-66,-71,-72,-69,-78,-85,-88,-82,-78,-83,-76,-72,-72,-74,-71,-73,-72,-51,-48,-30,-23,-36,-40,-52,-73
2019-05-14,14:30:31.845,-80,-82,-82,-80,-83,-95,-92,85,341,424,210,-122,-140,-80,-48,-47,-42,-41,-41,-36,-32,-34,-30,-27,-23,-11,-7,-4,11,16,20,31,52,69,90,113,136,151,167,170,169,156,136,96,43,7,-32,-60,-75,-90,-103,-111,-112,-113,-110,-103,-101,-102,-99,-98,-99,-103,-107,-112,-114,-116,-125,-135,-132,-131,-138,-144,-141,-142,-148,-147,-143,-147,-140,-135,-139,-146,-144,-136,-138,-120,-110,-124,-127,-130,-150,-158,-156,-153,-155,-156,-155,-152,-10,190,232,60,-225,-244,-197,-140,-127,-122,-119,-109,-86,-73,-62,-47,-50,-47,-36,-34,-20,-13,1,9,24,42,68,90,111,121
2019-05-14,14:30:32.873,143,159,166,169,156,139,111,68,31,-5,-30,-43,-54,-52,-42,-23,-24,-13,-18,-15,-5,3,4,9,13,18,20,11,10,11,22,20,19,11,7,8,9,12,15,4,8,13,14,32,40,68,61,58,48,34,27,24,35,38,46,59,51,124,283,392,325,90,-92,-100,-116,-145,-209,-280,-357,-416,-483,-544,-590,-636,-673,-719,-757,-785,-818,-851,-870,-884,-901,-905,-894,-883,-902,-914,-926,-958,-985,-1018,-1056,-1097,-1146,-1186,-1227,-1258,-1285,-1314,-1320,-1318,-1326,-1324,-1325,-1329,-1339,-1346,-1347,-1349,-1364,-1367,-1357,-1374,-1366,-1369,-1372,-1383,-1381,-1387,-1391,-1388,-1389,-1398,-1398,-1404,-1402,-1391
2019-05-14,14:30:33.901,-1379,-1354,-1369,-1380,-1375,-1389,-1396,-1399,-1397,-1402,-1385,-1368,-1379,-1341,-1209,-1094,-1116,-1270,-1458,-1461,-1420,-1386,-1376,-1373,-1352,-1364,-1355,-1351,-1356,-1349,-1345,-1345,-1326,-1317,-1304,-1304,-1287,-1272,-1262,-1239,-1230,-1202,-1183,-1173,-1150,-1138,-1128,-1137,-1142,-1167,-1203,-1236,-1257,-1271,-1291,-1297,-1296,-1290,-1293,-1292,-1286,-1283,-1283,-1262,-1261,-1268,-1251,-1227,-1216,-1215,-1204,-1196,-1197,-1192,-1189,-1184,-1167,-1176,-1171,-1162,-1141,-1136,-1118,-1109,-1115,-1107,-1119,-1130,-1120,-1113,-1101,-1094,-1095,-1096,-1095,-1021,-881,-800,-863,-1060,-1136,-1089,-1060,-1052,-1053,-1043,-1037,-1021,-1022,-1009,-1007,-992,-992,-981,-971,-961,-946,-934,-909,-896,-875,-847,-829,-797,-768,-761,-749,-742
2019-05-14,14:30:34.929,-760,-770,-787,-811,-842,-876,-898,-909,-924,-935,-929,-922,-911,-911,-909,-903,-904,-896,-889,-881,-875,-865,-853,-857,-857,-855,-862,-863,-867,-868,-868,-866,-861,-853,-854,-832,-825,-833,-834,-832,-842,-844,-846,-835,-845,-840,-838,-845,-795,-674,-576,-608,-776,-891,-845,-795,-778,-769,-760,-750,-752,-744,-738,-726,-727,-722,-719,-716,-699,-700,-687,-685,-673,-650,-632,-612,-590,-575,-562,-549,-548,-542,-540,-554,-574,-602,-630,-656,-672,-687,-700,-706,-705,-711,-714,-711,-702,-696,-698,-691,-681,-678,-670,-666,-664,-657,-657,-655,-658,-652,-659,-661,-664,-667,-668,-666,-649,-633,-628,-600,-593,-601,-605,-617,-629,-635,-640,-635
2019-05-14,14:30:35.957,-627,-625,-635,-626,-521,-383,-367,-484,-684,-688,-644,-614,-613,-608,-597,-596,-590,-579,-577,-575,-572,-571,-564,-561,-560,-558,-552,-542,-525,-516,-504,-486,-470,-461,-444,-445,-466,-483,-493,-516,-561,-611,-645,-666,-680,-692,-705,-704,-699,-702,-708,-709,-706,-703,-704,-703,-707,-711,-703,-707,-713,-712,-709,-708,-706,-717,-725,-728,-726,-714,-717,-716,-713,-716,-718,-709,-705,-691,-677,-689,-690,-694,-706,-710,-710,-709,-703,-697,-695,-703,-621,-462,-390,-486,-728,-787,-724,-677,-661,-650,-646,-641,-640,-643,-638,-635,-623,-609,-602,-597,-596,-586,-580,-570,-560,-544,-528,-509,-483,-464,-445,-431,-420,-421,-420,-435,-467,-495
2019-05-14,14:30:36.985,-519,-545,-566,-580,-584,-589,-585,-584,-585,-583,-580,-575,-570,-567,-563,-567,-565,-561,-560,-561,-559,-562,-575,-582,-590,-598,-600,-611,-611,-605,-607,-620,-627,-621,-619,-627,-614,-611,-594,-592,-599,-608,-629,-646,-653,-655,-649,-646,-653,-673,-667,-526,-345,-309,-501,-775,-769,-705,-679,-685,-684,-679,-684,-680,-685,-688,-689,-691,-685,-686,-680,-672,-663,-652,-638,-627,-603,-578,-554,-531,-503,-496,-495,-489,-497,-506,-535,-578,-621,-666,-713,-765,-805,-811,-822,-836,-843,-849,-856,-864,-864,-870,-876,-891,-902,-906,-905,-907,-908,-920,-920,-930,-940,-943,-943,-939,-962,-960,-966,-976,-976,-982,-989,-989,-991,-1000,-989,-983
2019-05-14,14:30:38.013,-960,-954,-970,-965,-980,-996,-995,-1009,-1014,-1016,-1022,-1042,-1046,-884,-620,-502,-722,-1096,-1138,-1080,-1025,-1030,-1023,-1019,-1005,-996,-993,-986,-992,-982,-963,-954,-942,-927,-928,-927,-900,-895,-866,-852,-822,-803,-776,-771,-763,-761,-770,-775,-798,-829,-870,-917,-951,-983,-1008,-1025,-1040,-1034,-1048,-1052,-1050,-1046,-1046,-1047,-1042,-1039,-1029,-1029,-1026,-1013,-1008,-1005,-996,-1001,-1008,-1000,-1003,-991,-986,-983,-973,-970,-965,-957,-960,-962,-955,-931,-925,-887,-882,-898,-899,-905,-919,-912,-900,-893,-886,-884,-905,-875,-647,-431,-442,-722,-984,-945,-882,-830,-811,-812,-802,-796,-802,-791,-769,-758,-738,-738,-730,-718,-696,-680,-664,-632,-606,-576
2019-05-14,14:30:39.041,-545,-508,-475,-452,-435,-424,-417,-407,-414,-446,-467,-496,-512,-525,-541,-546,-546,-541,-540,-529,-523,-513,-491,-481,-478,-469,-450,-438,-432,-425,-418,-398,-382,-385,-363,-363,-356,-356,-347,-336,-341,-319,-307,-299,-283,-269,-240,-220,-214,-197,-199,-209,-201,-187,-172,-164,-162,-159,-136,-12,179,243,150,-116,-171,-128,-78,-59,-53,-46,-44,-35,-19,-20,-11,1,3,17,34,55,58,76,93,100,111,139,154,169,195,205,209,222,222,216,196,164,136,110,86,77,70,71,50,61,60,71,78,87,80,85,105,135,154,169,184,197,210,217,229,237,243,253,259,262,281,299,309,329
2019-05-14,14:30:40.069,342,374,392,389,393,390,397,403,407,411,398,397,381,383,426,539,671,650,477,302,320,353,383,395,389,391,397,390,404,408,407,413,403,402,410,426,431,452,464,481,506,526,556,592,613,621,628,639,629,608,590,559,533,522,486,474,472,460,460,463,467,466,474,480,488,492,502,500,512,515,529,527,530,530,540,541,537,544,551,560,576,610,616,623,608,591,571,557,553,534,543,553,550,530,562,688,781,762,619,457,483,529,563,578,598,590,602,615,635,642,637,658,655,670,695,698,718,732,743,758,792,820,833,859,880,892,889,897
2019-05-14,14:30:41.097,895,876,863,814,781,761,735,711,703,709,697,691,690,693,701,733,746,757,786,799,809,825,846,879,884,879,892,895,906,922,939,956,982,1009,1015,1017,1001,992,976,993,993,996,1022,1032,1042,1142,1265,1298,1205,1012,998,1034,1074,1088,1088,1107,1112,1123,1128,1129,1146,1150,1167,1182,1198,1197,1218,1227,1240,1256,1275,1291,1314,1333,1352,1376,1378,1380,1383,1375,1356,1334,1309,1285,1271,1264,1260,1252,1246,1251,1247,1243,1238,1248,1237,1247,1242,1244,1240,1255,1257,1248,1247,1243,1238,1243,1250,1252,1246,1249,1250,1242,1253,1267,1275,1296,1302,1299,1288,1273,1258,1245,1243,1251,1246,1247,1235,1236
2019-05-14,14:30:42.125,1284,1405,1470,1411,1242,1153,1193,1234,1242,1244,1244,1252,1254,1251,1252,1249,1252,1244,1248,1246,1254,1256,1271,1281,1292,1294,1306,1319,1340,1350,1365,1374,1379,1378,1372,1351,1309,1272,1234,1199,1167,1152,1147,1135,1131,1123,1113,1112,1104,1102,1097,1097,1097,1092,1091,1083,1081,1071,1073,1079,1082,1075,1076,1073,1070,1065,1068,1066,1066,1063,1051,1051,1049,1061,1070,1066,1080,1075,1066,1059,1015,986,961,932,916,904,889,866,846,894,1002,1086,1027,820,670,702,731,721,706,701,688,681,674,663,656,646,638,637,638,623,613,616,615,620,633,647,659,672,689,703,702,706,699,687,657,606,554,510
2019-05-14,14:30:43.153,489,467,447,440,433,429,425,420,418,414,420,412,406,402,411,410,402,394,391,383,382,377,377,382,385,375,370,369,370,365,367,357,356,358,354,342,341,343,336,325,322,333,330,345,351,363,382,380,378,354,326,313,298,285,277,262,250,231,224,338,517,558,407,138,106,174,202,190,177,175,173,172,168,168,173,175,174,178,183,185,192,204,219,240,265,286,304,328,345,357,369,366,356,341,314,273,220,184,149,124,98,79,69,59,54,47,34,43,39,36,33,28,20,14,13,4,-2,-6,-7,-12,-10,-10,-19,-17,-25,-25,-31,-36
2019-05-14,14:30:44.181,-32,-30,-24,-21,-25,-24,-25,-30,-33,-40,-50,-56,-48,-44,-49,-32,-24,0,19,16,4,-24,-54,-65,-67,-69,-68,-70,-71,-94,-67,106,326,343,100,-180,-156,-91,-83,-79,-84,-96,-88,-84,-81,-73,-64,-57,-52,-48,-43,-38,-32,-32,-24,-16,-14,-3,21,42,69,90,99,103,103,94,73,30,-10,-47,-76,-89,-102,-110,-113,-112,-106,-102,-101,-88,-96,-85,-76,-73,-69,-56,-54,-56,-55,-53,-60,-59,-63,-57,-66,-70,-69,-67,-71,-65,-63,-74,-71,-78,-80,-72,-67,-68,-59,-60,-61,-62,-64,-71,-64,-71,-38,-46,-56,-60,-72,-78,-78,-79,-95,-86,-87,-92
2019-05-14,14:30:45.209,-7,173,269,201,-48,-169,-127,-72,-42,-34,-37,-23,-5,-3,-5,-2,3,8,19,20,28,42,50,72,86,97,105,124,148,170,187,196,210,203,204,201,172,132,99,80,46,42,35,32,25,22,18,27,35,39,45,50,56,63,62,60,50,57,65,60,59,52,42,35,41,45,42,39,44,40,37,39,53,57,67,65,66,66,67,75,82,104,91,94,96,80,75,76,73,76,70,66,64,119,266,363,316,105,-22,3,43,67,70,62,70,76,90,99,108,97,93,104,116,119,129,145,152,167,188,208,228,247,266,284,300,302,306,313
