2019-05-14,15:38:37.770,-93,-97,-98,-97,-98,-98,-100,-102,-100,-102,-103,-107,-109,-108,-109,-109,-108,-109,-109,-111,-109,-109,-111,-116,-111,-108,-110,-108,-105,-103,-105,-104,-102,-102,-103,-103,-100,-97,-94,-94,-88,-77,-84,-90,-82,-62,-76,-76,-84,-80,-87,-85,-87,-88,-86,-88,-86,-81,-88,-53,56,363,808,787,253,-349,-423,-370,-293,-189,-95,-54,-30,-14,2,15,21,37,50,66,80,102,121,144,175,209,247,281,314,342,364,377,378,361,329,279,220,164,113,71,42,23,8,-2,-8,-9,-8,-11,-13,-10,-6,-7,-5,-2,2,4,7,8,5,8,5,1,-7,-4,-5,-4,-6,-10
2019-05-14,15:38:38.798,-15,-16,-20,-20,-21,-22,-19,-22,-22,-23,-26,-22,-20,-17,-21,-20,-14,-13,-13,-15,-18,-13,-11,-14,-17,-11,-11,-11,-9,-8,-3,-4,-1,13,8,-3,-5,16,10,3,-2,-1,-3,-5,-5,-2,4,9,10,9,10,41,137,404,828,892,408,-225,-325,-282,-215,-123,-19,31,55,69,84,94,112,119,129,139,151,169,186,209,237,270,307,342,370,391,409,422,422,414,386,336,283,228,180,141,106,85,70,59,56,50,41,40,41,40,41,41,44,44,45,46,49,51,52,52,53,54,49,52,47,49,50,41,40,41,39,38,35,39,40,44
2019-05-14,15:38:39.826,36,34,37,38,36,38,41,44,39,40,43,44,45,44,44,45,48,49,51,53,52,50,54,66,64,60,56,76,75,64,58,57,53,46,49,55,57,60,59,61,59,80,158,382,812,964,561,-106,-284,-239,-176,-86,21,72,102,122,136,146,158,168,180,196,213,229,250,276,299,334,370,406,439,462,484,498,504,493,461,415,356,296,243,202,168,140,119,111,102,101,94,87,86,90,91,92,93,100,105,106,104,108,111,109,113,117,117,118,117,114,112,112,108,106,109,110,107,109,110,109,107,106,104,104,106,108,103,101,99,99
2019-05-14,15:38:40.854,96,97,99,95,99,100,99,99,96,96,100,101,104,103,108,113,117,124,120,113,115,136,133,123,119,116,107,100,100,104,102,104,101,102,104,112,192,419,869,1041,654,-27,-246,-204,-137,-44,57,110,138,156,170,179,188,196,205,216,231,247,267,293,318,349,384,416,453,483,503,518,528,522,488,436,375,317,262,219,184,158,146,134,127,124,118,115,114,112,113,110,112,113,114,116,115,118,119,118,119,116,113,113,112,111,107,105,108,102,105,101,103,101,101,99,97,99,98,98,95,97,97,100,97,98,96,98,96,93,95,96
2019-05-14,15:38:41.882,93,94,88,90,89,82,81,81,86,87,88,87,97,95,89,86,107,92,88,83,86,82,79,81,82,83,85,86,89,87,107,198,456,904,992,540,-131,-256,-204,-142,-49,53,105,130,144,154,166,178,188,195,203,220,240,261,285,314,343,376,411,437,461,481,489,494,487,460,413,361,308,254,208,174,147,130,120,111,106,103,100,98,97,95,90,93,100,108,106,103,109,111,111,107,107,108,113,110,113,105,100,102,100,100,99,100,98,97,99,98,94,94,92,92,93,91,88,85,88,85,83,86,85,84,83,87,90,93,86,84
2019-05-14,15:38:42.910,79,88,84,74,77,95,83,79,74,73,69,69,71,69,71,70,71,78,78,109,208,453,871,918,463,-145,-260,-219,-152,-62,37,86,112,128,141,156,166,178,188,198,212,231,252,272,296,328,363,396,426,450,472,483,486,472,437,390,334,280,226,185,154,132,119,108,97,91,87,85,83,85,86,84,86,90,94,99,97,99,100,101,101,96,94,95,95,91,85,89,86,79,76,78,74,71,71,68,70,72,70,64,63,64,65,62,58,60,60,57,57,54,55,49,47,48,43,43,43,41,38,38,35,35,45,43,40,38,57,51
2019-05-14,15:38:43.938,43,39,43,35,33,34,35,37,40,40,42,41,55,131,341,769,961,592,-76,-313,-266,-199,-111,-1,55,79,99,117,127,142,152,164,177,186,203,219,244,274,305,344,380,415,443,467,482,490,482,455,411,355,292,235,189,156,130,111,103,93,83,83,81,82,79,81,82,82,84,89,94,94,97,103,104,110,112,110,109,108,108,108,105,103,107,101,99,94,93,96,94,95,90,90,89,87,90,85,78,80,79,82,84,82,78,75,80,77,77,80,81,79,78,81,76,78,80,77,74,79,88,83,77,78,97,92,85,81,79,66
2019-05-14,15:38:44.966,66,73,73,72,73,77,73,74,94,178,406,840,975,566,-106,-286,-239,-175,-79,25,76,101,118,132,143,154,162,174,185,196,216,241,260,285,320,359,401,431,456,475,494,506,498,474,423,367,309,254,209,173,147,130,117,110,105,102,100,97,95,96,98,99,100,107,109,109,108,111,107,105,111,111,110,109,107,107,108,102,102,98,105,98,97,97,95,103,107,103,106,107,112,110,107,118,118,117,116,119,122,118,124,124,126,128,129,132,130,131,126,133,137,128,134,127,138,143,135,137,155,160,150,149,146,143,129,127,124,122
2019-05-14,15:38:45.994,127,125,126,128,127,175,297,650,1048,912,335,-208,-217,-160,-78,38,112,146,158,169,180,184,196,206,217,235,247,268,286,316,348,381,416,454,486,506,532,550,553,543,509,454,397,338,282,239,208,190,176,163,157,152,151,149,151,152,153,156,160,159,164,167,171,172,171,174,176,174,172,172,167,165,163,159,157,155,157,150,145,147,145,142,144,147,143,141,139,137,135,135,135,136,135,134,135,134,130,129,126,124,124,121,123,118,117,119,120,118,115,118,120,125,118,111,118,130,115,107,109,111,99,98,95,93,93,96,96,98
2019-05-14,15:38:47.022,103,123,214,482,928,1013,549,-115,-229,-186,-122,-31,69,116,143,158,168,178,188,200,209,224,238,247,264,288,318,346,380,417,452,477,497,513,512,502,476,432,378,322,269,228,199,173,152,139,136,133,134,132,131,130,132,136,139,139,140,142,145,148,150,154,153,152,150,149,149,147,147,148,149,147,140,141,143,143,140,137,140,143,140,141,145,148,146,149,153,149,156,160,162,164,164,164,168,170,172,172,172,172,173,183,180,172,171,191,182,175,169,173,167,165,160,158,158,158,157,157,156,164,229,400,786,1059,782,133,-181,-156
2019-05-14,15:38:48.050,-108,-26,79,145,182,202,215,230,239,247,257,273,286,301,318,341,365,395,425,461,496,522,541,564,572,565,545,508,456,399,345,297,258,234,216,206,193,190,185,180,178,178,179,185,186,189,190,192,193,196,197,198,201,199,194,192,194,192,192,187,189,185,183,181,181,182,181,176,178,175,176,178,177,173,172,171,169,166,169,168,169,166,165,166,163,165,165,168,168,165,162,160,157,158,169,172,164,161,179,173,167,166,160,155,149,145,146,149,151,154,156,152,155,193,312,648,1058,945,372,-151,-168,-121,-44,63,145,181,198,212
2019-05-14,15:38:49.078,222,233,245,260,271,284,303,323,340,366,398,434,475,510,541,570,591,606,609,593,557,504,444,382,326,285,251,227,209,197,187,179,175,172,175,174,174,176,176,181,181,180,180,176,178,178,176,176,177,179,179,175,171,170,173,170,166,165,160,155,157,156,154,155,151,154,158,159,152,148,146,147,149,150,148,148,149,155,148,147,146,148,151,153,151,151,153,153,154,154,160,173,162,160,167,173,163,161,159,160,148,142,143,141,141,148,149,149,143,153,229,449,891,1087,717,25,-199,-153,-93,-3,107,158,186,203,219,229,232,244
2019-05-14,15:38:50.106,258,268,282,296,315,342,366,400,440,477,511,540,566,582,592,588,568,524,470,411,356,306,268,238,218,203,194,186,184,179,181,182,178,181,184,185,182,188,192,195,196,194,197,195,190,189,192,190,189,190,189,191,183,181,180,180,178,175,176,179,179,182,179,180,187,184,183,186,190,195,193,194,194,194,194,194,193,191,197,194,190,189,190,188,196,203,192,191,198,201,190,187,184,182,170,168,166,166,169,175,176,175,171,183,256,466,889,1089,737,51,-167,-132,-77,7,109,170,197,212,225,232,242,253,260,275,292,308,324,349
2019-05-14,15:38:51.134,378,408,443,475,504,530,548,567,578,571,549,510,467,413,354,309,274,247,227,215,205,202,203,205,199,200,203,204,211,213,217,222,228,232,228,226,229,233,236,237,236,236,239,238,233,232,229,228,221,222,226,223,221,220,213,213,210,211,213,214,219,214,213,210,206,204,206,203,204,203,206,200,200,202,201,207,212,202,203,210,223,211,211,209,205,193,195,193,190,193,197,194,195,196,204,279,471,871,1085,758,109,-144,-105,-53,29,138,200,232,251,265,279,289,304,313,328,345,362,387,410,434,468,502,537,573,605,626,646,656
2019-05-14,15:38:52.162,655,634,593,543,487,431,382,345,320,301,289,282,274,270,271,271,266,261,264,268,270,272,274,276,281,279,277,277,278,279,279,276,274,270,269,264,267,267,266,266,265,266,263,261,263,263,261,262,263,262,263,264,265,263,264,272,276,278,276,279,275,277,278,279,277,275,274,274,272,273,272,278,288,276,275,278,284,276,268,266,258,245,243,239,240,241,242,245,250,243,244,303,472,876,1173,894,236,-114,-71,-16,71,185,245,271,286,299,314,328,339,350,361,378,396,414,437,460,494,528,571,606,635,667,686,697,699,683,647,594
2019-05-14,15:38:53.190,533,477,426,381,349,325,310,297,286,279,280,275,273,280,283,281,282,283,285,285,287,290,290,294,291,288,284,281,282,281,276,278,280,279,272,268,267,270,269,266,262,259,258,257,252,246,246,244,246,245,243,244,239,237,231,233,232,234,236,234,232,235,233,232,237,232,229,233,238,244,247,242,252,256,258,257,257,254,243,232,229,229,229,234,241,244,245,238,233,305,506,943,1227,932,218,-89,-42,17,101,209,274,297,306,335,354,355,363,383,403,407,423,452,473,495,526,561,597,628,656,685,712,713,706,686,661,612,566,473
2019-05-14,15:38:54.218,417,382,357,339,315,307,308,295,283,299,307,304,296,276,291,286,286,292,294,296,288,284,276,285,295,290,289,269,258,253,256,254,259,258,260,241,229,239,249,243,247,233,227,236,230,222,213,227,216,221,213,225,218,209,204,217,212,223,219,214,214,213,222,221,217,224,194,216,207,192,195,183,192,199,200,201,200,191,251,436,847,1188,934,191,-118,-85,-35,34,137,221,256,234,239,260,280,299,318,328,347,364,392,414,407,436,479,523,559,593,619,641,655,654,624,589,544,475,421,377,343,313,293,285,282,276,270,261,262,267
2019-05-14,15:38:55.246,262,269,271,272,276,271,277,283,280,291,296,295,299,296,291,285,287,290,293,290,290,298,290,287,282,288,289,287,287,292,289,296,298,295,290,293,300,292,286,297,305,287,308,286,299,285,283,289,284,304,292,274,294,295,283,275,278,274,266,259,247,249,254,245,244,240,243,233,291,478,927,1295,1017,243,-125,-90,-34,51,170,227,258,270,278,290,310,317,314,342,356,372,379,406,413,445,489,530,569,604,645,651,648,643,610,570,528,472,413,366,332,291,263,251,245,247,247,240,232,245,248,217,209,201,208,215,219,222,224,220
2019-05-14,15:38:56.274,227,235,214,226,177,178,194,196,200,197,200,200,200,199,192,191,191,190,195,196,199,193,195,195,191,199,181,184,177,181,184,185,186,188,193,191,197,223,190,166,196,189,184,196,206,205,195,201,190,169,167,171,175,164,161,169,184,178,175,178,259,512,992,1185,761,9,-175,-132,-58,37,145,195,220,236,250,285,279,265,284,301,316,340,363,386,412,448,481,527,576,590,586,600,622,624,604,561,506,449,394,359,331,280,260,241,213,210,218,218,221,221,221,228,225,225,235,232,234,233,239,237,234,236,236,239,240,230,224,223
2019-05-14,15:38:57.302,230,236,227,231,228,228,238,235,213,220,226,234,233,232,235,247,244,238,232,239,238,241,243,246,261,262,251,249,259,258,257,250,257,257,241,240,233,228,249,236,237,244,246,245,242,303,493,941,1240,951,206,-102,-67,-23,68,184,247,280,296,317,333,331,350,342,364,377,393,419,448,474,504,545,586,615,652,662,685,703,702,684,641,590,528,466,402,361,339,312,299,290,285,282,281,281,286,283,280,274,277,273,278,280,286,293,290,295,295,289,282,280,286,278,263,264,261,263,262,260,259,259,259,260,263,259,257,252,255,247
2019-05-14,15:38:58.329,248,252,254,259,258,260,260,257,256,257,258,263,260,264,277,280,275,281,290,286,277,281,279,263,249,248,252,258,260,261,253,263,258,246,304,506,984,1307,1011,224,-104,-67,0,93,212,263,291,309,326,336,346,359,365,378,398,417,435,461,489,520,554,597,618,648,673,696,708,706,685,644,588,526,474,428,369,333,320,299,293,291,286,282,281,278,279,293,292,273,271,273,286,282,278,282,288,291,297,284,269,281,276,273,279,269,272,280,260,258,259,260,261,262,250,244,253,260,248,248,253,241,249,246,240,243,244,247,245,239
2019-05-14,15:38:59.357,236,238,227,229,225,237,234,228,239,245,230,225,219,203,201,197,198,204,200,207,212,212,203,192,225,407,829,1217,1021,278,-128,-119,-72,7,124,206,224,233,251,265,297,285,301,322,331,351,368,389,419,451,484,516,540,575,605,628,638,632,618,583,532,483,430,364,332,287,270,259,250,247,244,241,242,244,247,238,240,254,247,246,246,263,250,259,244,252,261,253,242,248,247,249,243,237,238,248,249,238,235,249,244,237,232,242,241,233,239,232,240,253,241,239,247,234,234,236,245,233,239,237,249,257,252,245,251,267,262,242
2019-05-14,15:39:00.385,223,239,231,210,216,223,226,228,233,239,238,218,212,289,537,1025,1261,848,65,-118,-72,-6,93,180,225,254,274,279,299,316,320,346,356,376,373,389,422,450,482,520,566,599,640,657,668,654,663,644,603,544,480,424,381,340,319,293,262,261,267,251,254,255,257,257,256,254,257,264,259,274,269,260,240,246,251,252,253,254,255,255,244,247,237,227,238,232,234,234,234,237,231,234,231,227,230,225,231,230,230,229,223,210,231,220,220,228,226,222,231,226,221,224,229,239,233,237,240,245,227,216,217,215,200,209,205,208,217,220
2019-05-14,15:39:01.413,229,218,224,206,223,357,755,1217,1138,460,-114,-105,-53,18,128,210,241,257,276,289,310,322,331,334,364,371,381,406,433,467,495,534,576,611,627,658,661,679,660,617,563,504,457,403,349,326,293,263,263,248,244,235,225,233,239,230,232,234,239,228,221,235,215,219,218,213,219,212,204,201,202,201,198,189,192,187,177,173,181,176,174,162,161,179,168,170,182,176,167,170,172,174,179,178,181,169,172,184,176,169,178,186,181,174,181,183,200,198,184,187,182,177,164,166,170,176,184,174,161,172,179,165,172,282,613,1093,1131,545
2019-05-14,15:39:02.441,-93,-145,-106,-37,36,144,188,216,232,251,279,274,281,302,310,329,345,369,396,431,465,495,552,564,593,632,622,628,626,603,554,505,446,391,358,316,286,275,270,256,248,239,248,246,233,242,245,249,256,254,270,270,245,257,249,251,258,260,258,251,257,259,236,237,240,227,222,221,226,223,223,224,221,226,221,224,212,211,205,220,203,195,200,198,206,206,195,199,225,207,197,202,207,199,196,220,219,206,205,196,197,172,166,171,177,175,181,184,185,180,186,242,472,957,1206,856,65,-176,-131,-68,19,134,192,212,228,239,249,265
2019-05-14,15:39:03.469,280,295,308,332,337,361,388,417,453,485,520,557,587,615,637,646,644,621,579,514,454,395,345,309,282,255,253,228,222,219,211,218,222,220,218,217,220,212,218,226,235,218,217,221,216,219,212,210,211,206,208,205,203,203,195,196,193,196,189,186,186,187,180,182,182,183,186,179,179,180,186,187,186,172,175,169,174,182,172,167,176,194,188,174,172,191,192,185,170,171,154,139,148,147,145,147,150,148,151,134,135,227,500,997,1148,676,-69,-205,-166,-96,-5,95,137,162,187,187,200,221,226,243,248,270,274,306,322,355,395,420
2019-05-14,15:39:04.497,465,501,531,556,567,585,583,555,497,450,385,325,270,240,215,192,186,175,177,175,173,181,155,159,157,164,178,173,172,173,170,175,195,171,170,188,181,177,175,171,155,161,160,160,146,154,155,162,155,151,145,144,148,141,142,146,144,139,138,143,140,134,136,140,132,139,137,135,151,145,153,145,126,146,161,149,144,137,136,126,123,129,129,130,129,138,143,135,124,146,255,586,1050,1076,496,-148,-205,-150,-94,2,103,136,156,176,185,204,228,221,241,250,261,274,296,321,361,406,421,462,497,532,562,569,574,568,533,486,430,351
2019-05-14,15:39:05.525,297,258,234,200,197,179,160,151,157,152,145,143,147,159,163,155,167,160,164,160,161,163,159,162,160,158,167,154,149,148,160,171,142,137,140,154,146,147,142,144,141,135,149,151,141,149,146,140,145,152,156,150,145,143,137,137,142,149,144,140,142,149,163,144,130,145,159,146,132,141,124,121,127,129,122,123,146,125,130,128,122,171,325,750,1168,1006,274,-203,-183,-133,-41,77,137,183,188,198,218,226,241,253,260,275,289,306,334,358,385,431,469,498,531,557,576,590,605,577,536,488,421,360,307,266,233,209,186,176,172,171
2019-05-14,15:39:06.553,159,163,144,154,150,154,160,161,163,157,164,172,174,160,152,155,147,150,154,145,142,143,139,147,142,124,130,136,138,126,122,123,126,130,130,118,121,122,129,122,123,115,121,120,120,115,115,118,121,126,124,121,109,110,116,126,106,108,123,121,129,112,99,92,87,88,86,86,86,92,104,96,91,90,164,371,840,1098,746,-17,-249,-200,-154,-62,44,102,118,146,161,172,178,194,208,221,238,255,275,292,326,359,396,432,465,495,520,539,540,535,512,475,423,371,316,264,240,195,174,157,148,141,136,132,142,130,128,126,125,123
2019-05-14,15:39:07.581,125,130,135,133,135,139,138,135,144,123,136,117,109,112,115,120,123,118,110,109,112,106,101,107,97,115,109,103,107,105,104,97,96,101,102,103,106,108,109,101,105,108,105,103,79,94,97,93,85,87,82,81,63,61,65,64,58,65,75,73,61,57,118,314,754,1077,807,55,-284,-254,-197,-112,4,69,93,113,132,141,152,167,182,194,211,227,247,288,316,331,357,404,449,488,513,564,560,553,524,470,410,357,304,256,218,190,171,157,148,145,142,135,132,128,126,128,125,129,130,135,140,143,138,138,139,141,140,138,134,137
2019-05-14,15:39:08.609,134,133,137,125,106,104,105,109,133,73,96,159,119,81,119,115,133,147,148,137,142,131,135,144,137,129,130,124,131,98,105,112,116,124,137,138,125,106,118,130,127,90,91,97,96,67,68,70,64,57,62,65,59,51,38,52,130,512,1017,987,367,-294,-317,-285,-203,-95,-19,18,34,49,54,60,73,86,99,96,110,114,135,179,197,221,248,300,343,345,338,381,376,391,365,313,255,185,134,93,56,22,-3,-20,-32,-44,-41,-51,-46,-40,-26,-30,-45,-34,-36,-84,-10,-50,-54,-44,-38,-30,-15,-47,-52,-49,-50,-52,-42,-43,-46,-44
2019-05-14,15:39:09.637,-49,-50,-55,-53,-46,-72,-68,-62,-63,-60,-56,-53,-59,-60,-52,-71,-89,-48,-68,-83,-79,-65,-67,-77,-75,-63,-56,-68,-74,-47,-61,-73,-61,-76,-82,-94,-72,-76,-88,-84,-68,-65,-71,-77,-94,-29,150,545,878,628,-96,-415,-399,-347,-267,-146,-82,-48,-33,-11,-6,-2,12,27,40,50,64,93,107,128,156,192,215,256,281,301,311,335,340,321,293,232,176,117,82,45,7,-14,-13,-11,-41,-71,-52,-49,-52,-50,-40,-37,-30,-27,-39,-37,-28,-20,-34,-36,-20,-21,-28,-41,-35,-33,-37,-40,-39,-36,-32,-44,-39,-32,-37,-42,-42,-33,-39,-32,-18,-26
2019-05-14,15:39:10.665,-37,-26,-47,-36,-46,-36,-31,-34,-46,-32,-31,-28,-31,-25,-17,-27,-37,-15,-25,-30,-43,-32,-39,-44,-55,-42,-48,-71,-56,-53,-52,-62,-27,37,310,776,881,416,-275,-405,-363,-286,-194,-86,-44,-12,-24,-2,13,12,33,45,64,83,73,103,142,155,185,222,261,294,324,358,347,367,367,332,284,243,172,121,61,33,15,-5,-7,-36,-45,-43,-43,-58,-46,-48,-53,-51,-41,-49,-42,-41,-29,-34,-38,-50,-43,-47,-39,-43,-45,-47,-36,-51,-49,-50,-52,-54,-48,-45,-64,-57,-55,-57,-64,-67,-50,-54,-70,-66,-65,-65,-57,-66,-64,-64,-60,-55,-71,-77
2019-05-14,15:39:11.693,-70,-64,-53,-63,-64,-58,-43,-50,-61,-60,-67,-80,-84,-81,-72,-72,-79,-67,-73,-67,-73,-48,46,340,813,856,308,-335,-414,-360,-294,-185,-107,-59,-24,-8,-8,-3,13,28,43,53,63,100,113,123,155,196,228,262,290,334,343,354,365,369,337,289,241,184,133,81,48,27,14,-23,-17,-17,-32,-30,-29,-20,-19,-18,-7,-6,-10,-17,-14,-6,-20,-8,-3,1,-9,-14,-10,-5,3,6,-26,-17,-9,-14,-23,-20,-23,-8,-32,-16,-16,-13,-13,-6,-15,-21,-5,-34,-28,-17,-11,-14,-17,-23,-12,-7,-12,-22,-5,-12,-8,-6,-1,6,1,-4,-2,-9
2019-05-14,15:39:12.721,-9,-20,-23,-18,-16,-17,-12,1,-6,-3,18,138,483,929,865,255,-330,-342,-291,-210,-101,-16,22,40,62,67,75,89,97,122,128,149,165,186,211,242,278,302,343,383,416,446,457,460,454,427,387,322,253,221,157,125,107,88,76,60,65,59,56,61,85,60,62,68,74,76,74,73,96,82,72,79,79,81,84,80,73,74,74,76,76,75,67,70,64,66,66,68,73,67,64,72,68,71,82,73,55,63,61,64,68,73,76,78,78,101,75,65,68,80,97,86,83,137,116,74,67,77,69,67,77,85,82,90,83,69,76,68
2019-05-14,15:39:13.749,48,141,372,832,1077,732,-22,-260,-228,-155,-88,34,78,105,122,132,144,162,164,160,189,193,206,231,254,279,305,350,374,399,440,466,469,479,481,482,420,373,318,264,223,175,139,110,90,87,75,79,65,75,84,75,76,73,72,88,88,71,78,88,90,83,66,97,67,80,60,67,66,68,67,65,56,53,59,54,53,54,61,54,52,60,61,48,61,52,68,55,51,59,62,63,56,59,66,63,62,63,68,87,54,47,67,52,48,47,41,37,46,47,52,50,56,51,117,308,751,1029,704,-16,-297,-244,-199,-127,-7,53,72,95
2019-05-14,15:39:14.777,116,115,134,151,157,180,181,197,220,255,263,289,342,363,391,428,464,476,488,494,461,425,372,321,251,212,161,133,112,97,91,81,79,75,75,77,88,58,66,75,60,74,88,90,79,65,78,88,70,67,75,77,67,63,65,61,60,62,63,53,51,63,52,58,53,52,42,40,29,46,51,54,51,52,49,53,45,60,41,41,33,51,47,54,57,52,49,67,65,52,56,49,46,45,23,20,29,31,36,42,44,39,48,126,388,864,999,565,-155,-312,-265,-188,-95,-4,50,78,78,88,116,131,141,135,159,175,193,217,235,258
2019-05-14,15:39:15.805,292,343,377,412,445,465,480,498,491,462,426,365,298,241,205,163,119,106,95,87,88,78,63,69,75,79,86,84,80,74,80,85,77,86,87,86,87,87,91,87,76,82,74,74,77,70,72,75,69,81,65,61,66,78,62,61,63,65,67,66,70,71,61,60,57,64,67,65,66,59,59,64,66,65,69,75,63,64,72,79,72,66,64,62,69,57,39,48,55,47,57,52,60,52,84,217,606,1056,946,277,-270,-256,-199,-110,-5,61,90,111,127,136,151,162,170,184,201,206,231,259,279,309,344,387,417,441,473,504,524,519
2019-05-14,15:39:16.833,520,488,437,377,313,263,224,195,156,131,120,117,120,117,117,127,124,118,107,114,112,115,120,126,132,140,131,124,123,129,127,126,118,122,123,120,114,116,119,112,108,103,104,112,111,112,110,110,113,115,114,113,116,121,119,115,111,117,116,117,115,118,123,125,140,125,118,134,149,138,127,125,130,120,118,129,128,123,123,137,132,127,128,160,275,605,1047,1020,441,-141,-176,-131,-57,39,128,172,192,210,224,231,247,260,267,280,291,305,328,352,382,419,464,481,515,542,568,581,583,581,551,517,463,400,353,306,269,242,233,219
2019-05-14,15:39:17.861,214,207,212,205,193,199,201,200,208,210,212,216,215,225,223,207,214,220,213,214,208,209,210,208,205,212,215,202,204,206,204,209,212,210,212,218,217,212,207,203,210,211,212,212,211,210,213,212,217,221,222,219,211,214,225,219,220,217,214,209,209,208,204,201,205,211,212,215,215,276,431,820,1146,899,244,-124,-104,-51,32,135,201,239,256,272,287,298,311,321,337,350,360,375,395,417,441,470,512,543,576,599,620,632,637,625,597,548,488,422,370,323,286,271,263,244,239,233,235,236,227,229,238,235,231,247,234,233,243,239
2019-05-14,15:39:18.889,235,235,236,232,222,222,213,210,209,207,201,197,196,197,190,193,190,193,192,191,196,189,189,189,186,188,183,181,187,187,184,186,187,190,185,188,186,186,194,200,200,197,202,204,200,196,190,185,174,165,170,165,172,175,165,170,170,166,173,254,469,926,1151,782,66,-177,-129,-70,20,122,181,206,225,237,245,257,273,283,289,308,326,344,372,389,416,456,494,531,569,591,607,617,631,612,559,511,450,382,332,291,261,242,226,217,219,212,202,201,198,186,194,200,196,198,200,202,206,206,212,208,193,209,200,184,183,185,184,181
2019-05-14,15:39:19.917,179,185,188,177,175,160,162,165,170,171,168,163,165,164,167,158,157,160,158,157,153,149,155,160,161,160,155,155,153,159,157,167,171,166,168,174,179,172,163,158,150,147,147,141,136,140,142,153,150,144,136,154,259,579,1046,1057,522,-139,-194,-147,-74,28,110,144,167,188,202,213,222,227,238,252,268,285,301,321,349,379,414,456,493,525,549,565,574,565,542,491,440,379,322,267,230,200,179,165,157,142,141,140,138,147,141,137,144,143,144,141,147,149,146,143,145,139,140,142,133,131,133,137,130,123,137,118,106,113,114,93
2019-05-14,15:39:20.945,104,110,101,112,103,117,100,107,110,95,95,95,94,100,98,99,96,93,97,92,92,95,104,107,101,99,106,108,110,102,96,84,77,76,77,72,71,78,80,77,80,75,98,193,448,897,982,516,-133,-246,-207,-149,-62,38,93,122,134,144,163,176,191,194,204,217,225,249,275,306,331,366,403,439,460,484,500,513,515,493,451,402,349,294,245,201,178,161,138,124,127,116,114,120,122,125,109,113,122,122,120,121,121,120,129,125,119,117,117,121,120,109,104,108,104,103,103,104,106,107,103,96,103,98,95,102,103,86,85,83
2019-05-14,15:39:21.973,81,82,83,88,86,79,79,82,84,77,82,92,81,88,100,106,95,88,85,77,63,63,64,64,68,70,71,71,66,67,81,166,424,879,979,522,-140,-272,-236,-161,-71,30,78,105,124,142,154,171,186,168,178,201,220,237,262,287,323,357,398,431,458,480,500,511,508,490,447,389,325,272,222,180,153,133,117,106,97,94,86,90,91,90,96,93,96,103,108,98,96,99,101,100,108,102,97,101,104,99,90,90,88,87,80,71,74,77,84,83,80,77,78,70,68,64,62,65,66,66,67,61,63,66,64,68,61,59,60,58
2019-05-14,15:39:23.001,65,67,65,72,74,71,77,78,80,78,70,61,54,54,44,36,35,33,38,39,39,41,37,70,181,525,987,934,353,-253,-278,-227,-157,-49,32,69,84,104,112,126,140,149,159,173,187,207,229,250,278,311,342,384,418,450,470,488,499,493,468,418,357,298,231,179,141,117,96,83,75,64,56,55,49,55,52,52,53,56,62,63,64,67,69,66,59,58,57,57,54,46,45,44,40,39,41,47,37,36,34,31,31,31,37,39,37,32,34,32,33,38,38,31,26,27,27,25,24,25,28,35,38,36,32,37,34,34,40,50
2019-05-14,15:39:24.029,48,46,56,57,53,45,38,25,15,19,13,8,11,13,23,23,17,-1,45,182,549,963,844,212,-288,-295,-253,-171,-71,-3,33,55,64,75,88,96,109,123,128,144,160,180,208,231,263,301,335,369,398,418,427,432,428,410,365,306,239,186,143,112,83,60,44,43,35,34,36,29,32,47,31,28,39,39,31,33,39,47,52,47,42,31,34,32,34,39,25,29,18,15,12,11,26,20,8,11,7,-4,-1,11,8,6,12,9,12,5,4,-2,-10,-8,-8,-2,12,10,2,7,8,-3,9,-5,-11,-16,-26,-27,-28,-26,-19,-42
2019-05-14,15:39:25.057,-29,-13,-34,-43,-30,39,246,678,914,556,-137,-370,-347,-288,-208,-88,-35,-29,1,11,25,43,49,45,70,94,89,97,132,155,181,213,249,293,315,346,366,363,364,345,311,255,194,139,89,44,15,-5,-12,-19,-36,-49,-52,-50,-64,-56,-45,-69,-61,-51,-56,-50,-54,-60,-49,-59,-53,-48,-42,-48,-57,-66,-67,-53,-56,-77,-79,-82,-83,-90,-92,-88,-83,-89,-87,-90,-81,-98,-104,-106,-121,-105,-102,-99,-115,-98,-103,-98,-108,-115,-122,-111,-104,-97,-117,-110,-100,-92,-98,-111,-133,-138,-150,-147,-143,-158,-161,-152,-145,-131,-145,-150,-122,-44,207,673,809,380
2019-05-14,15:39:26.085,-327,-470,-404,-367,-284,-175,-138,-103,-87,-76,-62,-48,-39,-31,-20,2,14,35,46,78,112,149,175,210,255,259,267,280,293,260,208,169,121,71,-1,-52,-77,-102,-119,-138,-136,-141,-140,-140,-152,-144,-141,-142,-141,-136,-139,-144,-138,-120,-134,-137,-139,-143,-142,-140,-135,-133,-140,-156,-147,-145,-165,-167,-156,-149,-163,-168,-163,-158,-164,-162,-153,-154,-157,-193,-179,-172,-185,-192,-188,-181,-171,-163,-183,-188,-175,-165,-165,-176,-182,-167,-162,-167,-166,-165,-168,-187,-197,-191,-191,-190,-190,-188,-184,-187,-193,-190,-111,111,564,792,416,-318,-540,-498,-438,-361,-251,-190,-157,-140,-128,-118
2019-05-14,15:39:27.113,-106,-97,-83,-68,-53,-41,-25,-2,26,61,99,139,175,209,239,258,270,278,258,219,167,107,49,-3,-41,-79,-99,-114,-127,-135,-138,-137,-138,-141,-139,-138,-135,-133,-133,-131,-128,-128,-131,-128,-124,-127,-127,-128,-130,-133,-137,-136,-137,-140,-139,-142,-143,-141,-140,-147,-149,-147,-143,-140,-150,-152,-146,-147,-146,-148,-145,-144,-144,-146,-145,-146,-141,-132,-134,-141,-144,-143,-145,-142,-137,-129,-125,-131,-129,-128,-133,-138,-137,-141,-151,-159,-164,-165,-164,-159,-156,-164,-176,-174,-180,-151,-23,336,772,698,72,-478,-481,-450,-385,-283,-201,-160,-143,-126,-115,-105,-97,-89,-75,-63,-38,-17
2019-05-14,15:39:28.141,-5,11,46,86,122,158,182,200,221,250,263,261,229,181,116,65,10,-37,-75,-110,-134,-141,-152,-154,-158,-163,-165,-166,-165,-164,-153,-150,-151,-157,-149,-162,-172,-173,-167,-165,-169,-168,-175,-176,-177,-181,-182,-180,-190,-209,-211,-201,-204,-202,-201,-206,-210,-216,-212,-204,-197,-209,-212,-215,-208,-204,-217,-224,-219,-213,-217,-218,-210,-207,-213,-209,-193,-192,-211,-226,-231,-231,-237,-239,-237,-240,-242,-239,-221,-229,-236,-230,-210,-120,136,518,567,145,-432,-541,-493,-471,-399,-297,-228,-191,-173,-171,-170,-138,-146,-145,-127,-114,-96,-76,-57,-26,22,19,55,70,97,127,145,161,151,132
2019-05-14,15:39:29.169,99,52,4,-45,-87,-131,-152,-167,-184,-199,-202,-207,-214,-209,-213,-213,-210,-213,-209,-201,-206,-204,-197,-187,-192,-191,-192,-193,-197,-198,-196,-198,-193,-201,-206,-208,-205,-206,-208,-208,-204,-200,-205,-218,-218,-216,-216,-217,-218,-215,-211,-209,-206,-207,-202,-203,-206,-201,-200,-190,-190,-194,-205,-213,-225,-226,-218,-228,-229,-222,-218,-228,-226,-224,-200,-112,92,501,629,235,-369,-593,-545,-467,-375,-272,-220,-190,-172,-158,-147,-130,-121,-121,-109,-104,-90,-67,-41,-12,18,47,79,116,146,171,185,200,198,196,161,105,43,-19,-68,-108,-147,-163,-178,-185,-200,-206,-203,-209,-205,-209,-210,-202
2019-05-14,15:39:30.197,-189,-188,-187,-190,-189,-185,-183,-185,-184,-182,-189,-191,-194,-206,-203,-209,-211,-209,-208,-211,-208,-215,-215,-213,-217,-221,-216,-215,-222,-223,-223,-221,-218,-220,-221,-220,-221,-217,-214,-211,-216,-218,-210,-205,-202,-210,-207,-198,-189,-192,-203,-210,-217,-219,-223,-225,-227,-221,-220,-216,-220,-219,-212,-166,-46,286,687,550,-25,-545,-555,-500,-420,-303,-225,-192,-171,-162,-147,-131,-122,-113,-100,-84,-70,-53,-34,-13,21,53,87,123,162,189,212,229,241,231,207,163,102,46,-11,-59,-93,-125,-144,-161,-166,-172,-175,-180,-181,-178,-178,-178,-176,-175,-175,-169,-164,-165,-170,-174,-173,-176,-174,-179
2019-05-14,15:39:31.225,-180,-182,-183,-187,-189,-181,-185,-190,-193,-198,-201,-202,-200,-202,-205,-202,-202,-204,-207,-201,-200,-205,-207,-205,-212,-217,-209,-206,-204,-209,-207,-210,-210,-204,-198,-196,-203,-195,-186,-189,-191,-194,-202,-212,-220,-219,-216,-218,-218,-213,-214,-216,-220,-221,-177,-65,260,669,588,25,-528,-551,-499,-429,-318,-236,-200,-180,-164,-153,-145,-131,-121,-114,-103,-86,-73,-55,-28,-1,28,65,98,128,154,179,188,204,198,177,137,84,24,-34,-85,-123,-149,-167,-181,-187,-190,-196,-198,-199,-202,-202,-201,-203,-198,-199,-199,-199,-199,-197,-198,-196,-195,-197,-199,-205,-207,-208,-212,-218,-216,-220,-225,-227
2019-05-14,15:39:32.253,-224,-227,-230,-228,-229,-233,-238,-229,-232,-233,-232,-236,-233,-231,-230,-229,-233,-232,-236,-239,-239,-236,-236,-233,-229,-227,-229,-217,-213,-219,-222,-231,-231,-241,-248,-251,-251,-245,-247,-243,-240,-243,-246,-241,-183,-43,294,612,414,-177,-553,-545,-507,-435,-338,-258,-218,-198,-185,-176,-166,-158,-147,-136,-125,-110,-96,-74,-54,-32,0,34,69,97,121,141,151,158,148,130,93,39,-11,-64,-104,-140,-164,-180,-195,-207,-210,-211,-211,-215,-214,-211,-209,-210,-209,-204,-206,-206,-206,-207,-207,-209,-211,-213,-216,-217,-216,-217,-223,-226,-223,-231,-225,-219,-223,-225,-224,-226,-234,-231,-229,-233,-232,-229
2019-05-14,15:39:33.281,-229,-230,-224,-226,-230,-229,-226,-230,-230,-232,-232,-224,-226,-232,-226,-221,-222,-223,-222,-229,-237,-244,-242,-238,-240,-239,-238,-233,-232,-235,-234,-177,-42,300,650,469,-117,-557,-550,-509,-431,-322,-250,-210,-195,-182,-170,-160,-146,-135,-124,-113,-100,-85,-61,-37,-9,20,49,90,121,150,173,185,193,183,160,116,62,5,-50,-101,-130,-155,-175,-186,-196,-203,-205,-205,-210,-209,-212,-208,-209,-202,-204,-201,-198,-204,-200,-199,-201,-197,-195,-204,-203,-211,-212,-215,-213,-215,-217,-216,-217,-217,-215,-223,-224,-226,-223,-224,-225,-224,-225,-226,-224,-226,-223,-229,-232,-226,-221,-220,-223,-225,-221,-223
2019-05-14,15:39:34.309,-221,-221,-216,-205,-206,-207,-202,-200,-204,-208,-211,-212,-226,-231,-233,-225,-226,-226,-224,-226,-226,-227,-223,-164,-8,379,690,444,-194,-579,-540,-483,-404,-291,-227,-197,-181,-167,-160,-149,-132,-125,-112,-100,-85,-66,-49,-22,6,38,80,115,149,180,198,219,226,217,192,144,88,27,-24,-76,-112,-140,-159,-169,-181,-188,-190,-193,-192,-191,-191,-192,-190,-189,-184,-188,-187,-184,-187,-187,-189,-187,-188,-188,-191,-192,-194,-197,-195,-199,-204,-203,-204,-206,-205,-206,-209,-210,-209,-208,-212,-212,-209,-209,-208,-207,-208,-211,-214,-215,-215,-211,-213,-212,-215,-209,-210,-214,-208,-210,-201,-204,-207,-205
2019-05-14,15:39:35.337,-193,-195,-196,-202,-206,-218,-223,-223,-218,-217,-218,-216,-218,-216,-214,-214,-160,-9,364,702,494,-142,-549,-521,-470,-388,-279,-210,-184,-164,-148,-136,-130,-122,-110,-96,-81,-65,-51,-32,-5,25,58,93,132,156,187,207,224,234,231,201,153,97,43,-15,-58,-94,-123,-139,-152,-163,-171,-176,-180,-182,-181,-183,-177,-178,-177,-172,-174,-177,-170,-168,-169,-171,-172,-171,-174,-172,-173,-178,-184,-185,-183,-190,-192,-190,-192,-193,-190,-189,-190,-191,-188,-187,-192,-196,-199,-199,-197,-200,-197,-198,-194,-194,-195,-192,-197,-196,-193,-194,-187,-187,-188,-183,-180,-177,-181,-186,-195,-197,-201,-203,-204,-204
2019-05-14,15:39:36.365,-204,-201,-194,-197,-200,-200,-159,-41,267,648,566,12,-482,-512,-476,-407,-307,-219,-182,-160,-145,-126,-118,-104,-96,-83,-73,-63,-46,-30,-3,19,52,87,119,151,176,197,214,223,217,194,156,107,51,1,-46,-84,-110,-131,-139,-146,-154,-161,-160,-159,-161,-158,-156,-153,-154,-152,-151,-152,-153,-147,-146,-152,-147,-146,-149,-152,-150,-158,-154,-155,-157,-158,-161,-166,-165,-166,-168,-167,-170,-167,-166,-166,-167,-168,-164,-168,-167,-169,-169,-166,-167,-167,-165,-168,-167,-167,-168,-163,-156,-154,-160,-155,-148,-147,-152,-159,-161,-175,-183,-181,-186,-181,-180,-177,-180,-173,-176,-173,-121,14,362,719
2019-05-14,15:39:37.393,541,-69,-503,-494,-443,-370,-266,-190,-154,-135,-121,-106,-95,-85,-78,-67,-55,-38,-27,-8,22,54,81,115,151,182,211,239,251,258,250,226,186,131,73,17,-29,-68,-97,-113,-128,-135,-136,-141,-143,-149,-148,-147,-143,-140,-136,-133,-131,-133,-134,-131,-130,-131,-139,-136,-138,-139,-143,-147,-143,-146,-151,-153,-155,-152,-155,-159,-158,-156,-158,-160,-159,-165,-169,-168,-166,-164,-168,-167,-164,-162,-161,-164,-163,-166,-168,-169,-167,-166,-171,-175,-170,-160,-155,-164,-163,-160,-154,-161,-163,-167,-176,-183,-185,-185,-186,-187,-184,-186,-182,-185,-186,-153,-64,197,629,673,218,-421,-526,-474,-407,-308
2019-05-14,15:39:38.421,-221,-174,-147,-119,-112,-112,-98,-92,-89,-68,-50,-34,-15,3,33,65,94,128,169,202,231,261,278,273,258,232,171,112,53,1,-41,-64,-90,-104,-109,-111,-122,-134,-137,-130,-120,-119,-123,-113,-103,-110,-114,-112,-111,-108,-106,-98,-99,-100,-96,-93,-98,-102,-105,-105,-103,-100,-95,-99,-120,-119,-112,-113,-111,-107,-102,-101,-103,-105,-104,-102,-100,-103,-99,-100,-103,-100,-96,-94,-92,-95,-96,-98,-99,-102,-94,-89,-96,-90,-77,-85,-90,-96,-95,-104,-105,-107,-107,-107,-103,-106,-104,-101,-99,-103,-74,47,383,783,706,104,-384,-399,-355,-290,-199,-123,-86,-67,-58,-43,-34,-25
2019-05-14,15:39:39.449,-10,4,14,26,44,63,85,114,138,173,206,235,264,280,292,299,298,273,236,184,129,76,34,-4,-34,-51,-64,-72,-79,-85,-86,-89,-82,-77,-79,-77,-80,-76,-70,-67,-68,-67,-67,-64,-61,-58,-62,-67,-68,-73,-71,-81,-77,-83,-82,-84,-85,-86,-85,-83,-87,-90,-89,-90,-89,-83,-86,-83,-87,-84,-89,-92,-90,-88,-85,-78,-71,-75,-80,-72,-68,-73,-79,-84,-86,-92,-97,-97,-99,-96,-97,-98,-91,-95,-93,-86,-16,176,587,832,515,-154,-399,-372,-321,-242,-140,-78,-51,-36,-17,-5,7,14,26,40,53,72,92,113,139,167,200,240,275,303,328,351
2019-05-14,15:39:40.477,366,374,357,318,268,207,147,98,54,22,-5,-18,-28,-38,-45,-45,-45,-46,-51,-49,-47,-41,-42,-41,-38,-38,-33,-32,-30,-33,-37,-44,-46,-45,-44,-48,-46,-49,-54,-55,-56,-55,-56,-60,-59,-55,-57,-60,-62,-59,-57,-55,-53,-54,-55,-56,-55,-56,-59,-53,-58,-58,-57,-59,-55,-49,-38,-45,-44,-40,-39,-44,-49,-52,-56,-68,-67,-68,-66,-71,-72,-67,-65,-62,-70,-57,28,273,726,877,464,-230,-391,-344,-283,-190,-95,-55,-32,-13,-1,8,19,29,38,47,61,79,98,123,150,183,219,256,291,323,348,369,389,387,371,331,272,208,148,95,52,13
2019-05-14,15:39:41.505,-5,-20,-36,-45,-47,-44,-54,-53,-51,-52,-48,-50,-50,-50,-48,-44,-46,-48,-46,-46,-45,-51,-54,-53,-55,-57,-58,-60,-58,-61,-62,-66,-67,-72,-72,-71,-74,-72,-74,-73,-75,-75,-79,-77,-81,-83,-87,-84,-86,-89,-87,-86,-87,-89,-92,-89,-83,-78,-75,-84,-77,-76,-77,-84,-90,-93,-106,-107,-103,-107,-107,-105,-103,-104,-103,-105,-99,-33,142,537,809,529,-126,-425,-393,-342,-262,-169,-108,-74,-58,-42,-30,-20,-12,-3,10,21,33,50,75,97,126,155,186,219,249,275,293,305,308,299,268,223,175,120,67,22,-10,-33,-49,-63,-72,-76,-80,-84,-82,-80
2019-05-14,15:39:42.533,-81,-77,-74,-76,-71,-69,-65,-61,-60,-63,-69,-68,-68,-73,-75,-78,-79,-80,-81,-82,-84,-90,-90,-93,-91,-92,-89,-90,-93,-95,-95,-92,-92,-97,-98,-99,-97,-92,-94,-96,-95,-95,-90,-83,-88,-79,-76,-74,-81,-83,-86,-94,-100,-102,-103,-107,-104,-102,-98,-95,-100,-98,-68,26,269,681,719,264,-319,-434,-386,-318,-227,-132,-89,-68,-52,-37,-32,-17,-9,-3,12,20,41,61,81,110,141,173,203,234,271,298,317,331,332,307,267,218,165,115,61,14,-25,-44,-58,-69,-75,-78,-77,-74,-78,-72,-64,-68,-83,-94,-83,-75,-78,-83,-75,-72,-67,-56,-70,-81
2019-05-14,15:39:43.561,-74,-88,-108,-110,-108,-110,-99,-92,-89,-84,-85,-101,-105,-109,-115,-107,-108,-109,-97,-108,-111,-101,-108,-115,-129,-126,-119,-122,-126,-122,-112,-114,-122,-117,-111,-117,-125,-119,-111,-115,-115,-127,-147,-146,-156,-153,-157,-152,-150,-151,-153,-168,-160,-107,21,393,788,610,-27,-501,-485,-426,-355,-240,-176,-143,-122,-108,-97,-88,-74,-70,-59,-50,-37,-21,-2,23,49,83,115,149,183,212,231,245,256,254,233,184,123,69,12,-32,-74,-106,-127,-139,-150,-154,-153,-156,-160,-159,-153,-154,-161,-152,-149,-148,-156,-153,-151,-151,-148,-147,-154,-155,-156,-160,-154,-160,-160,-167,-165,-166,-164,-166
2019-05-14,15:39:44.589,-162,-168,-180,-180,-176,-177,-176,-174,-176,-171,-179,-177,-173,-176,-172,-167,-171,-169,-168,-164,-156,-159,-161,-164,-152,-149,-152,-156,-158,-168,-179,-177,-173,-184,-180,-179,-174,-175,-177,-176,-146,-53,178,576,641,210,-362,-493,-452,-399,-311,-207,-154,-128,-111,-96,-84,-73,-62,-50,-37,-26,-16,6,29,51,85,121,150,184,217,241,259,274,277,258,223,171,114,58,12,-21,-50,-70,-79,-90,-102,-106,-108,-106,-108,-110,-107,-104,-102,-100,-93,-89,-90,-92,-88,-89,-87,-90,-93,-95,-98,-98,-101,-104,-103,-103,-98,-101,-104,-103,-106,-107,-110,-107,-109,-114,-109,-107,-104,-102,-100,-99
2019-05-14,15:39:45.617,-107,-109,-110,-108,-105,-104,-104,-94,-84,-96,-99,-92,-85,-87,-94,-93,-102,-111,-112,-115,-110,-104,-110,-108,-104,-99,-99,-76,10,264,711,816,366,-303,-427,-373,-306,-208,-114,-74,-51,-37,-24,-12,5,13,24,38,54,67,83,109,135,165,205,243,275,308,340,359,375,375,355,320,266,203,139,89,51,18,-6,-22,-29,-41,-45,-50,-47,-50,-46,-45,-44,-41,-40,-37,-35,-37,-36,-36,-34,-36,-37,-37,-41,-47,-53,-53,-52,-52,-54,-57,-57,-56,-58,-57,-60,-60,-60,-62,-61,-60,-63,-66,-64,-62,-64,-62,-61,-61,-61,-60,-64,-63,-61,-53,-52,-58,-52,-49
2019-05-14,15:39:46.645,-45,-50,-53,-56,-70,-71,-73,-73,-74,-73,-73,-71,-73,-71,-68,-4,162,539,824,583,-75,-377,-358,-319,-246,-147,-79,-44,-28,-10,2,9,22,26,40,55,69,82,99,122,150,180,212,243,278,304,323,337,345,334,311,270,218,166,116,77,43,19,2,-10,-17,-23,-26,-27,-27,-28,-23,-21,-21,-19,-17,-15,-11,-13,-12,-11,-7,-6,-8,-9,-9,-10,-14,-13,-15,-17,-17,-18,-21,-22,-23,-25,-26,-25,-26,-26,-25,-27,-30,-29,-31,-32,-30,-33,-31,-24,-22,-26,-31,-24,-20,-23,-29,-36,-44,-53,-55,-54,-57,-57,-56,-53,-54,-55,-54,-26,70,329
2019-05-14,15:39:47.673,774,838,360,-281,-387,-344,-273,-176,-80,-33,-13,4,14,25,36,47,55,71,83,97,115,139,164,196,231,269,305,334,360,379,390,390,371,328,268,207,151,99,60,27,0,-14,-24,-27,-34,-38,-39,-41,-42,-38,-37,-33,-35,-29,-28,-31,-36,-39,-38,-35,-37,-45,-42,-44,-49,-51,-57,-62,-62,-60,-61,-63,-61,-63,-64,-62,-58,-62,-62,-64,-67,-71,-71,-67,-68,-66,-66,-72,-71,-71,-72,-68,-62,-59,-68,-62,-59,-56,-58,-63,-71,-80,-88,-90,-89,-93,-90,-88,-85,-88,-88,-96,-49,91,452,843,708,65,-400,-394,-354,-285,-181,-111,-75,-55,-42,-29
2019-05-14,15:39:48.701,-22,-15,-7,9,21,37,50,68,90,121,154,188,222,256,283,300,313,323,314,283,243,187,130,78,34,0,-29,-48,-61,-74,-81,-83,-85,-84,-89,-88,-86,-83,-84,-83,-79,-81,-77,-76,-78,-77,-79,-81,-79,-81,-83,-85,-89,-90,-98,-97,-100,-97,-101,-99,-98,-97,-102,-103,-103,-102,-105,-105,-107,-108,-105,-109,-111,-107,-100,-92,-99,-105,-97,-86,-90,-93,-98,-105,-118,-120,-117,-122,-121,-120,-118,-116,-119,-124,-107,-20,209,632,779,370,-279,-437,-401,-340,-259,-157,-106,-78,-62,-45,-36,-28,-18,-8,8,22,36,55,74,101,133,165,199,233,265,290,307,321
2019-05-14,15:39:49.729,321,302,263,210,154,94,45,5,-24,-44,-63,-73,-81,-84,-86,-85,-87,-89,-90,-90,-85,-84,-82,-79,-79,-78,-79,-77,-81,-82,-85,-85,-88,-89,-96,-98,-99,-101,-103,-102,-104,-106,-104,-108,-109,-110,-112,-109,-113,-111,-112,-110,-109,-114,-112,-115,-114,-109,-113,-111,-116,-108,-102,-109,-105,-103,-97,-99,-105,-106,-117,-125,-123,-125,-121,-121,-122,-120,-121,-120,-123,-99,3,294,748,772,257,-376,-444,-393,-324,-228,-144,-106,-85,-67,-53,-45,-35,-25,-13,-4,11,28,50,73,103,134,170,208,241,272,297,316,332,334,308,262,205,145,82,31,-11,-44,-65,-81,-88,-98
2019-05-14,15:39:50.757,-103,-104,-105,-102,-104,-103,-102,-100,-99,-102,-101,-102,-97,-96,-98,-99,-102,-108,-115,-118,-119,-118,-118,-120,-122,-127,-129,-135,-134,-137,-133,-134,-133,-135,-135,-137,-142,-144,-141,-140,-139,-142,-142,-138,-140,-142,-142,-139,-140,-140,-132,-137,-143,-135,-127,-129,-136,-143,-149,-156,-165,-165,-169,-164,-165,-157,-159,-162,-166,-146,-51,205,631,722,260,-365,-468,-435,-378,-294,-199,-149,-126,-111,-98,-86,-76,-65,-56,-44,-32,-17,3,29,56,91,123,152,188,213,239,260,275,278,255,221,174,121,66,16,-22,-51,-74,-83,-97,-99,-105,-115,-117,-114,-112,-107,-102,-101,-103,-102,-96,-93
2019-05-14,15:39:51.785,-94,-96,-96,-97,-98,-103,-106,-110,-115,-112,-115,-120,-121,-122,-121,-123,-122,-125,-130,-125,-127,-124,-122,-126,-128,-128,-126,-129,-129,-132,-134,-135,-132,-134,-127,-117,-114,-118,-116,-113,-112,-115,-121,-125,-133,-144,-147,-147,-147,-145,-143,-139,-145,-143,-136,-81,51,406,785,621,24,-450,-438,-389,-309,-198,-133,-105,-89,-71,-62,-54,-42,-32,-26,-11,5,23,41,66,91,123,160,195,233,263,286,306,316,311,283,240,180,118,62,12,-28,-53,-77,-89,-95,-98,-101,-103,-105,-108,-107,-112,-109,-103,-104,-107,-106,-107,-105,-105,-107,-105,-106,-105,-107,-110,-108,-107,-112,-117,-118,-118
2019-05-14,15:39:52.813,-119,-119,-118,-118,-121,-120,-123,-121,-118,-119,-124,-123,-126,-126,-125,-123,-124,-125,-125,-130,-128,-127,-127,-128,-126,-116,-117,-125,-118,-111,-114,-117,-120,-126,-138,-144,-143,-149,-147,-147,-144,-137,-136,-139,-137,-74,119,555,830,536,-176,-469,-428,-374,-291,-186,-133,-108,-95,-81,-70,-61,-56,-45,-33,-16,0,16,38,63,91,126,165,202,235,264,283,299,306,295,261,209,151,91,32,-15,-46,-72,-92,-103,-112,-117,-120,-124,-119,-113,-109,-110,-109,-112,-113,-110,-107,-110,-107,-108,-114,-114,-114,-116,-119,-120,-119,-120,-122,-125,-131,-133,-138,-143,-141,-139,-142,-145,-152,-149,-146,-147
2019-05-14,15:39:53.841,-145,-144,-140,-143,-144,-150,-149,-144,-146,-150,-150,-151,-144,-137,-128,-131,-136,-129,-131,-137,-138,-145,-153,-163,-164,-171,-171,-166,-164,-167,-169,-168,-176,-162,-74,187,662,788,349,-367,-496,-449,-378,-280,-191,-149,-133,-118,-101,-89,-80,-69,-54,-42,-24,-8,9,35,59,93,127,166,202,236,261,283,297,300,279,238,184,122,58,4,-41,-77,-105,-122,-130,-138,-141,-141,-146,-147,-144,-143,-144,-142,-138,-137,-135,-137,-132,-137,-135,-137,-139,-142,-146,-146,-148,-148,-155,-160,-158,-158,-164,-163,-165,-167,-161,-163,-164,-164,-167,-167,-168,-165,-164,-164,-167,-166,-166,-170,-172,-172,-170,-168
2019-05-14,15:39:54.869,-169,-166,-159,-164,-171,-163,-158,-161,-165,-168,-175,-186,-192,-191,-197,-191,-189,-190,-190,-188,-194,-178,-88,171,606,723,262,-398,-504,-469,-414,-327,-229,-177,-150,-134,-124,-113,-103,-92,-79,-69,-58,-38,-18,0,27,51,85,115,146,176,201,220,229,231,218,184,132,76,24,-28,-68,-98,-123,-141,-150,-160,-165,-160,-163,-161,-161,-159,-157,-155,-153,-153,-151,-153,-148,-149,-152,-155,-159,-161,-163,-166,-168,-166,-172,-173,-177,-178,-177,-174,-178,-182,-184,-181,-185,-180,-180,-183,-183,-184,-182,-187,-180,-171,-175,-175,-167,-159,-164,-169,-164,-154,-155,-163,-171,-174,-186,-186,-187,-189,-185,-186
2019-05-14,15:39:55.897,-186,-187,-185,-186,-162,-70,172,581,661,214,-387,-496,-458,-401,-316,-217,-166,-140,-121,-108,-93,-79,-68,-61,-51,-34,-17,0,23,49,77,113,147,179,207,228,250,261,262,247,209,157,104,50,2,-34,-63,-84,-100,-109,-114,-122,-124,-120,-118,-122,-124,-125,-119,-119,-113,-111,-113,-112,-109,-106,-113,-108,-110,-112,-118,-119,-123,-124,-126,-127,-131,-133,-128,-129,-134,-131,-132,-132,-132,-130,-131,-133,-136,-138,-137,-135,-135,-138,-138,-139,-129,-119,-119,-130,-122,-113,-117,-122,-125,-135,-144,-148,-146,-148,-145,-147,-145,-142,-142,-145,-129,-59,129,552,786,447,-231,-483,-441,-384,-298,-190
2019-05-14,15:39:56.924,-135,-110,-94,-84,-66,-56,-45,-35,-23,-9,10,30,44,69,101,137,172,212,243,269,292,306,309,296,265,211,148,89,36,-9,-44,-64,-82,-94,-103,-110,-115,-116,-118,-117,-115,-109,-104,-104,-101,-99,-103,-104,-101,-103,-109,-108,-110,-113,-118,-122,-119,-122,-125,-127,-126,-126,-132,-131,-133,-133,-130,-135,-142,-139,-138,-138,-136,-137,-138,-141,-143,-143,-140,-142,-152,-153,-150,-148,-140,-136,-138,-139,-134,-129,-132,-136,-140,-144,-155,-159,-163,-163,-163,-164,-164,-160,-156,-160,-127,-16,278,690,664,127,-427,-476,-439,-373,-276,-186,-145,-119,-102,-88,-81,-71,-60,-45,-35,-22,-7,15
2019-05-14,15:39:57.952,35,65,94,129,158,195,226,246,265,273,274,251,211,160,109,53,2,-35,-68,-88,-100,-108,-111,-106,-119,-122,-123,-123,-117,-112,-110,-111,-108,-106,-105,-104,-104,-102,-105,-103,-109,-111,-113,-116,-121,-119,-121,-125,-127,-125,-125,-128,-128,-128,-123,-125,-125,-126,-124,-125,-123,-124,-128,-128,-131,-130,-133,-134,-130,-127,-120,-113,-117,-119,-118,-110,-110,-113,-119,-127,-139,-140,-143,-142,-144,-143,-140,-138,-139,-140,-104,-7,278,719,729,221,-388,-443,-394,-325,-226,-147,-112,-91,-79,-68,-58,-49,-35,-26,-10,2,21,38,61,92,125,159,199,233,265,287,305,316,314,293,246,189
2019-05-14,15:39:58.980,132,67,17,-23,-55,-70,-82,-89,-95,-98,-103,-104,-94,-100,-101,-98,-103,-96,-95,-87,-84,-87,-87,-94,-88,-90,-95,-93,-96,-96,-101,-99,-102,-107,-109,-110,-111,-108,-112,-108,-113,-113,-110,-112,-109,-109,-110,-109,-112,-113,-110,-112,-113,-116,-117,-116,-117,-119,-118,-110,-101,-105,-107,-101,-96,-102,-103,-107,-117,-131,-135,-133,-134,-136,-130,-127,-126,-132,-136,-132,-60,164,626,866,527,-207,-443,-393,-334,-245,-153,-110,-90,-75,-61,-50,-39,-27,-18,-7,7,23,39,56,83,119,152,189,230,260,288,314,331,332,321,283,227,165,106,54,5,-27,-51,-69,-77,-89,-94,-92
2019-05-14,15:40:00.008,-95,-96,-97,-98,-94,-95,-87,-88,-88,-91,-89,-90,-91,-91,-91,-98,-101,-103,-108,-107,-113,-119,-119,-120,-123,-126,-121,-122,-123,-122,-121,-117,-123,-124,-125,-128,-127,-130,-124,-122,-122,-123,-126,-118,-116,-121,-119,-116,-108,-112,-114,-108,-102,-104,-109,-116,-120,-129,-131,-134,-133,-129,-129,-124,-123,-122,-120,-77,56,390,757,630,23,-413,-423,-388,-316,-222,-134,-89,-68,-51,-38,-25,-14,-5,9,28,43,59,79,100,131,164,197,235,273,298,323,345,353,346,323,280,221,164,111,64,26,-2,-19,-34,-46,-49,-52,-52,-51,-52,-49,-48,-49,-48,-45,-42,-40,-41,-44,-43
2019-05-14,15:40:01.036,-51,-53,-54,-55,-61,-59,-61,-62,-67,-72,-73,-73,-74,-75,-78,-78,-79,-81,-81,-79,-77,-80,-82,-81,-80,-84,-84,-82,-78,-76,-75,-77,-77,-76,-69,-60,-63,-72,-65,-59,-59,-65,-64,-70,-80,-90,-93,-93,-95,-94,-90,-88,-89,-93,-93,-29,159,598,897,612,-119,-427,-387,-328,-251,-148,-92,-66,-52,-38,-23,-13,-1,11,25,39,44,63,84,111,138,170,212,242,276,303,324,339,347,334,299,249,192,132,76,30,-5,-31,-48,-58,-68,-75,-73,-74,-73,-78,-76,-74,-74,-74,-70,-71,-67,-70,-71,-71,-70,-70,-73,-75,-74,-75,-72,-79,-84,-85,-90,-93
2019-05-14,15:40:02.064,-88,-88,-88,-89,-91,-96,-95,-97,-95,-94,-95,-95,-90,-89,-92,-90,-92,-90,-89,-87,-81,-69,-75,-79,-75,-69,-67,-71,-75,-79,-89,-96,-95,-93,-84,-88,-77,-76,-71,-75,-51,40,275,710,841,426,-240,-387,-345,-285,-203,-100,-47,-23,-4,12,25,38,47,60,77,90,107,127,147,176,207,239,282,321,352,379,401,419,418,403,365,305,248,182,127,83,53,29,12,1,-2,-9,-14,-22,-20,-19,-18,-19,-18,-10,-12,-16,-10,-13,-12,-11,-12,-14,-17,-20,-21,-28,-32,-39,-41,-40,-45,-44,-43,-47,-45,-47,-48,-50,-49,-52,-54,-55,-60,-56,-54,-57
2019-05-14,15:40:03.092,-57,-59,-56,-58,-64,-63,-58,-52,-50,-58,-52,-52,-51,-56,-58,-65,-75,-84,-87,-85,-82,-83,-79,-78,-75,-80,-87,-35,144,561,912,699,-34,-393,-379,-338,-257,-156,-82,-48,-30,-18,-6,5,19,31,37,49,66,87,104,133,158,189,222,258,286,310,323,347,359,345,312,264,209,148,89,46,18,-10,-28,-40,-52,-55,-58,-58,-60,-60,-63,-65,-57,-50,-46,-46,-53,-45,-47,-50,-53,-54,-51,-56,-64,-64,-66,-71,-75,-83,-83,-85,-79,-84,-87,-87,-87,-88,-90,-89,-93,-96,-102,-101,-95,-101,-103,-105,-105,-107,-109,-105,-91,-82,-91,-91,-84,-83,-89,-92
2019-05-14,15:40:04.120,-99,-113,-128,-129,-123,-126,-126,-128,-129,-128,-133,-141,-105,8,337,802,794,222,-416,-454,-406,-329,-226,-145,-111,-94,-79,-63,-56,-45,-35,-18,-7,7,28,43,66,101,136,175,215,250,284,305,325,339,338,310,262,202,142,83,32,-8,-35,-61,-77,-85,-90,-94,-95,-94,-95,-90,-95,-93,-90,-86,-82,-83,-79,-76,-75,-74,-75,-77,-80,-79,-85,-87,-89,-88,-83,-86,-86,-88,-87,-82,-83,-88,-91,-87,-84,-83,-84,-86,-85,-88,-85,-84,-86,-85,-82,-74,-75,-78,-76,-73,-73,-69,-57,-56,-61,-53,-45,-46,-51,-55,-62,-72,-75,-75,-76,-83,-80,-74,-72,-64
2019-05-14,15:40:05.148,-60,-68,-30,124,536,951,790,84,-379,-358,-308,-235,-123,-59,-21,-11,8,22,34,46,57,68,82,100,122,141,169,199,235,269,311,351,383,406,423,435,426,399,349,284,223,165,117,81,53,35,24,9,7,7,3,3,4,7,12,11,13,15,20,20,21,23,29,27,18,17,15,13,9,11,6,9,5,3,8,8,1,6,2,1,2,5,0,1,-4,2,1,2,1,1,1,2,1,-1,-5,-3,-5,-4,0,-1,0,-2,0,2,8,13,9,11,14,15,3,-4,-4,-11,-19,-23,-27,-24,-22,-21,-19,-17,-17,-28,10,149,520,940
2019-05-14,15:40:06.176,844,174,-319,-316,-279,-208,-110,-37,4,21,36,46,59,73,82,91,104,120,136,158,182,213,242,277,313,346,372,396,410,418,418,393,347,298,232,167,124,91,65,42,26,12,12,10,5,3,0,4,2,5,9,8,11,11,12,13,12,10,12,9,9,11,4,1,0,-6,-8,-11,-12,-17,-15,-16,-19,-18,-21,-24,-23,-24,-26,-23,-18,-21,-24,-25,-23,-26,-24,-21,-23,-22,-21,-22,-22,-20,-13,-10,-15,-14,-10,-4,-14,-17,-19,-30,-38,-43,-47,-44,-45,-42,-42,-45,-46,-47,-35,61,331,791,900,428,-257,-362,-324,-264,-172,-73,-29,-10
2019-05-14,15:40:07.204,2,10,23,36,44,57,68,81,101,117,139,171,205,239,277,310,341,362,385,403,405,382,338,283,219,160,108,66,34,7,-5,-12,-19,-26,-29,-29,-28,-34,-35,-32,-33,-31,-28,-24,-25,-25,-26,-25,-28,-34,-33,-32,-36,-38,-48,-49,-48,-50,-52,-51,-50,-51,-57,-54,-57,-60,-57,-60,-60,-62,-62,-63,-65,-65,-62,-60,-59,-65,-66,-67,-70,-70,-73,-73,-66,-70,-69,-67,-61,-53,-66,-65,-58,-52,-61,-63,-73,-75,-87,-85,-90,-91,-94,-91,-88,-89,-94,-100,-91,3,295,769,858,362,-330,-425,-385,-321,-226,-133,-92,-73,-59,-38,-18,-12,-8,3
2019-05-14,15:40:08.232,10,24,41,57,79,114,151,184,220,250,280,304,320,336,336,321,287,233,172,107,60,23,-9,-37,-53,-65,-74,-83,-84,-83,-86,-87,-87,-88,-84,-78,-79,-81,-74,-68,-66,-70,-77,-81,-86,-85,-91,-98,-95,-98,-101,-105,-107,-105,-106,-110,-107,-110,-116,-110,-113,-118,-110,-115,-118,-116,-116,-120,-118,-115,-125,-129,-130,-122,-124,-125,-125,-121,-116,-113,-107,-117,-107,-105,-107,-108,-117,-123,-129,-138,-149,-143,-142,-140,-139,-133,-136,-139,-132,-63,124,553,813,491,-196,-491,-443,-388,-294,-185,-127,-104,-90,-78,-64,-51,-44,-31,-21,-7,4,23,47,75,104,137,178,218
2019-05-14,15:40:09.260,258,290,309,325,336,324,295,247,182,114,59,7,-29,-55,-68,-83,-92,-95,-104,-104,-107,-106,-108,-103,-106,-103,-101,-102,-102,-99,-98,-98,-98,-100,-99,-104,-102,-103,-108,-111,-111,-111,-113,-117,-119,-116,-116,-117,-122,-122,-119,-120,-121,-123,-120,-125,-122,-123,-124,-121,-123,-125,-124,-128,-125,-121,-122,-118,-117,-114,-112,-102,-104,-111,-110,-104,-105,-111,-114,-120,-131,-140,-138,-136,-138,-137,-134,-132,-129,-134,-141,-74,140,606,877,552,-207,-466,-423,-361,-276,-169,-117,-93,-76,-63,-51,-39,-25,-17,-3,12,25,42,69,98,125,158,196,235,269,298,323,339,349,337,305,252
2019-05-14,15:40:10.288,191,124,64,14,-25,-47,-64,-76,-84,-89,-91,-92,-91,-92,-90,-88,-88,-89,-90,-88,-86,-86,-85,-85,-91,-91,-90,-90,-91,-95,-95,-91,-93,-97,-104,-102,-100,-105,-103,-104,-103,-105,-104,-106,-106,-103,-108,-105,-106,-104,-107,-109,-110,-108,-108,-108,-107,-111,-108,-109,-111,-110,-109,-99,-100,-107,-101,-90,-92,-100,-101,-105,-115,-121,-121,-118,-120,-118,-119,-117,-115,-117,-118,-41,194,637,836,452,-265,-438,-400,-350,-273,-172,-115,-86,-73,-56,-43,-35,-25,-16,-6,11,22,39,63,86,116,148,180,215,243,267,286,294,297,290,254,207,156,96,48,2,-30,-58,-75,-84
2019-05-14,15:40:11.316,-97,-102,-103,-101,-102,-100,-99,-101,-102,-98,-91,-94,-89,-84,-88,-90,-92,-91,-97,-94,-97,-100,-102,-103,-102,-103,-104,-107,-111,-115,-114,-116,-112,-111,-112,-117,-121,-119,-119,-116,-117,-120,-118,-117,-116,-114,-108,-98,-99,-107,-104,-98,-97,-98,-102,-108,-118,-122,-123,-120,-120,-122,-120,-117,-112,-115,-100,-19,202,628,801,407,-269,-440,-402,-348,-262,-160,-105,-76,-61,-49,-36,-25,-11,1,13,23,34,54,77,103,134,168,208,240,273,301,317,330,331,316,282,234,175,113,62,20,-14,-37,-54,-62,-71,-71,-73,-74,-77,-76,-73,-72,-67,-64,-65,-61,-60,-57,-56,-58
2019-05-14,15:40:12.344,-59,-61,-63,-68,-71,-70,-80,-81,-81,-80,-82,-84,-85,-84,-83,-88,-89,-85,-84,-85,-84,-88,-88,-85,-84,-89,-88,-87,-82,-85,-86,-88,-84,-82,-80,-73,-78,-81,-74,-69,-73,-75,-77,-82,-94,-100,-99,-102,-99,-96,-96,-100,-94,-99,-67,37,345,802,808,268,-358,-408,-368,-294,-189,-105,-63,-46,-29,-14,-7,7,18,25,42,58,75,92,114,147,179,217,252,286,315,342,364,380,378,362,319,262,197,134,79,35,4,-20,-34,-48,-54,-58,-63,-62,-60,-59,-56,-54,-53,-54,-49,-48,-54,-52,-54,-54,-54,-54,-56,-58,-60,-64,-69,-68,-70,-74,-77,-77
2019-05-14,15:40:13.372,-79,-77,-77,-78,-80,-81,-82,-80,-81,-84,-81,-81,-82,-78,-80,-82,-85,-84,-84,-83,-85,-84,-75,-64,-65,-77,-71,-66,-64,-71,-76,-84,-90,-98,-102,-103,-106,-110,-105,-99,-100,-106,-104,-40,155,604,915,626,-125,-438,-396,-341,-254,-141,-85,-61,-45,-33,-23,-12,-2,7,24,41,57,73,91,118,148,184,223,258,294,322,347,361,370,359,327,271,211,148,89,42,4,-24,-47,-57,-66,-66,-70,-77,-75,-73,-69,-71,-72,-70,-68,-67,-68,-63,-61,-62,-66,-66,-68,-70,-73,-73,-76,-78,-73,-81,-78,-83,-86,-84,-88,-86,-88,-89,-89,-90,-90,-94,-96,-96
2019-05-14,15:40:14.400,-95,-93,-91,-94,-91,-91,-96,-95,-97,-90,-84,-89,-86,-81,-76,-81,-88,-94,-104,-110,-112,-112,-112,-112,-110,-105,-107,-105,-105,-52,90,446,802,645,-3,-406,-399,-364,-291,-191,-114,-77,-59,-40,-24,-18,-8,4,16,25,42,57,78,101,129,162,198,229,265,293,314,329,334,330,303,262,203,142,92,51,14,-14,-34,-49,-55,-65,-66,-72,-73,-70,-67,-69,-69,-66,-63,-62,-61,-57,-54,-49,-51,-55,-57,-57,-55,-63,-68,-70,-67,-73,-74,-70,-77,-80,-81,-80,-79,-81,-82,-82,-84,-79,-78,-77,-78,-75,-74,-78,-79,-79,-74,-64,-66,-71,-68,-63,-63,-63
2019-05-14,15:40:15.428,-61,-67,-74,-80,-86,-84,-86,-85,-84,-85,-86,-83,-75,-2,187,613,858,529,-161,-419,-382,-329,-242,-134,-73,-43,-27,-14,0,8,18,29,43,59,70,88,112,143,177,211,248,283,317,346,367,383,388,378,345,286,226,164,112,68,29,7,-9,-21,-22,-26,-22,-42,-35,-47,-58,-47,-37,-41,-34,-29,-15,-13,-14,-20,-36,-35,-27,-28,-16,-9,-28,-32,-54,-46,-42,-61,-56,-49,-48,-46,-48,-52,-42,-33,-52,-60,-56,-63,-64,-63,-64,-69,-72,-66,-66,-66,-73,-82,-78,-69,-68,-70,-72,-64,-53,-62,-86,-87,-99,-106,-105,-113,-111,-110,-112,-116,-121,-122
2019-05-14,15:40:16.456,-130,-87,33,390,833,738,122,-464,-458,-412,-339,-209,-143,-115,-99,-87,-68,-62,-51,-33,-18,-14,-14,7,37,59,83,122,163,196,236,268,286,322,330,323,293,257,190,130,82,27,-22,-58,-78,-93,-95,-102,-112,-112,-111,-105,-101,-108,-107,-118,-112,-100,-90,-92,-90,-103,-96,-97,-102,-95,-87,-93,-105,-111,-108,-107,-110,-109,-108,-117,-113,-108,-110,-113,-105,-106,-118,-106,-99,-108,-109,-110,-101,-97,-102,-110,-104,-106,-97,-109,-100,-95,-97,-98,-96,-82,-84,-87,-97,-100,-102,-118,-117,-108,-103,-99,-113,-111,-108,-107,-106,-76,33,301,713,725,206,-369,-434,-401,-330,-239
2019-05-14,15:40:17.484,-144,-97,-73,-43,-40,-25,-19,-4,1,20,27,48,60,91,114,149,181,212,244,275,288,306,325,337,316,287,237,174,113,73,32,9,-10,-40,-39,-50,-55,-49,-50,-46,-56,-50,-48,-37,-34,-42,-30,-28,-31,-24,-15,-27,-25,-30,-35,-35,-27,-27,-35,-38,-43,-47,-35,-29,-38,-38,-33,-36,-33,-29,-29,-39,-40,-29,-31,-34,-29,-36,-34,-23,-21,-21,-25,-8,-6,0,6,4,2,-19,-19,-24,-30,-27,-40,-39,-36,-35,-31,7,97,321,709,762,317,-262,-370,-337,-277,-195,-106,-40,-17,-2,11,17,28,34,51,60,70,93,120,139,167,190,227,257
2019-05-14,15:40:18.512,291,328,361,378,383,398,373,336,297,243,188,158,113,70,54,48,39,25,31,17,17,31,39,25,25,41,48,46,45,46,40,40,37,39,36,38,39,24,20,25,22,12,2,14,19,13,-2,14,21,4,1,15,20,19,18,20,19,24,13,17,21,30,33,33,32,32,48,41,36,51,50,36,38,40,29,25,19,22,27,10,11,28,29,34,34,92,217,541,930,774,174,-302,-299,-248,-168,-57,21,63,84,100,119,132,143,148,154,171,187,196,219,253,267,296,338,383,423,452,469,493,508,496,466,422,370,312,260,215,160,121
2019-05-14,15:40:19.540,114,99,96,82,75,81,80,82,76,78,84,76,80,90,92,84,90,82,80,78,70,63,65,61,67,60,56,50,42,50,46,40,37,39,33,32,35,36,37,25,30,26,15,13,22,19,17,18,24,14,12,15,18,16,13,21,27,24,19,29,30,22,11,16,7,-10,-17,-20,-15,-14,-19,-18,-11,-10,-13,2,92,303,748,920,520,-176,-392,-339,-274,-167,-67,-28,0,31,39,32,40,51,61,90,100,115,145,155,171,203,247,278,321,354,375,403,433,416,406,379,336,261,198,149,88,51,37,8,-9,-1,-8,-20,-23,-13,-21,-27
2019-05-14,15:40:20.568,-14,-13,-5,-6,-14,-9,-6,-12,-17,-9,-13,-19,-17,-17,-28,-29,-32,-30,-34,-28,-36,-49,-32,-39,-44,-47,-42,-54,-61,-57,-49,-53,-58,-58,-61,-65,-65,-67,-60,-70,-72,-55,-76,-79,-71,-74,-72,-62,-56,-64,-54,-64,-64,-58,-49,-62,-73,-75,-74,-94,-88,-99,-102,-100,-100,-93,-90,-88,-92,-71,9,275,732,807,341,-330,-448,-409,-339,-241,-144,-91,-53,-49,-31,-17,-8,-5,8,10,29,43,65,90,120,143,166,209,241,281,295,294,326,320,303,277,233,171,102,53,19,-27,-59,-74,-90,-97,-99,-101,-97,-88,-91,-105,-108,-103,-113,-108,-100,-92
2019-05-14,15:40:21.596,-91,-100,-87,-97,-107,-111,-117,-119,-117,-106,-101,-111,-134,-134,-140,-130,-121,-147,-152,-146,-134,-142,-135,-144,-141,-133,-138,-156,-151,-135,-142,-153,-148,-132,-130,-147,-146,-133,-131,-139,-127,-108,-116,-123,-132,-139,-156,-161,-147,-152,-141,-158,-161,-158,-146,-142,-102,0,229,599,600,131,-400,-481,-440,-388,-299,-195,-138,-112,-100,-92,-76,-67,-57,-45,-27,-26,-18,14,37,59,88,120,149,175,203,227,242,256,257,238,205,157,103,61,12,-34,-66,-89,-110,-122,-122,-126,-125,-125,-123,-124,-123,-121,-124,-118,-115,-108,-102,-109,-109,-111,-113,-107,-115,-121,-126,-123,-116,-114,-116,-123
2019-05-14,15:40:22.624,-119,-117,-121,-124,-126,-127,-121,-126,-128,-123,-122,-122,-131,-130,-131,-126,-126,-127,-126,-123,-118,-113,-108,-119,-125,-110,-110,-116,-122,-127,-130,-142,-139,-140,-141,-142,-133,-132,-135,-131,-126,-75,31,309,702,620,94,-426,-461,-414,-341,-247,-152,-113,-92,-71,-51,-42,-36,-16,-5,1,13,30,50,73,101,129,163,201,240,267,285,299,318,321,299,262,212,159,98,46,8,-23,-47,-62,-69,-80,-83,-89,-88,-93,-91,-88,-87,-84,-79,-81,-78,-76,-70,-67,-68,-76,-75,-77,-78,-75,-83,-92,-92,-90,-88,-95,-99,-89,-86,-92,-88,-90,-89,-91,-89,-80,-85,-90,-86,-80
2019-05-14,15:40:23.652,-90,-90,-88,-86,-89,-88,-93,-95,-92,-84,-81,-72,-73,-78,-75,-73,-78,-82,-87,-98,-101,-99,-93,-90,-100,-96,-98,-103,-100,-77,14,204,602,781,395,-229,-460,-407,-331,-235,-130,-82,-54,-36,-20,-12,-1,14,25,30,31,44,65,91,120,153,188,226,252,286,316,346,369,377,365,329,281,224,161,107,55,17,-9,-26,-40,-50,-52,-55,-58,-59,-61,-62,-57,-50,-48,-45,-46,-50,-54,-46,-39,-47,-49,-47,-46,-48,-50,-48,-51,-61,-62,-59,-54,-59,-66,-64,-59,-61,-62,-61,-59,-65,-62,-55,-55,-67,-68,-64,-66,-67,-65,-61,-64,-60,-53,-42,-45,-52
2019-05-14,15:40:24.680,-46,-44,-49,-56,-55,-65,-77,-80,-77,-79,-83,-80,-77,-79,-79,-79,-78,-12,159,562,874,624,-66,-420,-388,-341,-258,-137,-74,-42,-29,-8,4,12,19,30,51,59,74,91,118,143,173,208,252,284,315,343,364,385,396,390,360,315,254,193,139,92,50,23,6,-8,-17,-16,-31,-34,-27,-29,-31,-29,-27,-24,-22,-25,-22,-14,-22,-32,-31,-33,-31,-34,-35,-38,-34,-39,-41,-46,-49,-56,-57,-56,-54,-56,-54,-55,-55,-58,-50,-55,-61,-63,-60,-56,-67,-70,-62,-61,-62,-62,-67,-62,-54,-53,-61,-61,-55,-45,-47,-53,-65,-74,-77,-76,-76,-79,-77,-75
2019-05-14,15:40:25.708,-70,-72,-76,-65,3,199,595,837,515,-173,-398,-374,-333,-253,-149,-80,-50,-39,-22,-7,3,15,25,38,51,62,80,98,124,151,183,222,252,268,297,319,333,337,331,307,265,210,156,108,60,32,11,-14,-26,-35,-37,-44,-43,-35,-34,-39,-33,-27,-26,-27,-24,-22,-15,-12,-20,-21,-22,-20,-22,-23,-22,-20,-15,-33,-29,-25,-28,-27,-27,-28,-30,-31,-26,-27,-33,-39,-40,-38,-37,-42,-40,-40,-36,-26,-23,-27,-28,-24,-24,-28,-34,-39,-47,-57,-59,-56,-57,-60,-62,-60,-60,-65,-48,27,230,638,850,497,-182,-398,-368,-315,-228,-120,-53,-22,-3,7
2019-05-14,15:40:26.736,24,36,49,60,70,88,105,120,141,166,193,231,268,299,334,359,377,393,400,385,351,302,246,185,133,92,63,38,20,10,-7,-11,-17,-16,-15,-17,-14,-10,-9,-4,-4,0,4,2,1,1,0,0,-2,-6,-8,-7,-10,-13,-12,-11,-12,-10,-12,-20,-21,-19,-22,-19,-19,-23,-23,-25,-23,-23,-22,-20,-23,-24,-25,-24,-25,-16,-3,-8,-12,-5,1,1,-2,-7,-10,-26,-29,-27,-29,-34,-36,-35,-35,-34,-35,-10,94,402,863,892,337,-305,-366,-321,-246,-144,-49,-7,13,29,42,57,70,81,90,103,122,142,157,180,209,237,270,314,351,383
2019-05-14,15:40:27.764,401,422,434,438,415,372,314,251,192,135,93,64,41,23,14,7,4,0,4,2,-1,1,0,2,8,11,13,16,14,17,14,16,14,12,9,8,5,2,3,1,-1,-2,-1,1,1,1,-2,-7,-3,-7,-5,-1,-4,-2,1,-4,-1,-1,-5,-5,2,7,20,14,11,14,20,17,19,14,9,-9,-11,-13,-11,-15,-14,-12,-9,-10,-15,10,116,421,894,937,388,-276,-342,-293,-223,-122,-36,4,31,45,59,71,81,93,103,113,130,147,163,189,218,249,284,322,361,393,418,446,459,459,438,397,340,274,215,163,117,84,59,42,31,26
2019-05-14,15:40:28.792,21,17,17,15,19,19,23,23,20,23,26,26,26,26,23,24,22,22,20,19,20,13,13,12,9,10,6,-1,1,-1,-3,-5,-6,-5,-4,-3,-6,-3,1,13,12,2,13,20,15,10,0,-9,-19,-24,-24,-18,-16,-18,-13,-14,-15,-20,-8,82,358,836,973,483,-238,-362,-325,-255,-155,-53,-8,16,31,47,59,71,81,92,108,124,141,164,189,219,249,286,323,360,390,418,437,449,453,427,382,323,257,193,142,99,68,48,31,20,12,4,-1,-1,-1,3,-2,0,3,5,6,6,7,8,5,3,1,-6,-5,-10,-9,-17,-17,-17
2019-05-14,15:40:29.820,-20,-20,-20,-21,-23,-24,-28,-38,-33,-34,-34,-31,-25,-26,-31,-21,-17,-20,-23,-26,-37,-51,-59,-60,-63,-65,-60,-59,-59,-60,-66,-57,25,256,705,917,508,-216,-392,-361,-308,-224,-117,-58,-32,-17,-3,10,22,36,50,59,72,83,102,125,151,184,216,253,281,312,340,356,367,366,345,305,253,196,142,93,53,24,-4,-20,-31,-40,-45,-49,-52,-52,-51,-50,-45,-44,-41,-38,-35,-35,-35,-37,-41,-42,-45,-49,-46,-50,-49,-52,-58,-58,-59,-60,-64,-61,-59,-58,-61,-64,-65,-63,-64,-63,-62,-61,-49,-50,-57,-54,-50,-48,-51,-58,-63,-72,-79,-81
2019-05-14,15:40:30.848,-81,-81,-82,-79,-75,-75,-74,-77,-30,95,429,824,710,89,-382,-396,-363,-292,-193,-105,-63,-42,-25,-14,-5,6,17,26,40,52,70,93,118,145,179,217,253,282,313,337,351,358,349,324,276,219,159,104,61,22,-2,-18,-32,-42,-47,-50,-54,-55,-54,-51,-48,-42,-40,-37,-34,-36,-35,-30,-32,-34,-37,-42,-43,-45,-43,-46,-45,-48,-50,-53,-53,-55,-54,-59,-60,-59,-61,-62,-60,-60,-64,-65,-63,-62,-61,-60,-65,-61,-55,-47,-43,-51,-52,-50,-53,-54,-56,-58,-68,-78,-79,-78,-76,-75,-73,-67,-64,-64,-72,-22,105,464,873,731,92,-401,-390,-337
2019-05-14,15:40:31.876,-262,-148,-78,-46,-30,-14,2,18,25,36,48,63,76,90,116,141,170,204,238,274,313,344,366,389,402,392,366,321,258,194,137,85,46,18,-1,-13,-25,-29,-32,-34,-33,-32,-37,-36,-33,-31,-30,-27,-25,-23,-25,-23,-26,-29,-32,-31,-29,-34,-37,-40,-40,-42,-43,-45,-44,-47,-47,-49,-53,-56,-52,-53,-52,-53,-54,-52,-52,-54,-54,-51,-50,-51,-57,-59,-56,-53,-51,-55,-51,-43,-41,-38,-45,-39,-32,-30,-42,-43,-45,-52,-64,-61,-61,-59,-54,-57,-54,-49,-48,-51,0,131,499,901,735,93,-390,-370,-332,-256,-140,-69,-33,-10,4,17,24,27
2019-05-14,15:40:32.904,30,42,54,69,81,105,134,161,190,223,268,303,325,345,368,374,372,341,290,231,167,104,47,2,-26,-47,-70,-80,-86,-93,-96,-99,-97,-94,-99,-92,-89,-88,-94,-93,-96,-93,-94,-101,-110,-115,-112,-117,-119,-120,-119,-118,-124,-135,-136,-135,-136,-133,-134,-136,-134,-136,-144,-140,-136,-140,-134,-132,-135,-138,-139,-136,-140,-139,-140,-141,-138,-138,-136,-131,-121,-115,-117,-115,-117,-110,-114,-117,-124,-133,-136,-142,-145,-143,-138,-132,-131,-141,-140,-144,-123,-35,221,688,804,350,-340,-471,-421,-361,-268,-164,-110,-79,-64,-55,-49,-37,-19,-10,5,21,41,58,73,111,143,180
2019-05-14,15:40:33.932,211,247,279,298,306,325,326,318,287,239,182,125,73,25,-9,-24,-43,-59,-69,-74,-82,-81,-78,-76,-64,-58,-59,-60,-63,-55,-51,-65,-67,-59,-60,-54,-43,-34,-55,-51,-54,-59,-66,-73,-73,-70,-62,-60,-66,-54,-69,-73,-67,-66,-68,-85,-84,-65,-64,-78,-75,-74,-80,-78,-69,-80,-85,-72,-60,-68,-71,-62,-55,-62,-74,-75,-86,-98,-103,-97,-99,-103,-108,-107,-106,-105,-97,-67,13,252,701,799,359,-306,-444,-392,-324,-220,-118,-73,-50,-37,-24,-15,3,11,24,35,44,57,79,102,129,159,199,234,270,305,332,357,369,367,354,322,268,204,141,84
2019-05-14,15:40:34.960,42,12,-16,-31,-40,-44,-49,-52,-55,-63,-61,-59,-54,-57,-53,-54,-50,-47,-47,-52,-55,-54,-59,-64,-63,-58,-55,-65,-69,-77,-78,-76,-76,-78,-77,-79,-77,-77,-76,-79,-78,-74,-77,-78,-75,-75,-73,-74,-71,-67,-71,-77,-75,-73,-70,-70,-60,-49,-52,-55,-50,-42,-52,-53,-56,-64,-70,-74,-77,-76,-75,-74,-74,-74,-72,-77,-29,101,467,883,756,118,-397,-390,-340,-263,-151,-77,-40,-16,-5,5,11,23,37,51,63,82,99,125,150,180,216,247,284,318,345,368,385,399,390,366,325,269,205,146,98,54,28,1,-15,-23,-31,-37,-42,-41,-38,-36
2019-05-14,15:40:35.988,-33,-34,-38,-35,-32,-26,-25,-25,-27,-28,-29,-30,-33,-34,-36,-40,-42,-42,-41,-43,-41,-44,-39,-44,-47,-47,-50,-48,-46,-43,-37,-36,-36,-33,-31,-36,-40,-43,-36,-36,-32,-31,-30,-27,-20,-18,-21,-17,-13,-14,-21,-24,-26,-34,-39,-41,-43,-43,-38,-36,-32,-31,-36,-22,64,301,709,833,421,-216,-350,-319,-268,-184,-77,-18,10,26,40,57,69,76,84,101,117,132,148,169,194,227,261,291,323,349,375,394,401,407,396,368,321,273,219,170,128,97,69,51,41,33,25,22,23,27,25,32,30,33,34,36,40,45,50,44,37,43,41,39
2019-05-14,15:40:37.016,35,34,28,23,22,18,17,16,13,8,13,14,11,11,11,6,4,5,2,3,1,-4,0,0,-1,-6,-6,1,10,3,-9,-6,2,-7,-4,-6,-19,-33,-36,-37,-42,-43,-41,-40,-43,-39,-46,-18,82,358,784,797,277,-323,-390,-346,-281,-189,-93,-51,-28,-14,-1,12,22,31,40,54,72,86,100,119,147,175,217,254,283,313,337,357,369,368,348,305,250,185,129,79,39,9,-18,-34,-47,-58,-60,-63,-60,-60,-60,-58,-60,-58,-55,-57,-54,-53,-53,-55,-53,-54,-60,-64,-65,-63,-64,-67,-74,-76,-78,-77,-78,-77,-84,-85,-80,-85,-87,-83
2019-05-14,15:40:38.044,-85,-85,-83,-87,-85,-82,-85,-87,-87,-84,-81,-84,-91,-86,-85,-85,-80,-68,-60,-74,-76,-67,-60,-62,-67,-67,-73,-81,-79,-78,-79,-75,-72,-69,-74,-71,-66,-14,131,509,888,709,64,-392,-373,-319,-238,-129,-59,-28,-7,8,20,31,42,50,64,80,94,108,129,152,186,217,256,292,326,355,382,396,411,410,382,338,275,212,152,99,61,35,19,1,-10,-18,-20,-21,-23,-20,-23,-25,-23,-23,-20,-11,-10,-12,-10,-11,-15,-18,-24,-21,-26,-28,-27,-30,-31,-32,-35,-41,-40,-45,-46,-46,-49,-51,-50,-49,-48,-47,-50,-53,-54,-57,-58,-55,-56,-57
2019-05-14,15:40:39.072,-55,-55,-52,-56,-61,-64,-67,-64,-55,-54,-56,-51,-47,-51,-49,-48,-53,-63,-64,-63,-61,-61,-60,-56,-51,-50,-52,-38,38,248,678,881,523,-163,-364,-332,-278,-193,-86,-25,5,19,31,47,62,72,78,90,104,120,137,157,182,210,245,278,313,347,366,385,404,413,395,365,317,267,207,150,107,73,52,31,16,9,3,0,-5,-8,-2,4,5,4,6,6,7,12,5,5,4,7,13,17,11,4,-3,-7,-12,-15,-14,-12,-15,-19,-21,-17,-17,-23,-23,-24,-25,-22,-25,-27,-25,-23,-26,-28,-31,-31,-28,-27,-24,-22,-18,-10,-9,-15,-15,-6
2019-05-14,15:40:40.100,-1,-5,-9,-18,-24,-33,-34,-40,-40,-34,-33,-33,-30,-34,-28,38,181,562,888,646,-6,-373,-350,-304,-220,-113,-41,-8,12,26,37,47,58,70,79,93,110,125,145,174,200,232,266,306,338,367,390,404,412,399,376,328,267,207,152,100,64,38,15,3,-6,-18,-24,-24,-31,-29,-26,-26,-24,-24,-22,-18,-22,-21,-19,-16,-14,-21,-25,-23,-25,-28,-33,-37,-36,-37,-35,-38,-43,-41,-42,-40,-43,-45,-42,-41,-45,-45,-42,-44,-47,-45,-40,-47,-45,-42,-44,-43,-43,-44,-43,-46,-46,-42,-34,-31,-37,-35,-28,-24,-29,-37,-37,-43,-45,-48,-51,-49
2019-05-14,15:40:41.128,-50,-45,-43,-44,-41,-32,39,243,690,908,561,-146,-390,-347,-282,-189,-84,-33,-10,4,17,29,37,48,62,77,91,101,115,138,172,200,237,270,304,338,364,387,406,414,398,364,316,249,188,130,86,47,20,-2,-17,-27,-35,-33,-35,-38,-37,-38,-39,-35,-39,-41,-38,-39,-41,-45,-46,-44,-45,-53,-60,-59,-59,-59,-67,-72,-74,-82,-87,-91,-94,-93,-97,-100,-102,-103,-100,-108,-112,-115,-113,-115,-115,-122,-126,-122,-124,-127,-132,-132,-129,-131,-135,-139,-131,-124,-123,-130,-136,-134,-123,-128,-134,-138,-148,-158,-160,-164,-159,-159,-163,-158,-160,-161,-158,-105,27,367
2019-05-14,15:40:42.156,704,537,-71,-469,-469,-437,-362,-263,-177,-140,-116,-105,-92,-81,-67,-60,-52,-33,-19,-1,17,46,71,102,127,167,196,227,246,265,282,278,258,223,172,127,68,27,-9,-37,-55,-65,-74,-78,-82,-85,-87,-83,-83,-81,-76,-68,-64,-63,-62,-60,-58,-51,-51,-53,-55,-59,-57,-59,-61,-62,-63,-60,-58,-60,-59,-61,-59,-59,-60,-61,-55,-60,-61,-60,-57,-54,-48,-44,-42,-41,-41,-40,-42,-39,-41,-32,-25,-29,-26,-28,-22,-21,-23,-24,-38,-50,-47,-49,-47,-48,-44,-41,-46,-47,-38,23,153,494,843,661,68,-361,-358,-315,-238,-129,-55,-19,-3,15,31,39
2019-05-14,15:40:43.184,50,58,74,86,105,119,142,171,200,228,265,300,336,364,386,405,418,415,394,351,292,234,171,122,83,53,38,26,16,13,7,1,7,7,8,6,10,12,18,20,21,22,19,16,17,15,15,13,11,12,6,1,5,7,6,2,-2,-3,-1,-4,-6,-9,-14,-15,-8,-7,-7,-9,-10,-13,-12,-10,-10,-13,-11,-12,-16,-13,-11,-8,-3,-1,-10,-6,-1,-1,-2,-7,-17,-25,-30,-31,-33,-29,-28,-26,-28,-25,-25,-17,50,224,642,930,641,-43,-358,-324,-271,-183,-72,-16,18,32,42,55,69,84,87,94,113,130,145,165,188,217,255,291
2019-05-14,15:40:44.212,333,368,398,417,436,442,435,407,359,299,237,176,129,92,64,42,24,18,12,6,2,3,3,4,1,4,5,7,8,14,12,13,13,15,8,9,1,-3,-6,-8,-12,-15,-20,-23,-24,-27,-28,-33,-34,-39,-37,-37,-40,-40,-40,-41,-41,-46,-44,-39,-40,-44,-42,-43,-45,-45,-47,-49,-48,-53,-48,-45,-44,-37,-47,-45,-36,-30,-32,-36,-46,-51,-61,-67,-66,-61,-60,-59,-58,-53,-56,-56,-5,121,473,866,734,106,-372,-370,-326,-256,-154,-76,-42,-24,-12,0,15,23,38,47,59,70,87,110,132,160,195,232,267,303,336,358,373,385,382,359
2019-05-14,15:40:45.240,316,261,208,152,106,64,30,7,-5,-16,-19,-23,-26,-27,-27,-28,-28,-27,-19,-17,-18,-22,-22,-22,-21,-22,-23,-20,-24,-26,-25,-34,-37,-40,-42,-40,-41,-42,-45,-43,-45,-45,-44,-47,-54,-55,-51,-52,-49,-50,-52,-57,-56,-53,-56,-55,-55,-52,-54,-56,-48,-42,-47,-48,-41,-35,-37,-41,-53,-54,-57,-65,-64,-62,-63,-64,-61,-55,-55,-53,16,183,565,862,606,-45,-380,-356,-312,-226,-115,-46,-7,12,21,28,51,58,61,83,96,115,135,156,180,211,242,277,320,366,390,403,422,425,422,397,358,301,262,200,152,97,56,49,33,28,27,35
2019-05-14,15:40:46.268,63,55,38,34,16,8,24,35,38,44,61,66,48,65,54,21,33,35,29,32,39,57,38,28,36,43,27,18,15,23,30,24,44,43,29,53,35,37,29,8,28,39,33,27,48,45,59,39,41,56,57,57,45,43,54,61,67,62,35,41,60,41,16,20,17,38,31,31,41,59,112,263,673,976,655,63,-334,-280,-221,-128,-12,73,93,57,89,111,141,167,178,179,176,183,194,217,252,277,325,370,395,454,512,486,507,544,506,490,454,409,354,247,218,191,159,130,126,130,91,97,54,55,82,76,80,110,113,60,90,53
2019-05-14,15:40:47.296,34,48,62,52,82,58,51,28,23,25,26,36,29,17,23,23,29,-35,-6,6,5,2,-2,-5,1,-5,-29,-6,-20,-28,-16,-13,-16,-19,-12,-8,-31,-28,-28,-22,-7,-7,-8,7,-13,-20,-16,-20,-14,-11,-30,-30,-9,-16,-34,-20,-13,-16,-6,-5,24,139,481,946,931,362,-278,-327,-278,-193,-72,23,70,87,97,108,131,147,162,181,207,225,231,252,280,311,345,381,419,458,494,538,554,566,575,541,506,454,388,329,279,232,198,163,137,126,125,119,119,116,118,111,110,115,114,125,104,101,99,98,101,104,88,71,66,58,46,41
2019-05-14,15:40:48.324,36,25,15,2,-9,-18,-26,-31,-34,-32,-38,-51,-50,-50,-61,-74,-64,-59,-63,-67,-67,-51,-50,-62,-73,-75,-77,-83,-78,-70,-80,-69,-13,-31,-44,-36,-42,-43,-33,-29,-15,-16,-18,39,81,74,59,48,104,275,650,1020,894,211,-201,-203,-156,-77,16,100,146,178,204,223,248,271,304,315,351,372,391,407,435,461,501,541,571,598,621,653,659,648,641,606,560,500,443,373,304,256,223,241,224,166,137,132,127,118,110,111,115,118,113,118,117,95,87,64,29,15,3,-4,-16,-24,-17,-31,-46,-51,-41,-55,-71,-79,-89,-93,-86,-87,-107,-121
2019-05-14,15:40:49.352,-127,-115,-127,-154,-160,-158,-161,-168,-168,-183,-193,-204,-211,-222,-223,-217,-224,-241,-234,-231,-221,-243,-252,-253,-278,-292,-305,-303,-301,-306,-309,-316,-321,-323,-333,-273,-87,352,632,314,-424,-703,-677,-618,-507,-402,-339,-298,-276,-253,-241,-238,-210,-202,-196,-182,-182,-164,-147,-121,-92,-57,-27,6,36,54,74,84,94,79,46,-7,-84,-162,-222,-273,-317,-356,-382,-403,-412,-413,-431,-441,-450,-455,-453,-465,-473,-473,-470,-470,-472,-468,-461,-464,-468,-483,-481,-478,-478,-473,-478,-484,-489,-482,-483,-495,-494,-491,-495,-496,-498,-490,-491,-490,-499,-494,-487,-502,-508,-501,-497,-494,-495,-489,-489,-487
2019-05-14,15:40:50.380,-478,-475,-460,-476,-488,-483,-481,-469,-470,-478,-486,-475,-479,-504,-494,-483,-480,-485,-491,-482,-493,-518,-440,-267,135,485,272,-430,-802,-785,-760,-689,-574,-487,-449,-429,-408,-383,-382,-363,-350,-333,-309,-302,-285,-260,-237,-200,-161,-125,-82,-45,-15,5,14,27,36,21,-25,-79,-125,-182,-252,-282,-293,-318,-342,-321,-298,-305,-337,-345,-337,-357,-324,-299,-303,-285,-291,-296,-301,-303,-304,-319,-322,-324,-313,-289,-299,-302,-312,-316,-317,-314,-313,-305,-308,-305,-302,-309,-311,-318,-307,-300,-308,-313,-317,-311,-310,-305,-303,-301,-295,-291,-303,-301,-297,-289,-289,-288,-296,-308,-302,-299,-298,-292,-299,-308
2019-05-14,15:40:51.408,-308,-308,-305,-294,-227,-52,338,607,317,-358,-651,-615,-582,-506,-395,-328,-297,-277,-265,-253,-243,-233,-218,-205,-194,-182,-165,-140,-119,-96,-63,-26,10,38,59,72,78,91,87,57,10,-40,-97,-154,-210,-240,-276,-299,-305,-306,-324,-326,-328,-347,-349,-346,-336,-333,-334,-330,-337,-334,-333,-336,-333,-337,-342,-351,-353,-353,-354,-371,-375,-377,-378,-378,-377,-378,-384,-391,-400,-398,-397,-395,-401,-408,-406,-392,-399,-410,-418,-415,-413,-411,-411,-412,-404,-416,-405,-405,-414,-428,-426,-425,-445,-465,-469,-469,-486,-480,-477,-472,-479,-493,-499,-457,-342,-32,424,399,-189,-797,-843,-806,-726,-624,-538,-495
2019-05-14,15:40:52.436,-477,-466,-453,-439,-432,-422,-411,-401,-389,-380,-365,-336,-316,-275,-236,-206,-206,-136,-84,-94,-77,-105,-140,-168,-211,-261,-325,-365,-467,-534,-469,-501,-527,-549,-552,-540,-554,-538,-523,-546,-543,-522,-525,-535,-529,-538,-512,-518,-552,-523,-512,-523,-526,-533,-546,-561,-542,-522,-554,-533,-529,-561,-544,-538,-544,-546,-545,-552,-542,-533,-545,-572,-556,-547,-546,-551,-553,-552,-553,-554,-553,-550,-556,-535,-539,-527,-519,-522,-533,-536,-556,-574,-542,-511,-544,-555,-555,-551,-541,-541,-538,-539,-514,-369,22,454,337,-349,-880,-884,-824,-745,-636,-568,-521,-499,-478,-468,-456,-449,-434,-421,-409,-395,-372,-353,-332,-297
2019-05-14,15:40:53.464,-262,-221,-182,-139,-103,-85,-63,-53,-46,-69,-131,-187,-250,-310,-360,-397,-428,-458,-481,-492,-494,-497,-496,-498,-497,-488,-494,-492,-498,-487,-483,-495,-489,-490,-486,-488,-476,-473,-479,-483,-497,-496,-486,-491,-494,-498,-492,-490,-495,-495,-487,-479,-487,-477,-493,-494,-484,-498,-497,-490,-491,-479,-484,-478,-497,-477,-488,-490,-494,-488,-487,-480,-483,-486,-473,-475,-476,-484,-489,-487,-494,-499,-509,-504,-513,-529,-501,-500,-494,-499,-479,-389,-98,352,414,-126,-761,-833,-789,-726,-656,-552,-499,-466,-459,-448,-436,-425,-411,-395,-381,-369,-373,-335,-320,-300,-266,-239,-202,-159,-118,-110,-74,-62,-78,-89,-120,-175
2019-05-14,15:40:54.492,-229,-286,-342,-379,-415,-439,-422,-450,-462,-475,-500,-488,-468,-482,-479,-496,-475,-469,-473,-463,-476,-498,-461,-477,-479,-467,-462,-487,-494,-494,-481,-476,-491,-496,-488,-504,-490,-487,-490,-506,-485,-484,-501,-491,-468,-481,-486,-478,-491,-480,-467,-455,-470,-472,-468,-450,-452,-474,-455,-450,-448,-446,-453,-459,-467,-476,-466,-478,-484,-464,-455,-456,-469,-463,-454,-418,-320,-50,395,419,-107,-712,-771,-733,-666,-585,-472,-416,-391,-379,-371,-369,-325,-322,-312,-294,-286,-256,-240,-218,-192,-170,-123,-75,-55,-17,7,35,48,47,28,-12,-71,-119,-184,-239,-275,-308,-331,-355,-361,-362,-372,-357,-361,-375,-372,-353
2019-05-14,15:40:55.520,-356,-362,-361,-355,-352,-338,-348,-355,-344,-335,-347,-351,-353,-345,-346,-353,-355,-356,-356,-354,-352,-359,-362,-350,-348,-357,-356,-363,-356,-350,-344,-347,-349,-348,-348,-349,-347,-348,-349,-349,-344,-345,-343,-342,-337,-326,-326,-328,-318,-313,-318,-324,-325,-332,-345,-346,-339,-338,-332,-329,-329,-326,-327,-325,-300,-218,17,473,614,183,-502,-660,-609,-550,-449,-341,-291,-271,-257,-241,-229,-212,-203,-195,-178,-162,-150,-127,-114,-88,-57,-18,19,66,91,118,141,158,164,152,114,63,8,-54,-106,-150,-188,-208,-225,-237,-249,-250,-249,-252,-256,-255,-248,-247,-246,-242,-242,-237,-238,-235,-235,-235,-233,-235
2019-05-14,15:40:56.548,-242,-241,-246,-254,-243,-243,-254,-254,-260,-262,-263,-261,-262,-264,-266,-262,-262,-265,-266,-267,-267,-265,-261,-266,-270,-257,-256,-258,-263,-258,-253,-251,-237,-242,-243,-241,-233,-235,-237,-244,-253,-255,-250,-253,-251,-243,-242,-243,-243,-247,-247,-209,-106,174,574,557,43,-507,-562,-525,-460,-369,-278,-229,-205,-188,-172,-154,-140,-133,-124,-111,-91,-82,-60,-35,-10,22,56,91,123,150,182,195,207,216,200,160,114,57,2,-46,-87,-119,-136,-148,-152,-163,-170,-169,-174,-175,-173,-171,-170,-169,-168,-157,-148,-149,-157,-157,-147,-156,-149,-144,-140,-145,-156,-150,-146,-153,-160,-153,-162,-165,-158,-150
2019-05-14,15:40:57.576,-157,-160,-169,-167,-161,-157,-154,-156,-150,-147,-146,-151,-149,-152,-150,-155,-149,-138,-141,-133,-132,-135,-134,-129,-121,-125,-133,-132,-134,-146,-158,-146,-142,-143,-143,-139,-145,-144,-135,-83,31,340,744,613,72,-451,-472,-421,-340,-219,-144,-109,-93,-73,-59,-47,-38,-21,-6,4,18,38,60,84,113,145,179,217,257,289,314,336,351,357,339,296,238,184,132,77,35,3,-23,-36,-51,-52,-58,-59,-55,-57,-56,-55,-50,-52,-46,-42,-42,-38,-38,-40,-38,-32,-37,-37,-42,-46,-49,-48,-41,-44,-46,-44,-42,-41,-44,-46,-38,-41,-42,-44,-40,-38,-39,-40,-37,-38,-45,-42
2019-05-14,15:40:58.604,-43,-44,-43,-43,-42,-36,-39,-42,-32,-21,-17,-26,-21,-19,-13,-21,-28,-22,-28,-32,-29,-30,-30,-27,-31,-26,-28,-25,-29,9,114,408,868,874,344,-289,-345,-295,-225,-119,-28,4,23,48,65,76,78,89,103,119,138,162,175,193,223,261,302,336,368,402,432,457,475,479,464,425,368,308,246,193,154,118,97,78,67,61,56,55,56,57,54,58,55,57,60,66,62,61,66,71,66,62,58,56,54,56,51,45,51,52,44,47,55,46,44,44,44,46,44,46,46,49,49,49,55,57,56,54,45,44,44,45,48,46,43,49,49,46
2019-05-14,15:40:59.632,49,54,56,52,57,64,73,62,59,57,45,35,33,32,32,35,40,40,40,42,40,63,158,434,878,944,450,-195,-286,-244,-179,-87,7,52,80,90,107,115,127,139,151,162,181,193,214,234,260,291,329,363,397,430,454,476,487,486,472,439,387,336,277,222,184,148,123,101,91,86,85,84,76,77,82,84,87,92,96,90,84,90,91,93,89,86,88,90,86,85,84,82,80,72,70,75,72,72,68,67,64,68,66,78,66,57,62,62,61,59,66,69,60,59,62,61,60,63,77,78,70,73,77,87,77,64,67,52,44,48
2019-05-14,15:41:00.660,55,58,54,46,49,50,49,46,91,210,525,938,858,263,-242,-261,-227,-150,-58,23,69,95,108,121,134,138,148,168,178,185,197,220,252,288,310,358,401,411,443,475,497,512,509,482,441,388,337,280,221,166,143,129,115,103,100,74,9,50,122,73,112,113,111,108,113,115,109,105,100,93,90,85,98,98,88,84,81,79,70,56,85,72,72,56,45,53,82,93,69,63,68,70,67,75,77,71,68,71,59,70,65,66,74,71,70,75,83,80,70,84,93,89,80,66,68,70,63,55,57,60,61,56,59,58,50,65,127,304
2019-05-14,15:41:01.688,721,1028,736,39,-292,-255,-200,-121,-8,65,97,113,126,136,151,165,179,187,200,220,233,252,277,310,346,386,421,460,487,508,533,538,534,504,456,394,332,274,230,191,159,143,128,120,114,109,108,111,109,112,111,110,115,114,118,116,115,121,121,119,119,120,119,108,101,104,98,99,104,103,100,97,98,101,103,100,97,94,89,94,95,92,98,95,96,98,97,97,98,102,104,102,101,96,93,94,101,99,103,105,111,108,106,111,118,110,106,102,96,85,86,82,85,87,88,82,87,92,86,113,208,475,936,1019,549,-129,-236,-192
2019-05-14,15:41:02.716,-135,-31,64,106,132,152,166,177,190,204,216,225,237,248,272,295,319,351,392,423,460,492,516,544,564,561,545,515,456,397,337,279,235,199,172,152,142,130,127,124,123,125,120,125,132,135,128,131,132,129,129,132,132,128,125,128,130,125,119,120,120,122,116,109,111,110,104,104,106,103,101,105,105,109,104,102,103,102,102,101,99,102,102,101,94,96,101,92,90,102,109,104,100,103,115,114,110,107,103,91,86,86,88,88,88,88,88,89,86,114,201,444,861,966,528,-112,-235,-202,-150,-59,49,105,130,148,164,175,181,197
2019-05-14,15:41:03.743,202,214,234,253,267,286,314,351,383,409,444,480,508,515,531,537,521,493,444,389,332,277,229,200,177,167,156,145,135,129,132,125,130,126,136,134,139,150,149,147,156,164,142,135,133,130,132,140,143,139,144,141,131,137,127,122,123,122,130,129,127,117,129,130,111,117,114,106,117,120,125,125,125,113,121,118,114,117,116,117,121,136,122,116,116,118,103,101,96,88,95,95,105,100,80,92,124,190,358,727,979,674,46,-229,-202,-157,-74,26,103,136,162,166,169,187,193,201,214,221,244,269,284,313,344,360,398,430,449,481
2019-05-14,15:41:04.771,514,529,532,536,520,462,410,367,310,260,241,210,190,177,171,166,152,154,159,154,155,166,161,163,176,168,164,169,177,169,171,178,180,173,172,163,167,167,150,149,158,153,154,145,152,154,148,147,128,135,141,147,148,143,143,144,141,138,130,133,139,150,140,137,134,140,141,140,136,132,122,109,103,116,127,114,95,98,107,113,114,187,329,688,1018,773,146,-244,-230,-186,-106,11,83,113,138,159,160,181,196,187,191,213,230,246,269,300,326,356,392,439,470,494,526,546,557,541,507,463,410,344,285,239,204,172,163,156,133,115
2019-05-14,15:41:05.799,109,117,110,110,112,112,120,126,124,118,114,117,105,106,111,118,111,100,102,103,101,93,85,81,80,85,73,69,64,64,65,64,62,56,53,41,45,46,48,38,40,36,31,26,23,24,29,18,16,22,25,32,20,9,24,16,18,7,0,-5,-16,-17,-18,-33,-35,-30,-33,-39,-31,-40,-43,5,135,492,888,717,111,-390,-390,-351,-272,-160,-91,-51,-30,-19,-5,4,5,18,30,45,59,66,91,123,148,170,213,247,288,317,333,355,370,364,339,288,229,165,99,52,6,-32,-69,-74,-81,-96,-106,-111,-106,-108,-107,-115,-113,-106,-101,-121
2019-05-14,15:41:06.827,-120,-113,-120,-125,-127,-122,-130,-150,-151,-148,-163,-166,-173,-175,-172,-169,-182,-189,-194,-197,-194,-195,-195,-199,-200,-195,-204,-196,-198,-208,-205,-205,-191,-197,-194,-194,-196,-186,-193,-197,-192,-190,-192,-186,-185,-184,-181,-165,-163,-170,-167,-160,-160,-165,-168,-170,-182,-184,-182,-184,-190,-196,-183,-180,-178,-171,-178,-127,1,350,754,612,8,-497,-496,-448,-374,-274,-197,-150,-133,-116,-102,-86,-77,-73,-60,-42,-28,-18,-1,21,48,83,117,147,179,204,222,243,250,251,223,179,124,59,8,-36,-78,-120,-141,-155,-161,-165,-170,-175,-174,-173,-175,-181,-181,-179,-179,-172,-166,-159,-161,-156
2019-05-14,15:41:07.855,-156,-171,-165,-152,-160,-166,-159,-157,-160,-166,-171,-157,-159,-164,-163,-179,-166,-168,-165,-175,-170,-181,-176,-177,-174,-169,-176,-176,-170,-173,-170,-169,-175,-169,-166,-167,-169,-166,-153,-145,-161,-154,-148,-144,-150,-158,-160,-166,-167,-175,-181,-181,-178,-183,-175,-174,-169,-166,-143,-56,168,594,699,262,-368,-506,-466,-410,-323,-221,-171,-136,-124,-105,-96,-81,-65,-65,-58,-30,-17,2,15,44,77,110,139,181,217,242,263,276,290,278,244,193,139,84,28,-26,-56,-72,-92,-103,-116,-119,-113,-112,-128,-125,-114,-112,-117,-102,-87,-96,-96,-93,-97,-95,-93,-86,-87,-85,-91,-97,-96,-94
2019-05-14,15:41:08.883,-101,-113,-106,-102,-102,-100,-105,-103,-100,-103,-110,-109,-103,-100,-109,-106,-100,-107,-113,-108,-100,-102,-101,-102,-92,-90,-104,-105,-97,-95,-92,-88,-81,-74,-85,-72,-75,-71,-73,-76,-81,-80,-95,-96,-97,-99,-94,-91,-92,-93,-93,-84,-64,16,252,692,798,372,-278,-450,-402,-334,-240,-130,-76,-53,-37,-12,-7,-2,8,23,40,51,65,90,111,134,169,198,237,277,326,349,366,384,404,389,350,301,246,187,126,82,42,7,-13,-22,-31,-39,-33,-37,-45,-31,-37,-35,-23,-30,-29,-25,-32,-24,-17,-18,-24,-26,-22,-18,-23,-33,-36,-29,-43,-44,-42,-42,-42,-45
2019-05-14,15:41:09.911,-49,-46,-48,-44,-48,-53,-46,-54,-62,-53,-55,-57,-54,-52,-55,-58,-52,-55,-67,-58,-56,-57,-54,-52,-53,-52,-55,-53,-50,-47,-41,-45,-47,-40,-29,-36,-46,-51,-62,-74,-75,-75,-77,-75,-73,-71,-69,-76,-81,-46,51,313,774,832,352,-297,-415,-362,-295,-197,-101,-54,-24,-10,7,18,29,36,48,60,70,87,113,137,160,188,229,266,298,335,369,397,413,419,408,379,323,262,201,143,84,49,23,6,-5,-17,-21,-27,-34,-23,-22,-29,-22,-20,-22,-28,-22,-24,-22,-17,-14,-10,-17,-27,-26,-23,-25,-22,-25,-20,-28,-33,-28,-27,-36,-33,-32,-35
2019-05-14,15:41:10.939,-33,-35,-47,-40,-39,-45,-42,-40,-34,-40,-35,-37,-38,-48,-49,-42,-43,-49,-49,-50,-44,-40,-38,-30,-37,-32,-36,-33,-28,-28,-34,-28,-42,-61,-59,-58,-63,-68,-61,-61,-57,-50,-57,-56,5,145,506,848,646,0,-387,-366,-330,-254,-155,-85,-43,-17,-1,6,20,28,40,47,59,66,86,112,136,160,191,233,273,298,316,345,369,388,383,363,322,284,214,144,101,60,27,2,-14,-18,-26,-27,-25,-23,-22,-22,-28,-40,-32,-34,-29,-22,-20,-11,-5,-23,-29,-28,-32,-38,-30,-28,-35,-27,-28,-43,-44,-49,-56,-54,-49,-52,-43,-39,-48,-44,-41,-51
2019-05-14,15:41:11.967,-47,-45,-53,-51,-39,-37,-42,-41,-53,-47,-40,-32,-43,-39,-37,-40,-32,-31,-29,-42,-46,-48,-56,-62,-64,-60,-62,-61,-66,-63,-58,-52,17,181,578,879,592,-75,-407,-374,-336,-248,-130,-63,-34,-13,-8,9,27,37,52,63,79,100,102,126,154,184,210,240,280,319,355,375,386,404,402,371,332,273,212,161,109,71,43,22,8,-7,-16,-17,-21,-23,-21,-17,-13,-14,-16,-9,-14,-15,-6,-5,-16,-19,-7,4,-13,-26,-28,-20,-16,-23,-22,-14,-15,-22,-36,-41,-34,-27,-41,-36,-37,-43,-36,-32,-31,-28,-20,-24,-26,-26,-22,-28,-31,-21,-24,-28
2019-05-14,15:41:12.995,-17,-14,-2,-14,-13,-7,-3,-4,-1,-3,-15,-29,-28,-29,-34,-21,-20,-21,-13,-14,-23,21,108,350,810,897,439,-218,-363,-312,-252,-162,-57,-14,17,30,52,68,74,82,94,109,123,135,152,176,203,249,265,306,349,391,424,444,458,467,463,425,374,311,248,185,130,98,69,52,35,29,23,20,21,19,12,10,10,14,18,19,19,-30,-65,-45,48,11,20,12,7,7,2,-6,-30,-35,-19,-38,-30,-33,-68,-11,-12,-28,-26,-20,-31,-39,-41,-32,-31,-28,-40,-38,-39,-26,-25,-24,-15,-20,-36,-35,-29,-22,-22,-18,-8,-10,-4,-7,-1,-3
2019-05-14,15:41:14.023,-13,-16,-34,-41,-35,-30,-32,-26,-22,-23,-20,-22,-25,3,88,345,796,878,414,-254,-382,-319,-256,-158,-58,-12,11,27,49,61,69,81,92,98,120,135,147,169,197,230,260,300,347,369,399,422,434,450,452,413,361,301,245,180,137,94,60,44,29,19,12,15,20,13,15,14,9,20,15,17,18,29,30,27,21,26,21,11,7,2,-2,0,1,3,-8,-4,-10,-3,-4,-20,-12,-9,-13,-8,-15,-12,-9,-5,2,-16,-18,-10,-8,-2,-3,-4,-5,2,5,-2,-5,9,6,8,0,5,4,-19,-17,-16,-26,-19,-17,-11,-17,-12,-17,0
2019-05-14,15:41:15.051,93,295,689,864,496,-153,-361,-318,-265,-174,-88,-23,13,32,57,71,71,77,92,109,125,126,141,162,192,225,257,301,333,359,394,415,427,436,433,405,361,304,247,192,140,105,78,49,44,25,16,12,7,11,13,18,21,24,26,29,36,28,32,29,28,30,24,22,28,19,17,18,21,19,16,23,18,10,7,14,8,6,8,9,10,11,7,9,5,8,6,5,12,8,3,3,11,12,13,33,28,17,15,19,21,19,12,7,5,-2,-8,-17,-15,-14,-9,-8,-2,4,15,76,235,607,920,656,11,-354,-320,-270,-188,-78,-8,28
2019-05-14,15:41:16.079,42,58,75,79,92,104,117,129,146,165,193,209,235,272,313,340,383,415,443,462,474,475,454,406,351,290,230,178,133,98,84,73,55,41,39,48,43,49,44,40,44,41,43,48,50,52,50,49,49,57,56,45,37,36,37,31,30,29,30,36,34,27,26,26,25,29,30,36,38,30,28,24,25,29,30,28,22,22,27,39,29,21,27,31,23,25,39,55,50,45,46,46,42,35,34,31,23,27,27,21,27,27,29,18,20,29,48,135,400,861,976,525,-162,-285,-242,-180,-85,2,49,69,89,104,111,124,149,154,156,173
2019-05-14,15:41:17.107,181,196,223,248,283,322,356,396,429,450,476,486,495,493,455,411,355,298,233,185,149,113,101,89,69,63,62,64,64,65,66,76,71,63,64,68,73,81,76,74,78,64,65,71,79,73,68,66,62,57,58,57,58,62,62,59,49,58,56,51,54,52,49,52,53,58,57,49,54,51,60,65,54,53,67,60,49,51,63,71,68,65,53,44,42,30,39,30,28,31,30,36,37,31,56,152,419,837,895,397,-200,-270,-228,-165,-95,7,65,90,82,89,108,129,147,139,158,171,181,203,223,250,282,314,351,388,417,451,458,453
2019-05-14,15:41:18.135,472,456,444,396,334,279,225,176,142,115,102,90,78,78,76,72,72,63,68,65,60,70,70,65,86,84,87,77,82,75,71,66,59,63,57,67,81,73,57,46,62,70,71,54,50,52,54,46,57,51,49,55,57,50,54,54,49,53,52,58,68,77,69,63,68,75,74,67,62,60,59,71,60,42,59,53,42,45,49,53,68,147,353,788,993,623,-63,-251,-213,-168,-92,5,59,87,107,120,140,150,156,166,184,199,218,235,259,279,297,342,390,431,462,488,506,521,531,525,497,453,398,337,264,216,181,152,134,127,119,111
2019-05-14,15:41:19.163,116,111,95,114,108,100,107,117,112,102,101,114,113,108,102,103,106,108,107,101,102,100,95,90,91,98,93,95,96,87,90,92,90,84,85,85,86,83,87,83,81,89,88,89,96,88,82,84,88,90,96,102,109,102,100,107,114,112,91,90,84,84,76,75,78,62,74,93,91,86,74,82,171,463,937,1047,569,-122,-216,-178,-125,-41,54,95,105,111,129,152,178,185,192,193,193,218,238,264,294,323,363,405,446,472,495,508,523,531,539,489,435,374,303,241,187,154,143,134,102,90,84,70,63,77,67,68,69,80,79,68
2019-05-14,15:41:20.191,76,76,75,74,67,68,62,63,63,58,60,59,53,48,44,47,40,33,40,33,25,17,23,24,25,21,26,25,25,26,25,8,18,16,18,19,23,23,17,22,20,25,28,37,34,29,36,44,39,34,33,20,13,16,15,10,19,22,15,17,21,11,38,166,516,922,858,234,-257,-266,-238,-167,-74,9,49,75,85,96,105,114,132,142,152,163,183,209,225,250,281,317,354,384,419,439,454,463,466,451,416,366,311,249,203,163,129,103,89,77,74,76,69,65,63,61,64,69,78,72,77,75,71,74,76,76,78,72,70,60
2019-05-14,15:41:21.219,55,61,61,53,50,47,55,49,40,45,49,44,42,43,40,39,37,33,32,35,29,27,26,25,20,26,40,26,15,18,25,28,21,10,4,-1,-5,-12,-7,-16,-16,-12,-18,-14,-11,-12,5,87,331,771,899,460,-198,-343,-294,-235,-162,-64,-18,7,20,30,40,54,68,66,74,85,98,121,138,162,194,227,265,302,331,352,377,387,387,373,344,289,230,166,112,67,29,4,-19,-35,-44,-52,-63,-65,-58,-58,-57,-58,-59,-64,-59,-51,-54,-52,-46,-57,-56,-66,-61,-60,-63,-66,-69,-74,-80,-86,-80,-76,-88,-93,-97,-96,-98,-95,-98,-101
2019-05-14,15:41:22.247,-101,-103,-106,-113,-114,-115,-121,-119,-113,-125,-128,-126,-127,-124,-119,-124,-126,-120,-115,-114,-114,-122,-138,-157,-155,-150,-149,-149,-149,-150,-147,-152,-156,-122,-37,193,582,635,209,-345,-458,-427,-379,-296,-209,-156,-130,-114,-103,-96,-77,-78,-71,-51,-54,-47,-28,-4,17,50,79,98,138,162,173,197,215,213,189,163,127,81,47,-7,-61,-90,-115,-136,-139,-148,-143,-146,-155,-162,-163,-150,-153,-147,-154,-147,-143,-149,-144,-128,-129,-138,-131,-128,-145,-154,-151,-145,-148,-149,-145,-151,-151,-162,-160,-148,-156,-154,-163,-167,-174,-164,-169,-155,-150,-147,-143,-159,-149,-144,-143,-140,-144,-146
2019-05-14,15:41:23.275,-159,-163,-159,-154,-149,-173,-171,-160,-153,-162,-158,-89,49,317,537,380,-78,-394,-408,-386,-338,-276,-199,-162,-147,-136,-127,-140,-130,-118,-115,-100,-87,-81,-65,-57,-43,-22,11,38,58,78,92,100,103,93,79,54,1,-39,-90,-126,-154,-179,-197,-214,-228,-228,-233,-233,-229,-232,-242,-226,-220,-223,-226,-220,-222,-224,-222,-220,-217,-217,-219,-216,-223,-226,-232,-230,-234,-235,-237,-238,-238,-245,-242,-238,-249,-252,-250,-247,-249,-261,-260,-262,-262,-253,-253,-253,-270,-269,-286,-290,-292,-291,-289,-298,-297,-299,-303,-298,-239,-153,26,270,224,-79,-468,-535,-515,-507,-461,-389,-347,-329,-319,-311
2019-05-14,15:41:24.303,-313,-314,-324,-313,-312,-315,-308,-300,-293,-284,-270,-250,-233,-208,-194,-187,-181,-186,-198,-214,-252,-299,-347,-395,-433,-471,-505,-535,-558,-564,-574,-576,-583,-595,-604,-608,-607,-614,-614,-621,-627,-625,-630,-634,-642,-649,-650,-646,-658,-668,-679,-677,-685,-692,-700,-698,-705,-712,-724,-725,-725,-727,-731,-743,-740,-746,-749,-757,-763,-763,-752,-753,-769,-768,-774,-790,-792,-802,-809,-807,-811,-810,-808,-808,-794,-723,-624,-431,-182,-262,-595,-982,-1019,-984,-950,-880,-798,-746,-717,-702,-690,-671,-648,-634,-622,-600,-579,-554,-531,-504,-471,-439,-400,-357,-324,-289,-259,-237,-221,-212,-222,-242,-279,-315,-357,-387,-408,-422
2019-05-14,15:41:25.331,-433,-435,-438,-435,-422,-413,-410,-403,-393,-376,-362,-352,-337,-331,-313,-313,-307,-299,-289,-285,-287,-280,-276,-276,-272,-266,-262,-259,-250,-243,-241,-229,-228,-229,-225,-220,-209,-208,-205,-197,-189,-181,-178,-174,-174,-168,-157,-149,-149,-147,-139,-137,-125,-110,-100,-100,-95,-87,-71,-68,-72,-71,-72,-84,-82,-79,-76,-73,-67,-66,-64,-50,9,107,298,638,652,311,-152,-326,-269,-214,-129,-32,28,58,78,95,107,119,129,142,151,161,173,179,195,209,234,259,292,319,347,375,395,411,418,415,391,358,308,255,202,157,122,92,70,53,39,34,26,20,19,15,13,13,12,13
2019-05-14,15:41:26.359,16,16,18,16,16,17,17,17,15,20,21,26,27,34,33,34,38,44,43,43,44,42,41,43,45,45,42,41,45,47,47,48,52,63,57,56,59,60,63,63,70,80,93,106,101,102,109,119,112,107,109,105,95,97,101,105,107,108,111,117,116,124,189,292,536,926,803,351,-138,-234,-173,-108,-14,86,131,154,171,181,189,202,214,230,247,255,268,286,306,326,350,379,410,441,462,486,505,520,526,522,504,467,420,363,311,273,244,223,202,188,179,172,167,167,170,171,172,179,179,176,177,178,183,188,190,190,197,205,208,207
2019-05-14,15:41:27.387,205,207,216,220,220,223,222,218,211,205,204,201,198,200,203,195,190,194,195,195,192,190,195,198,195,197,198,195,196,198,197,196,203,201,206,222,222,211,212,210,211,208,206,192,181,175,168,167,169,164,168,173,176,179,187,258,388,745,1104,828,247,-209,-190,-126,-38,67,138,172,196,214,228,238,249,258,265,280,293,305,318,340,361,382,419,448,475,499,517,534,545,541,532,495,448,387,319,259,217,178,143,120,99,88,85,79,76,71,68,60,58,47,55,53,47,38,29,25,22,16,6,-6,-20,-34,-46,-48,-56,-71,-81,-85
2019-05-14,15:41:28.415,-85,-90,-92,-98,-104,-104,-105,-108,-104,-106,-116,-120,-123,-128,-137,-137,-142,-135,-143,-141,-147,-157,-154,-161,-175,-176,-177,-175,-189,-199,-209,-228,-233,-232,-243,-236,-238,-244,-247,-250,-252,-218,-131,41,370,423,76,-443,-608,-565,-530,-466,-374,-306,-280,-275,-265,-251,-249,-243,-238,-225,-220,-203,-188,-177,-152,-128,-102,-78,-45,-17,6,27,40,47,31,12,-29,-76,-133,-186,-230,-260,-283,-314,-329,-340,-344,-352,-355,-364,-367,-366,-377,-379,-375,-382,-379,-382,-393,-395,-393,-399,-409,-411,-410,-416,-416,-422,-436,-442,-458,-461,-469,-474,-477,-488,-496,-499,-496,-502,-503,-506,-503,-508,-506,-513
2019-05-14,15:41:29.443,-510,-506,-507,-513,-520,-515,-507,-508,-518,-523,-538,-542,-539,-541,-544,-543,-548,-545,-550,-531,-462,-362,-163,95,-19,-359,-751,-795,-753,-714,-653,-571,-527,-501,-491,-479,-474,-468,-448,-441,-428,-422,-411,-394,-377,-359,-339,-314,-294,-257,-234,-223,-204,-188,-189,-204,-233,-268,-315,-362,-400,-434,-460,-475,-501,-491,-499,-512,-506,-508,-514,-512,-509,-515,-515,-507,-502,-506,-505,-502,-502,-508,-497,-507,-512,-507,-506,-516,-515,-513,-525,-523,-523,-520,-525,-519,-525,-521,-523,-532,-523,-522,-522,-516,-518,-520,-525,-532,-527,-521,-521,-518,-512,-530,-535,-538,-535,-530,-544,-532,-534,-533,-527,-483,-398,-257,-25,-5
2019-05-14,15:41:30.471,-242,-627,-731,-710,-705,-659,-595,-543,-518,-505,-495,-492,-485,-471,-464,-457,-450,-435,-423,-406,-389,-370,-347,-322,-300,-276,-259,-248,-235,-236,-248,-267,-293,-331,-375,-403,-436,-456,-471,-485,-488,-487,-494,-501,-505,-507,-511,-506,-500,-497,-482,-473,-473,-472,-471,-473,-472,-470,-474,-466,-471,-473,-479,-483,-477,-483,-485,-488,-482,-488,-490,-487,-488,-496,-500,-505,-503,-497,-501,-499,-496,-487,-485,-495,-499,-499,-492,-489,-496,-495,-504,-521,-531,-538,-541,-549,-544,-541,-538,-538,-499,-413,-286,-24,43,-208,-629,-813,-778,-754,-699,-612,-559,-540,-526,-515,-512,-505,-498,-499,-490,-483,-473,-462,-447,-431,-417,-394
2019-05-14,15:41:31.499,-374,-348,-329,-307,-298,-288,-284,-293,-318,-352,-401,-447,-496,-539,-574,-600,-614,-636,-649,-655,-664,-667,-671,-675,-678,-677,-676,-681,-684,-685,-692,-700,-700,-704,-707,-720,-725,-725,-733,-740,-740,-743,-750,-753,-754,-759,-758,-758,-764,-768,-759,-763,-769,-767,-764,-761,-766,-768,-764,-768,-771,-772,-773,-777,-777,-771,-770,-772,-760,-765,-758,-764,-752,-733,-743,-755,-759,-771,-771,-771,-780,-784,-772,-770,-772,-759,-718,-627,-488,-180,-97,-416,-850,-1092,-1046,-998,-923,-836,-780,-755,-737,-732,-723,-714,-708,-702,-692,-677,-660,-645,-629,-610,-581,-554,-529,-497,-471,-448,-426,-414,-407,-406,-425,-460,-506,-557,-603,-641
2019-05-14,15:41:32.527,-671,-694,-713,-726,-733,-740,-748,-747,-748,-746,-745,-739,-733,-734,-734,-737,-739,-736,-742,-745,-749,-756,-759,-772,-768,-763,-768,-763,-759,-761,-761,-756,-754,-760,-759,-763,-767,-762,-760,-758,-756,-760,-757,-755,-754,-754,-752,-756,-757,-751,-749,-748,-747,-746,-746,-743,-735,-735,-739,-737,-737,-728,-728,-732,-736,-745,-759,-754,-752,-751,-743,-746,-741,-738,-728,-680,-579,-417,-77,-1,-365,-826,-1064,-1003,-943,-851,-753,-694,-661,-641,-626,-616,-601,-585,-575,-561,-544,-528,-508,-489,-464,-435,-404,-370,-339,-309,-279,-254,-241,-230,-226,-242,-274,-320,-370,-419,-458,-494,-520,-531,-537,-548,-554,-554,-551,-552,-549,-546
2019-05-14,15:41:33.555,-543,-541,-538,-534,-535,-530,-525,-525,-522,-523,-521,-518,-525,-525,-524,-523,-523,-523,-526,-522,-516,-511,-513,-519,-516,-516,-508,-512,-509,-502,-504,-502,-503,-498,-496,-494,-489,-491,-489,-488,-496,-495,-489,-482,-485,-487,-477,-475,-470,-475,-475,-472,-457,-456,-455,-462,-467,-472,-471,-470,-473,-470,-469,-464,-465,-465,-441,-358,-231,57,272,2,-460,-781,-753,-701,-635,-550,-468,-427,-409,-396,-388,-382,-374,-364,-358,-346,-334,-320,-301,-286,-262,-240,-210,-183,-153,-135,-121,-106,-97,-95,-113,-139,-187,-240,-293,-336,-373,-403,-424,-438,-453,-452,-467,-473,-476,-474,-473,-468,-474,-479,-474,-472,-471,-475,-477,-475
2019-05-14,15:41:34.583,-475,-477,-480,-488,-491,-491,-498,-499,-504,-509,-510,-510,-505,-508,-509,-514,-518,-513,-519,-515,-515,-520,-524,-524,-513,-514,-517,-512,-511,-507,-509,-503,-500,-502,-504,-505,-496,-491,-508,-506,-511,-512,-507,-513,-505,-510,-511,-513,-520,-505,-441,-354,-183,61,3,-277,-684,-753,-714,-685,-620,-545,-501,-482,-465,-450,-442,-436,-430,-423,-420,-399,-397,-388,-376,-365,-333,-317,-291,-256,-244,-228,-216,-208,-204,-226,-243,-279,-314,-357,-396,-431,-454,-465,-486,-492,-501,-506,-501,-515,-518,-509,-512,-514,-512,-510,-513,-508,-507,-494,-501,-498,-507,-511,-504,-506,-506,-508,-524,-508,-520,-524,-528,-533,-530,-540,-547,-541
2019-05-14,15:41:35.611,-541,-541,-548,-537,-533,-547,-550,-550,-554,-542,-555,-563,-545,-535,-550,-550,-554,-562,-563,-557,-569,-562,-555,-561,-558,-559,-548,-466,-370,-144,-40,-172,-568,-736,-730,-713,-685,-630,-570,-553,-532,-512,-506,-507,-482,-479,-469,-459,-459,-440,-431,-410,-393,-370,-344,-314,-294,-277,-263,-249,-246,-251,-270,-281,-330,-366,-401,-422,-445,-460,-475,-478,-490,-492,-501,-498,-486,-479,-482,-486,-477,-468,-462,-453,-450,-449,-436,-442,-429,-431,-428,-425,-423,-425,-429,-425,-427,-430,-429,-426,-422,-420,-422,-415,-410,-412,-417,-409,-406,-416,-405,-399,-395,-401,-391,-400,-388,-391,-389,-387,-382,-384,-379,-387,-388,-397,-401,-406
2019-05-14,15:41:36.639,-398,-394,-395,-394,-400,-394,-346,-274,-133,98,132,-104,-495,-602,-586,-562,-532,-469,-412,-389,-377,-360,-351,-345,-339,-328,-322,-320,-309,-299,-282,-270,-245,-230,-208,-197,-172,-160,-151,-149,-146,-156,-186,-221,-265,-312,-353,-391,-424,-447,-471,-487,-501,-508,-517,-523,-534,-542,-547,-549,-558,-557,-564,-570,-578,-573,-585,-584,-590,-597,-611,-618,-630,-636,-643,-658,-660,-667,-675,-677,-685,-698,-700,-702,-705,-710,-715,-715,-721,-718,-723,-730,-726,-725,-726,-724,-720,-717,-719,-717,-712,-705,-701,-702,-700,-700,-698,-688,-697,-700,-696,-684,-686,-685,-680,-685,-693,-692,-692,-686,-682,-679,-669,-664,-643,-546,-424,-178
2019-05-14,15:41:37.667,57,-177,-544,-908,-911,-851,-772,-681,-607,-560,-543,-519,-491,-469,-453,-438,-426,-411,-399,-377,-352,-322,-288,-247,-222,-187,-154,-130,-105,-80,-55,-51,-50,-65,-93,-122,-155,-188,-208,-211,-223,-230,-233,-239,-230,-225,-217,-207,-198,-192,-180,-179,-174,-170,-168,-170,-175,-167,-164,-157,-151,-152,-149,-142,-138,-142,-143,-136,-128,-127,-130,-129,-130,-122,-123,-126,-123,-118,-118,-115,-114,-107,-110,-115,-108,-101,-93,-84,-84,-84,-83,-75,-70,-67,-69,-65,-53,-50,-58,-55,-51,-45,-44,-47,-56,-58,-65,-68,-63,-57,-59,-56,-52,-48,-20,78,217,521,703,361,-81,-403,-364,-303,-225,-127,-50,-11
2019-05-14,15:41:38.695,-2,8,20,32,34,43,55,70,80,93,118,148,176,205,235,267,297,321,346,366,379,380,363,331,290,236,186,147,114,85,61,45,42,41,31,30,28,33,32,35,35,39,36,33,36,35,33,34,31,28,24,18,11,11,4,2,-1,-6,-16,-25,-28,-38,-45,-46,-54,-59,-60,-65,-66,-75,-70,-65,-66,-68,-68,-69,-68,-68,-63,-62,-60,-59,-57,-51,-55,-53,-45,-33,-40,-47,-45,-48,-45,-54,-59,-68,-81,-88,-90,-94,-96,-95,-95,-102,-104,-74,19,160,509,732,350,-157,-481,-439,-375,-288,-181,-103,-65,-52,-42,-29,-24,-12,-4,2,16,30
2019-05-14,15:41:39.723,46,66,86,112,139,170,201,232,261,281,304,313,310,286,252,194,135,78,19,-29,-52,-73,-84,-90,-91,-98,-104,-106,-110,-111,-109,-105,-115,-125,-125,-124,-120,-117,-120,-126,-130,-140,-148,-157,-163,-163,-166,-172,-174,-185,-187,-194,-203,-203,-208,-211,-219,-223,-228,-236,-242,-243,-246,-247,-258,-265,-267,-265,-268,-272,-280,-283,-281,-282,-274,-277,-287,-281,-280,-277,-280,-288,-299,-312,-318,-314,-317,-322,-324,-323,-318,-320,-319,-263,-174,17,330,273,-99,-573,-663,-606,-559,-491,-396,-348,-321,-303,-297,-293,-287,-276,-261,-256,-243,-235,-229,-200,-178,-149,-114,-73,-41,-9,-3,8,13,5
2019-05-14,15:41:40.751,-11,-32,-64,-106,-163,-214,-252,-278,-303,-328,-343,-353,-350,-356,-358,-356,-358,-358,-364,-362,-357,-361,-356,-356,-356,-357,-364,-367,-362,-367,-368,-373,-376,-376,-379,-384,-386,-384,-388,-389,-388,-391,-393,-387,-384,-385,-388,-388,-381,-384,-373,-378,-381,-383,-375,-370,-371,-376,-367,-365,-359,-354,-363,-364,-374,-379,-378,-381,-382,-381,-370,-374,-380,-348,-264,-154,88,249,67,-323,-602,-595,-563,-516,-438,-367,-329,-310,-295,-287,-281,-263,-253,-244,-236,-216,-203,-188,-162,-140,-109,-85,-56,-28,-7,13,26,28,38,17,-14,-49,-100,-133,-174,-207,-238,-250,-256,-263,-269,-268,-270,-267,-267,-262,-265,-260
2019-05-14,15:41:41.779,-269,-267,-263,-271,-274,-258,-267,-270,-272,-280,-277,-271,-278,-274,-270,-274,-279,-275,-273,-274,-277,-278,-275,-274,-281,-274,-282,-279,-282,-284,-272,-269,-259,-272,-269,-273,-274,-259,-265,-275,-286,-288,-286,-282,-289,-289,-289,-286,-282,-268,-218,-137,50,267,221,-87,-434,-479,-454,-432,-379,-307,-272,-246,-232,-228,-219,-198,-194,-188,-189,-165,-153,-146,-132,-112,-93,-69,-45,-21,-1,24,40,44,46,27,8,-23,-62,-103,-141,-168,-191,-211,-222,-225,-218,-223,-224,-223,-222,-227,-222,-215,-208,-206,-205,-198,-195,-192,-186,-188,-182,-180,-188,-189,-185,-190,-187,-184,-186,-184,-178,-175,-174,-173,-182,-173
2019-05-14,15:41:42.807,-180,-182,-176,-173,-174,-177,-173,-164,-158,-161,-156,-152,-139,-139,-144,-153,-157,-157,-153,-150,-151,-143,-130,-133,-122,-89,-3,119,346,504,307,-83,-342,-314,-276,-228,-145,-66,-27,-6,8,18,33,47,60,77,91,105,125,148,170,198,231,259,295,321,346,364,382,394,391,371,340,305,268,226,193,167,144,134,130,131,128,129,131,140,140,145,147,157,159,163,170,176,178,186,193,193,191,196,204,202,203,204,210,210,214,214,215,214,213,215,216,216,221,220,219,221,224,219,218,217,220,219,212,213,219,217,218,228,222,222,221,221,223,214,210,205
2019-05-14,15:41:43.835,186,176,173,170,166,165,162,158,163,205,306,446,739,795,446,24,-210,-160,-103,-28,56,99,119,130,133,140,141,143,146,152,153,159,169,181,191,206,229,255,281,301,322,333,335,336,327,301,261,205,154,97,54,9,-27,-40,-56,-64,-75,-80,-86,-92,-98,-101,-103,-107,-111,-111,-115,-114,-116,-120,-125,-128,-132,-138,-145,-149,-153,-157,-163,-168,-174,-179,-180,-181,-188,-191,-196,-198,-202,-201,-200,-204,-207,-205,-207,-204,-210,-216,-218,-218,-219,-218,-223,-225,-226,-216,-217,-225,-226,-229,-228,-226,-227,-238,-252,-262,-260,-260,-262,-260,-261,-260,-261,-242,-147,-37,231,509
2019-05-14,15:41:44.863,212,-202,-601,-604,-525,-448,-351,-271,-229,-206,-192,-174,-166,-159,-144,-137,-127,-109,-98,-81,-63,-36,-6,27,61,92,118,137,154,165,168,160,126,74,22,-35,-93,-131,-154,-178,-196,-207,-210,-209,-212,-208,-203,-203,-203,-202,-200,-195,-193,-194,-193,-195,-195,-196,-196,-200,-203,-203,-206,-214,-214,-216,-218,-219,-217,-220,-221,-221,-221,-223,-225,-228,-225,-226,-230,-231,-230,-228,-226,-224,-221,-219,-219,-218,-217,-215,-222,-226,-225,-217,-217,-226,-223,-223,-216,-218,-226,-235,-242,-250,-248,-250,-249,-243,-238,-232,-230,-217,-144,-42,222,576,350,-132,-581,-586,-519,-444,-338,-242,-198,-177,-160,-150
2019-05-14,15:41:45.891,-139,-125,-112,-111,-97,-80,-65,-48,-26,0,35,65,99,127,156,177,196,205,208,206,168,125,78,18,-39,-79,-105,-128,-146,-155,-166,-170,-173,-169,-167,-157,-156,-152,-146,-145,-144,-143,-140,-136,-137,-142,-152,-146,-149,-149,-154,-157,-160,-156,-161,-160,-159,-165,-167,-162,-161,-161,-161,-160,-162,-167,-165,-162,-159,-165,-164,-160,-162,-156,-156,-155,-156,-153,-148,-154,-157,-156,-144,-137,-140,-149,-159,-160,-165,-159,-154,-156,-159,-155,-156,-147,-100,-18,133,422,468,176,-288,-456,-408,-364,-300,-210,-144,-111,-96,-84,-72,-62,-56,-44,-29,-22,-13,2,24,45,71,95,124,152,179,200
2019-05-14,15:41:46.919,218,229,234,236,215,180,138,94,44,6,-23,-49,-63,-71,-77,-86,-89,-83,-86,-78,-82,-79,-77,-77,-73,-77,-71,-72,-76,-69,-77,-77,-77,-85,-89,-83,-89,-95,-92,-95,-98,-100,-97,-100,-101,-102,-99,-100,-102,-108,-112,-115,-109,-105,-110,-113,-100,-103,-110,-113,-112,-108,-103,-108,-115,-122,-134,-128,-136,-129,-133,-132,-128,-125,-121,-68,10,173,425,390,103,-306,-390,-359,-330,-279,-207,-157,-145,-126,-125,-119,-113,-110,-109,-92,-93,-84,-75,-60,-47,-33,-6,15,30,43,57,73,71,65,42,19,-23,-66,-104,-151,-193,-219,-247,-263,-273,-279,-290,-300,-315,-313,-323,-327
2019-05-14,15:41:47.947,-327,-342,-345,-344,-341,-353,-352,-367,-375,-373,-390,-391,-402,-401,-416,-420,-436,-422,-430,-441,-442,-448,-455,-464,-471,-471,-475,-475,-482,-496,-503,-505,-500,-501,-509,-518,-516,-526,-518,-530,-542,-558,-558,-565,-566,-574,-578,-574,-576,-580,-580,-521,-441,-283,-60,-90,-373,-736,-803,-787,-771,-720,-661,-609,-590,-579,-573,-563,-561,-558,-552,-544,-533,-525,-511,-493,-465,-451,-421,-400,-376,-353,-330,-317,-309,-311,-319,-352,-380,-417,-461,-493,-519,-541,-553,-558,-565,-567,-565,-561,-555,-548,-547,-544,-536,-529,-525,-522,-512,-501,-497,-493,-486,-474,-475,-474,-472,-460,-457,-454,-449,-436,-431,-422,-419,-409,-410,-406
2019-05-14,15:41:48.975,-391,-387,-382,-364,-353,-346,-337,-331,-319,-311,-295,-286,-283,-282,-265,-249,-255,-250,-239,-246,-240,-231,-226,-223,-216,-210,-204,-190,-133,-40,106,354,383,128,-286,-404,-363,-328,-266,-187,-128,-101,-86,-71,-61,-41,-33,-19,-8,12,29,41,62,72,105,132,159,188,217,238,246,251,253,245,225,189,147,105,63,26,3,-13,-21,-27,-32,-34,-33,-34,-33,-35,-38,-33,-29,-27,-22,-21,-21,-15,-12,-13,-14,-13,-1,-1,-6,-10,-8,-9,-3,0,1,-4,-1,5,9,6,6,10,11,12,18,20,22,21,25,21,26,29,37,38,40,43,58,60,46,46,47,59
2019-05-14,15:41:50.003,68,69,64,57,54,47,44,40,43,47,46,53,104,204,355,643,683,356,-55,-259,-203,-142,-58,30,77,103,115,125,131,143,155,164,175,185,202,216,232,250,271,295,324,352,377,398,415,425,439,436,411,373,324,276,229,185,160,140,131,110,98,102,109,109,106,105,104,105,107,109,107,110,108,107,99,98,88,87,85,79,70,64,57,51,36,31,25,10,5,-3,-15,-21,-27,-28,-35,-42,-51,-59,-70,-75,-77,-84,-90,-97,-109,-121,-128,-133,-140,-148,-148,-152,-165,-174,-181,-182,-192,-214,-229,-244,-261,-266,-274,-284,-296,-301,-305,-311,-296,-214
2019-05-14,15:41:51.031,-110,142,406,144,-253,-657,-677,-617,-540,-447,-370,-334,-314,-301,-294,-286,-275,-263,-248,-232,-216,-191,-166,-142,-109,-69,-24,18,60,99,128,151,168,183,182,161,133,100,59,22,-3,-21,-27,-28,-23,-11,4,20,34,55,76,101,120,146,161,178,203,227,242,264,285,305,320,334,349,370,385,402,418,437,450,459,478,498,510,520,528,538,548,563,580,595,606,626,634,644,654,667,685,697,713,728,742,758,776,791,808,831,843,847,860,879,902,908,908,912,910,910,916,931,942,950,956,968,980,1022,1119,1285,1647,1715,1326,828,625,685,744,831,937,996
2019-05-14,15:41:52.059,1019,1034,1051,1065,1087,1093,1095,1107,1114,1133,1140,1160,1178,1198,1218,1245,1272,1293,1307,1321,1329,1324,1312,1285,1234,1187,1130,1075,1025,987,959,934,915,895,881,875,871,871,864,861,863,861,858,850,849,840,839,839,837,827,814,802,804,795,785,781,772,764,755,751,743,732,715,696,689,683,669,670,662,652,642,639,636,620,614,604,602,600,590,585,587,591,589,578,566,567,567,563,553,538,520,492,486,475,477,466,460,463,451,455,502,590,759,1028,1002,695,239,125,168,203,267,345,391,412,423,427,430,441,448,453,464,476,479,495,508,525,550,580
2019-05-14,15:41:53.087,599,623,643,654,661,668,680,660,641,600,556,506,464,419,380,361,345,322,312,304,296,297,302,303,300,291,288,287,281,276,279,273,267,267,260,258,261,259,243,237,225,236,228,227,227,219,213,210,208,205,194,187,193,188,184,177,172,154,153,144,150,156,146,133,130,134,139,136,129,119,115,113,103,96,94,97,103,99,97,101,165,249,435,665,577,240,-123,-165,-134,-104,-44,14,57,73,82,90,98,107,103,107,108,117,118,144,146,162,183,207,235,247,265,283,286,287,290,269,241,196,146,100,60,28,0,-23,-35,-44,-59,-69
2019-05-14,15:41:54.115,-60,-70,-69,-69,-76,-85,-86,-84,-89,-92,-94,-95,-95,-93,-91,-93,-96,-101,-116,-116,-123,-128,-126,-130,-130,-137,-140,-147,-147,-151,-152,-155,-169,-169,-165,-167,-173,-168,-162,-163,-169,-178,-169,-163,-168,-173,-184,-191,-203,-208,-204,-206,-203,-214,-208,-211,-184,-115,0,212,341,181,-207,-405,-403,-392,-361,-309,-252,-217,-210,-193,-182,-176,-165,-161,-159,-146,-141,-126,-115,-99,-87,-56,-33,-11,9,22,37,54,55,43,20,-17,-53,-94,-138,-165,-204,-224,-226,-234,-244,-252,-256,-254,-248,-249,-247,-245,-246,-247,-234,-236,-242,-228,-224,-225,-226,-225,-223,-224,-222,-221,-222,-222,-229,-236
2019-05-14,15:41:55.143,-233,-230,-234,-234,-232,-233,-224,-227,-223,-224,-227,-234,-223,-230,-224,-214,-200,-201,-204,-204,-196,-198,-201,-208,-219,-226,-221,-221,-220,-216,-219,-217,-217,-207,-123,-27,176,399,266,-83,-443,-459,-411,-364,-291,-218,-184,-169,-159,-145,-125,-116,-113,-99,-85,-71,-57,-33,-16,7,30,62,94,121,142,166,187,197,196,180,157,118,78,41,8,-21,-39,-47,-53,-54,-59,-54,-45,-37,-36,-25,-12,2,7,12,18,33,38,44,54,60,63,69,78,87,90,96,102,106,109,108,112,116,122,130,128,132,136,141,141,143,146,152,158,162,163,159,158,158,161,173,186,192
2019-05-14,15:41:56.171,193,193,199,202,205,208,205,194,187,189,190,190,199,204,203,203,218,303,417,643,911,697,322,-73,-101,-37,33,123,201,231,247,253,263,271,277,284,285,296,306,316,334,350,368,391,417,445,476,496,509,523,532,529,506,466,418,360,311,260,217,185,162,147,132,122,115,106,103,99,96,96,93,88,86,83,78,74,70,62,54,48,42,33,26,15,0,-4,-10,-17,-22,-25,-34,-44,-50,-53,-63,-69,-70,-73,-74,-75,-83,-85,-89,-94,-97,-99,-100,-101,-110,-114,-111,-114,-104,-109,-120,-119,-122,-125,-131,-137,-150,-163,-175,-177,-184,-185,-188,-184
2019-05-14,15:41:57.199,-181,-181,-153,-61,66,366,565,238,-204,-541,-508,-444,-366,-270,-203,-173,-156,-145,-133,-117,-110,-96,-83,-78,-63,-44,-20,4,31,64,99,134,159,187,206,225,237,230,208,172,128,73,21,-29,-64,-94,-116,-128,-139,-143,-151,-155,-160,-155,-158,-160,-166,-163,-161,-158,-158,-154,-155,-155,-160,-163,-168,-171,-174,-181,-184,-188,-191,-196,-198,-198,-197,-194,-199,-200,-202,-203,-204,-203,-214,-215,-205,-208,-209,-209,-206,-204,-205,-203,-208,-211,-208,-198,-192,-203,-202,-195,-194,-193,-196,-211,-221,-234,-231,-232,-232,-226,-223,-220,-219,-213,-156,-60,146,518,469,56,-439,-561,-496,-430,-342,-243
2019-05-14,15:41:58.227,-192,-160,-144,-128,-122,-112,-97,-85,-76,-69,-44,-27,-9,15,39,76,105,139,168,187,207,223,225,215,192,153,100,46,0,-44,-74,-94,-112,-117,-122,-120,-125,-122,-115,-118,-115,-108,-109,-108,-109,-101,-102,-107,-108,-109,-108,-105,-107,-108,-106,-107,-108,-114,-104,-102,-103,-96,-104,-106,-101,-104,-96,-97,-96,-92,-86,-85,-85,-84,-83,-80,-78,-83,-81,-74,-72,-57,-60,-61,-55,-51,-44,-49,-55,-57,-63,-59,-65,-67,-62,-60,-63,-63,-55,-26,58,178,448,615,381,-45,-309,-293,-246,-189,-111,-38,5,21,33,50,56,66,80,88,94,102,116,134,155,184,201,234
2019-05-14,15:41:59.255,269,292,317,325,336,345,332,311,284,244,196,151,116,92,75,55,40,36,29,22,19,18,23,25,26,30,41,39,48,51,55,53,56,58,56,60,60,57,57,62,57,58,57,60,70,63,70,71,71,72,77,78,81,79,75,83,80,86,81,94,108,110,105,92,93,101,117,122,117,109,100,96,106,109,113,116,122,118,119,161,238,372,625,727,510,82,-104,-72,-38,1,83,146,180,193,201,213,220,229,234,248,254,264,279,294,315,337,361,393,417,442,460,476,487,489,483,454,429,384,343,309,276,251,236,212,205,203,208,207
2019-05-14,15:42:00.283,210,205,204,207,213,219,226,231,231,248,243,252,258,264,265,269,269,267,272,267,273,276,276,273,274,283,282,284,285,286,288,290,296,297,310,310,315,325,328,326,336,344,344,366,370,365,373,360,363,369,374,374,379,382,387,397,434,512,641,878,980,789,394,227,243,269,317,382,447,486,511,522,533,536,551,562,574,588,602,614,642,653,680,707,730,759,782,800,818,829,829,829,814,791,748,705,674,646,622,609,600,592,591,586,583,579,573,563,562,562,560,561,564,568,565,562,551,565,564,556,554,555,550,544,539,539,542,545
2019-05-14,15:42:01.311,534,528,526,524,522,520,511,512,509,506,503,509,510,502,500,501,504,496,488,484,490,489,488,477,461,458,449,444,449,443,442,440,436,435,467,552,686,939,1021,775,346,146,167,205,250,323,373,396,405,410,411,413,416,422,426,430,433,443,454,462,479,495,523,543,560,581,585,584,574,551,518,467,414,362,313,276,243,220,201,182,174,161,153,144,133,126,121,119,113,108,97,89,85,78,81,74,64,58,48,37,31,24,21,11,4,-1,-2,-2,-12,-13,-15,-16,-19,-23,-17,-21,-27,-24,-29,-34,-31,-30,-31,-24,-23,-19,-19,-12
2019-05-14,15:42:02.339,-3,2,-1,-3,2,4,1,-3,-8,-14,-25,-31,-19,-20,-10,-2,0,11,73,182,360,661,601,252,-179,-316,-249,-174,-81,10,49,65,82,94,103,116,119,128,140,159,170,186,206,234,263,291,320,347,369,389,411,420,426,415,394,356,310,264,219,182,163,146,135,131,123,126,132,140,142,149,153,158,157,157,158,165,172,177,175,183,184,182,188,194,194,199,207,204,203,208,214,213,211,217,221,227,234,237,245,246,254,253,254,262,264,273,274,270,266,269,271,272,278,290,298,301,294,297,304,312,310,312,305,301,294,300,297,302
2019-05-14,15:42:03.367,301,297,304,310,333,433,549,822,1048,735,321,-40,-13,64,148,256,332,366,382,393,406,419,433,443,451,461,476,487,503,524,546,572,598,627,654,680,700,715,723,719,702,667,617,565,512,466,431,402,390,383,375,369,366,370,364,366,369,370,371,374,381,384,389,389,385,380,379,381,379,376,371,367,364,361,360,361,355,354,351,349,341,341,343,340,339,337,337,334,334,337,337,338,339,341,338,336,332,332,335,330,335,343,345,336,334,342,345,345,345,334,328,318,318,324,328,329,331,326,321,338,411,515,749,1085,888,466,16,-22
2019-05-14,15:42:04.395,48,124,221,309,349,370,385,402,413,425,428,437,447,464,482,493,508,537,563,590,622,655,682,702,720,730,729,715,685,643,590,537,491,449,417,391,377,368,366,358,358,359,356,350,346,352,353,354,354,348,351,349,341,338,336,334,328,326,325,327,322,319,321,313,310,308,309,304,304,307,301,301,300,295,298,296,298,291,293,298,300,300,306,307,306,308,316,322,319,321,319,327,332,327,317,312,302,304,302,298,292,302,301,301,315,387,479,692,959,813,457,58,11,64,120,190,277,318,344,359,372,385,397,412,427,443,461,477
2019-05-14,15:42:05.423,499,528,551,586,622,651,689,720,743,764,771,773,762,748,713,674,632,599,571,553,541,534,530,529,534,536,537,547,554,562,565,571,581,591,597,606,606,609,614,617,625,629,630,632,634,632,638,640,633,637,639,640,635,638,644,653,652,644,640,635,634,630,633,632,627,623,617,612,608,599,585,564,554,552,544,518,494,469,450,432,404,383,363,344,315,293,294,350,426,629,795,585,179,-150,-180,-177,-163,-115,-66,-61,-74,-90,-106,-127,-151,-175,-195,-207,-215,-219,-223,-225,-220,-205,-191,-174,-160,-154,-140,-139,-130,-135,-142,-157,-198,-239,-268,-301
2019-05-14,15:42:06.450,-317,-319,-308,-302,-292,-278,-245,-226,-208,-180,-156,-131,-92,-56,-18,4,26,59,90,118,139,166,192,221,243,266,293,331,357,397,434,469,504,549,583,613,652,690,728,765,797,828,863,897,917,937,966,994,1021,1044,1062,1084,1108,1133,1161,1180,1208,1222,1232,1249,1266,1283,1309,1323,1343,1371,1410,1514,1642,1928,2241,2058,1636,1238,1248,1316,1402,1520,1615,1667,1691,1707,1728,1741,1749,1759,1781,1803,1826,1849,1871,1908,1938,1973,2013,2049,2081,2119,2150,2170,2185,2184,2168,2136,2089,2042,1995,1955,1931,1910,1894,1889,1885,1887,1894,1903,1910,1919,1924,1930,1942,1943,1946,1959,1972,1983,1982,1985
2019-05-14,15:42:07.478,1988,1986,1980,1981,1978,1973,1971,1979,1983,1984,1975,1967,1962,1954,1951,1948,1953,1948,1940,1939,1942,1941,1940,1936,1940,1953,1958,1954,1946,1940,1932,1935,1937,1930,1924,1921,1916,1915,1910,1909,1916,1917,1913,1914,1946,2037,2180,2507,2655,2318,1834,1581,1628,1695,1776,1882,1959,2003,2029,2043,2058,2077,2088,2094,2108,2130,2141,2157,2186,2223,2271,2330,2395,2438,2464,2488,2514,2525,2528,2521,2498,2459,2414,2374,2330,2283,2251,2222,2206,2196,2203,2209,2215,2221,2224,2231,2229,2232,2240,2238,2233,2245,2246,2248,2250,2245,2233,2228,2250,2257,2256,2259,2260,2259,2273,2286,2294,2292,2290,2288,2291,2291,2305,2310,2320,2328,2336,2341
2019-05-14,15:42:08.506,2341,2338,2340,2351,2354,2350,2341,2345,2356,2359,2352,2351,2350,2343,2344,2341,2345,2356,2354,2354,2355,2368,2430,2523,2710,3059,3003,2589,2095,1973,2041,2116,2197,2291,2355,2380,2386,2400,2429,2446,2451,2458,2468,2485,2500,2507,2480,2476,2496,2513,2543,2573,2594,2606,2622,2636,2637,2623,2590,2542,2488,2429,2374,2330,2301,2280,2276,2275,2269,2258,2250,2250,2240,2235,2241,2236,2222,2212,2206,2198,2190,2184,2175,2163,2153,2146,2127,2110,2105,2094,2087,2076,2062,2053,2045,2037,2032,2023,2013,2002,1991,1984,1979,1969,1957,1944,1932,1927,1920,1910,1908,1908,1895,1882,1879,1874,1866,1858,1845,1828,1805,1793,1783,1773,1761,1754,1744,1737
2019-05-14,15:42:09.534,1733,1758,1840,1995,2362,2440,2009,1466,1263,1321,1385,1461,1561,1618,1649,1659,1652,1659,1671,1686,1693,1698,1701,1706,1717,1728,1743,1762,1785,1815,1839,1855,1870,1870,1870,1862,1839,1804,1752,1691,1620,1549,1487,1444,1402,1366,1340,1314,1294,1279,1267,1259,1256,1242,1241,1237,1230,1228,1225,1216,1208,1195,1189,1174,1160,1149,1145,1133,1123,1111,1101,1089,1075,1056,1042,1029,1016,1012,1002,993,984,980,971,962,955,951,946,934,922,918,914,890,876,872,868,858,841,818,798,785,779,758,706,684,674,667,658,657,720,808,1049,1402,1209,720,262,222,277,354,435,514,551,569,578,582,590,597,591,594
2019-05-14,15:42:10.562,600,606,617,624,639,657,680,705,730,754,768,782,787,796,787,767,727,674,617,557,508,466,431,399,373,354,339,331,316,311,308,314,314,308,302,290,284,286,278,265,258,257,245,240,220,213,212,205,199,187,179,173,163,160,151,144,139,131,123,124,121,118,118,109,99,100,102,84,70,65,67,71,66,54,40,25,18,12,4,4,5,2,-7,-6,41,120,275,573,586,278,-182,-324,-289,-245,-196,-119,-63,-33,-18,-15,-20,-15,-7,-4,3,12,23,29,43,66,84,108,137,161,177,187,202,202,202,188,158,113,67,19,-24,-59,-90,-114
2019-05-14,15:42:11.590,-117,-135,-140,-146,-145,-150,-154,-161,-162,-167,-164,-159,-158,-161,-169,-169,-165,-161,-169,-171,-174,-181,-189,-187,-180,-175,-168,-145,-137,-138,-133,-128,-134,-132,-140,-144,-143,-120,-104,-111,-120,-126,-124,-114,-111,-115,-123,-129,-136,-147,-149,-146,-143,-140,-146,-149,-149,-90,-3,156,420,397,117,-294,-393,-374,-337,-295,-228,-178,-148,-143,-132,-121,-120,-105,-104,-97,-86,-80,-59,-57,-40,-16,8,31,51,69,75,85,80,73,48,13,-25,-76,-120,-159,-187,-208,-227,-234,-242,-253,-264,-260,-259,-270,-280,-283,-286,-283,-283,-283,-280,-275,-278,-273,-285,-287,-292,-307,-312,-315,-320,-318,-325,-334
2019-05-14,15:42:12.618,-346,-351,-349,-355,-359,-361,-361,-368,-373,-371,-368,-377,-384,-392,-399,-412,-409,-414,-419,-420,-425,-425,-427,-393,-307,-190,43,155,-37,-429,-621,-627,-612,-577,-520,-456,-424,-406,-402,-396,-380,-381,-373,-372,-358,-345,-329,-311,-297,-274,-253,-227,-206,-188,-176,-162,-163,-165,-183,-213,-251,-295,-330,-369,-399,-429,-441,-454,-460,-467,-468,-466,-468,-471,-465,-458,-453,-459,-453,-455,-457,-455,-453,-454,-454,-458,-457,-450,-449,-459,-462,-463,-468,-476,-476,-479,-484,-483,-485,-484,-485,-490,-491,-497,-496,-498,-499,-497,-504,-504,-501,-493,-492,-494,-498,-506,-503,-503,-505,-511,-518,-527,-531,-530,-526,-528,-524,-531
2019-05-14,15:42:13.646,-534,-493,-397,-260,7,101,-188,-593,-821,-786,-734,-664,-587,-540,-519,-507,-497,-489,-480,-467,-459,-452,-438,-425,-418,-400,-379,-354,-331,-304,-270,-242,-227,-213,-205,-201,-209,-239,-274,-316,-363,-401,-432,-460,-482,-494,-501,-508,-508,-510,-505,-508,-505,-495,-500,-501,-504,-505,-506,-502,-500,-503,-504,-509,-511,-508,-511,-517,-519,-522,-523,-526,-527,-529,-526,-530,-524,-531,-533,-536,-541,-542,-546,-547,-548,-548,-549,-548,-546,-539,-534,-533,-536,-534,-533,-532,-534,-547,-556,-565,-568,-571,-567,-569,-570,-563,-565,-568,-531,-423,-294,-14,128,-194,-602,-885,-840,-779,-697,-610,-550,-526,-517,-500,-492,-481,-473,-461
2019-05-14,15:42:14.674,-452,-446,-433,-413,-393,-375,-361,-331,-297,-270,-245,-224,-202,-188,-181,-194,-213,-247,-298,-349,-401,-437,-466,-494,-507,-512,-517,-520,-515,-513,-512,-512,-506,-505,-502,-501,-501,-499,-499,-505,-503,-505,-503,-498,-500,-503,-510,-509,-512,-511,-512,-509,-511,-512,-515,-514,-519,-517,-514,-522,-524,-520,-515,-512,-516,-515,-512,-512,-510,-505,-510,-510,-503,-496,-492,-497,-503,-497,-497,-487,-490,-495,-502,-512,-513,-518,-511,-511,-512,-509,-506,-507,-450,-343,-173,162,140,-254,-705,-870,-800,-725,-633,-538,-486,-461,-447,-429,-414,-402,-386,-373,-357,-347,-327,-308,-292,-266,-240,-209,-172,-143,-112,-87,-67,-53,-46,-58
2019-05-14,15:42:15.702,-92,-139,-182,-229,-279,-319,-349,-371,-387,-392,-395,-398,-397,-394,-395,-387,-382,-378,-377,-371,-366,-364,-362,-360,-360,-362,-364,-365,-370,-370,-372,-375,-377,-376,-375,-377,-377,-377,-377,-374,-374,-372,-373,-375,-374,-369,-372,-374,-375,-369,-367,-366,-364,-361,-356,-354,-355,-352,-350,-337,-332,-340,-340,-333,-328,-326,-327,-336,-341,-355,-355,-356,-354,-359,-356,-350,-347,-337,-282,-186,-3,355,325,-87,-575,-721,-653,-580,-496,-396,-344,-317,-301,-289,-271,-263,-247,-239,-229,-211,-197,-180,-161,-137,-107,-76,-38,-9,20,39,53,63,67,57,28,-13,-66,-122,-167,-210,-244,-264,-280,-289,-293,-304,-304,-306
2019-05-14,15:42:16.730,-309,-305,-300,-303,-305,-300,-303,-308,-303,-305,-311,-312,-311,-305,-309,-312,-312,-315,-318,-320,-322,-319,-320,-317,-320,-323,-326,-326,-329,-323,-316,-321,-320,-320,-324,-324,-327,-335,-333,-330,-335,-334,-331,-319,-308,-316,-322,-316,-305,-305,-308,-322,-330,-338,-343,-342,-337,-336,-337,-335,-341,-339,-310,-228,-109,167,304,56,-378,-623,-603,-562,-511,-425,-356,-324,-303,-290,-283,-276,-264,-253,-243,-230,-222,-211,-188,-168,-143,-119,-93,-70,-54,-31,-16,-6,-7,-17,-37,-72,-115,-163,-212,-252,-283,-306,-320,-337,-338,-348,-345,-352,-352,-355,-349,-350,-343,-340,-341,-344,-341,-344,-340,-344,-347,-353,-351,-352
2019-05-14,15:42:17.758,-355,-354,-357,-350,-351,-352,-351,-358,-355,-354,-354,-361,-358,-355,-357,-363,-368,-368,-360,-357,-364,-370,-371,-364,-360,-360,-371,-372,-368,-368,-363,-370,-373,-381,-389,-385,-388,-389,-387,-388,-386,-396,-382,-319,-227,-28,217,110,-223,-588,-637,-610,-580,-527,-457,-416,-399,-397,-393,-390,-381,-376,-369,-363,-354,-342,-330,-313,-288,-269,-245,-224,-197,-180,-159,-151,-159,-160,-179,-207,-245,-298,-337,-376,-406,-434,-458,-463,-468,-477,-480,-485,-482,-479,-487,-485,-485,-487,-489,-492,-487,-485,-487,-492,-490,-490,-492,-491,-496,-500,-507,-506,-505,-508,-509,-512,-512,-514,-515,-524,-526,-532,-529,-544,-550,-548,-551,-543
2019-05-14,15:42:18.786,-539,-535,-544,-549,-552,-540,-534,-544,-553,-563,-569,-570,-572,-573,-572,-566,-563,-575,-575,-509,-429,-253,-13,-67,-374,-734,-802,-779,-753,-708,-628,-592,-555,-539,-534,-528,-522,-512,-500,-497,-486,-470,-455,-434,-408,-389,-355,-333,-306,-291,-277,-262,-261,-262,-277,-315,-353,-393,-427,-459,-491,-507,-523,-528,-536,-543,-549,-539,-543,-532,-537,-535,-540,-534,-523,-523,-526,-522,-523,-513,-501,-510,-516,-514,-515,-506,-514,-507,-511,-507,-507,-506,-504,-511,-512,-510,-512,-508,-508,-504,-505,-499,-496,-485,-480,-472,-464,-464,-461,-455,-438,-433,-427,-429,-435,-438,-436,-430,-424,-425,-410,-395,-386,-373,-310,-206,-29,247
