2019-05-15,14:37:38.064,46,45,37,41,49,47,44,44,51,43,42,46,53,54,58,60,45,47,43,44,50,46,34,43,49,51,45,46,49,170,360,327,-63,-213,-185,-120,12,42,44,54,64,69,75,86,87,94,95,102,104,101,116,124,124,131,135,143,149,161,173,173,183,186,180,179,180,176,168,159,137,119,109,94,79,70,56,48,46,52,43,48,37,51,59,56,62,60,58,56,60,65,72,69,68,69,66,57,40,51,60,54,60,55,52,54,61,58,56,54,60,53,58,53,48,49,55,59,60,61,58,59,61,59,61,56,62,67,66,68
2019-05-15,14:37:39.092,65,66,63,66,69,80,86,97,92,80,80,77,75,74,70,68,69,63,59,60,59,53,51,45,79,262,450,183,-213,-223,-177,-70,40,40,49,71,85,86,92,105,107,109,115,120,115,122,130,140,144,151,158,168,175,187,192,196,200,203,205,204,204,193,181,164,142,119,108,97,88,77,73,66,65,63,60,65,64,61,62,67,63,68,66,70,75,67,66,66,58,54,47,42,37,26,8,-9,-6,5,18,33,38,40,38,45,52,50,44,42,37,37,36,39,36,43,50,53,46,49,47,43,50,39,40,50,53,48,51,50
2019-05-15,14:37:40.120,43,47,54,60,53,50,61,52,53,48,56,56,89,254,435,215,-199,-254,-209,-111,16,25,22,28,62,66,76,80,82,78,82,89,95,100,101,104,111,116,124,133,138,145,155,161,165,166,171,173,168,162,150,131,104,81,62,53,44,35,37,32,22,23,26,26,24,24,26,27,35,37,34,34,35,27,24,24,26,25,23,19,28,18,15,10,8,9,7,9,12,15,10,6,10,5,8,6,3,3,10,4,-1,4,6,6,3,10,9,7,10,18,18,7,13,10,7,7,4,5,6,5,8,5,8,6,-1,2,112,302
2019-05-15,14:37:41.148,300,-96,-295,-255,-190,-63,-3,-3,14,29,37,45,48,45,56,58,64,69,73,76,84,87,90,104,107,115,121,131,133,142,149,146,147,141,135,115,99,86,67,49,30,19,11,1,-2,-7,-10,-7,-8,-9,-8,-1,0,-3,1,2,2,4,-3,-2,-3,-7,-13,-11,-13,-12,-16,-16,-18,-17,-20,-22,-25,-23,-24,-29,-27,-25,-23,-25,-24,-21,-14,-15,-17,-21,-20,-23,-24,-29,-27,-31,-31,-31,-34,-32,-34,-33,-32,-12,93,226,176,-162,-311,-274,-228,-120,-38,-37,-23,-7,7,11,18,23,26,28,33,39,41,42,48,54,62,69,78,89
2019-05-15,14:37:42.176,111,122,130,132,133,131,128,125,111,92,74,55,36,20,10,2,-9,-15,-20,-26,-23,-23,-25,-20,-18,-13,-13,-16,-14,-18,-16,-18,-22,-23,-24,-25,-26,-29,-32,-32,-31,-31,-29,-32,-33,-35,-38,-40,-41,-38,-31,-30,-33,-34,-33,-27,-24,-25,-24,-23,-28,-35,-37,-34,-37,-43,-42,-41,-43,-43,-43,-42,2,144,295,108,-256,-304,-270,-163,-66,-58,-45,-30,-23,-13,-8,-8,-3,-1,6,11,7,17,24,32,38,45,53,64,78,83,89,98,106,107,107,104,99,85,69,53,29,13,-6,-18,-24,-31,-38,-40,-38,-42,-41,-36,-34,-36,-36,-37
2019-05-15,14:37:43.204,-41,-44,-40,-39,-37,-35,-41,-42,-41,-44,-42,-51,-51,-48,-49,-47,-50,-47,-45,-42,-45,-47,-48,-47,-48,-47,-45,-43,-41,-42,-45,-43,-42,-42,-49,-51,-55,-50,-47,-50,-50,-48,-46,-50,-3,137,282,86,-270,-308,-267,-185,-68,-51,-48,-32,-21,-15,-12,-5,-1,-2,4,9,14,22,31,33,38,48,56,63,74,86,98,107,110,110,108,103,97,80,62,45,27,8,-7,-22,-30,-37,-45,-49,-44,-47,-49,-47,-39,-43,-41,-36,-36,-35,-33,-32,-29,-32,-32,-38,-38,-42,-45,-50,-48,-47,-46,-46,-47,-45,-51,-47,-50,-51,-50,-47,-54,-55,-47,-42
2019-05-15,14:37:44.232,-48,-46,-45,-50,-51,-49,-50,-52,-48,-54,-56,-52,-49,-48,-51,-34,69,209,174,-160,-311,-284,-243,-136,-62,-58,-46,-38,-27,-18,-12,-11,-8,-2,1,4,11,12,17,26,30,43,51,61,71,85,94,98,105,96,93,91,77,60,38,19,-2,-17,-28,-39,-44,-46,-49,-53,-56,-55,-55,-58,-55,-51,-52,-44,-48,-49,-49,-46,-49,-54,-58,-60,-62,-58,-57,-59,-63,-64,-69,-69,-65,-62,-66,-67,-65,-66,-67,-66,-70,-70,-68,-67,-69,-70,-66,-67,-69,-64,-60,-66,-65,-64,-70,-71,-76,-80,-80,-81,-82,-80,-77,-78,-77,-81,-57,66,227,134,-232,-345
2019-05-15,14:37:45.260,-313,-227,-122,-102,-90,-71,-62,-57,-51,-45,-40,-34,-35,-31,-23,-21,-17,-11,-5,4,19,19,29,36,42,52,58,63,62,59,54,43,30,2,-14,-34,-51,-68,-81,-93,-96,-99,-98,-105,-99,-98,-103,-103,-95,-94,-97,-93,-92,-90,-85,-90,-89,-91,-93,-93,-97,-99,-103,-105,-103,-107,-108,-104,-105,-113,-112,-114,-114,-116,-110,-111,-107,-107,-109,-111,-113,-108,-106,-104,-103,-101,-106,-104,-102,-104,-103,-104,-107,-109,-102,-105,-110,-98,-94,-99,-100,-94,-99,-101,-103,-101,-104,-104,-105,-103,-104,-101,-100,-105,-72,58,219,83,-280,-348,-319,-225,-126,-114,-99,-87,-81,-68
2019-05-15,14:37:46.288,-54,-53,-51,-50,-44,-39,-34,-32,-27,-22,-21,-12,-4,5,14,24,33,42,46,54,56,54,47,34,19,-3,-20,-36,-53,-64,-73,-80,-84,-86,-91,-96,-97,-94,-93,-93,-87,-89,-86,-87,-86,-83,-80,-79,-81,-80,-81,-84,-89,-90,-90,-91,-87,-88,-90,-94,-91,-95,-100,-98,-99,-100,-95,-94,-95,-95,-96,-93,-98,-96,-99,-98,-99,-95,-97,-96,-95,-99,-99,-93,-96,-97,-101,-102,-92,-100,-95,-94,-84,-87,-86,-86,-90,-90,-89,-89,-90,-88,-90,-88,-89,-91,-92,-89,-83,9,142,163,-151,-354,-324,-284,-183,-103,-98,-90,-74,-63,-57,-49,-47,-44,-38,-30
2019-05-15,14:37:47.316,-29,-24,-19,-17,-13,-2,4,11,18,32,40,51,59,58,59,59,52,42,28,13,-8,-24,-40,-54,-64,-70,-74,-77,-83,-83,-84,-86,-80,-79,-81,-79,-76,-73,-72,-69,-70,-69,-70,-72,-73,-77,-78,-84,-84,-82,-83,-86,-86,-89,-88,-85,-89,-86,-89,-84,-83,-87,-86,-86,-87,-84,-85,-91,-85,-88,-87,-89,-86,-83,-84,-82,-83,-82,-79,-79,-82,-83,-77,-79,-71,-69,-71,-74,-74,-67,-71,-73,-71,-74,-79,-81,-82,-80,-80,-76,-77,-80,-24,106,240,42,-284,-324,-291,-193,-98,-85,-77,-65,-51,-44,-38,-37,-38,-30,-27,-21,-18,-14,-4,1,8,18
2019-05-15,14:37:48.344,21,26,35,47,57,61,72,73,74,69,67,56,39,21,1,-15,-27,-42,-54,-56,-63,-66,-66,-65,-69,-72,-73,-72,-64,-67,-67,-67,-70,-65,-61,-61,-63,-65,-63,-65,-68,-64,-66,-65,-64,-65,-72,-69,-68,-69,-71,-67,-70,-69,-64,-63,-63,-69,-66,-67,-62,-63,-63,-69,-66,-58,-61,-64,-62,-63,-66,-64,-60,-58,-57,-53,-55,-61,-56,-57,-58,-55,-58,-60,-57,-47,-45,-48,-48,-48,-57,-54,-54,-54,-55,-54,-56,-52,-48,-50,-50,-53,-6,134,280,91,-257,-300,-258,-151,-62,-55,-48,-34,-25,-17,-12,-9,1,9,13,16,19,27,30,35,41,45
2019-05-15,14:37:49.372,57,65,74,79,86,93,98,106,104,96,95,90,72,51,33,17,-5,-11,-24,-33,-40,-41,-42,-42,-43,-43,-42,-40,-38,-43,-32,-30,-35,-37,-32,-25,-24,-29,-30,-32,-35,-32,-37,-42,-37,-39,-41,-36,-35,-35,-36,-37,-38,-38,-39,-43,-42,-37,-38,-38,-39,-36,-35,-34,-37,-39,-40,-38,-36,-42,-41,-41,-41,-40,-38,-34,-34,-33,-31,-27,-31,-30,-28,-28,-29,-35,-35,-31,-30,-32,-34,-37,-35,-37,-27,-26,68,213,246,-84,-299,-267,-221,-110,-41,-37,-23,-7,3,12,16,20,23,28,36,35,41,47,53,60,65,72,77,87,99,107,113,120
2019-05-15,14:37:50.400,126,131,125,126,119,102,89,69,47,31,19,9,-2,-5,-13,-15,-17,-16,-15,-14,-14,-13,-13,-12,-8,-6,1,5,1,2,-1,-3,-10,-6,-8,-13,-11,-13,-16,-19,-16,-15,-16,-9,-8,-8,-4,-6,-4,-1,1,4,7,10,-3,-16,-23,-27,-26,-22,-21,-18,-15,-20,-15,-16,-15,-14,-11,-5,3,-7,-13,-11,-21,-16,-14,-17,-18,-18,-22,-25,-19,-24,-25,-24,41,166,254,-4,-280,-271,-245,-166,-68,-46,-33,-12,-4,-10,-3,1,4,15,19,16,22,32,32,38,45,45,51,70,84,85,99,108,109,106,105,103,95,81,65,49,29,17
2019-05-15,14:37:51.428,5,-5,-15,-25,-26,-30,-34,-35,-30,-31,-30,-35,-27,-22,-22,-14,-15,-17,-12,-15,-17,-12,-6,-4,1,2,0,3,3,4,3,1,3,6,6,8,3,-5,-13,-7,-10,-13,-8,0,12,14,11,6,-10,-20,-23,-27,-21,-23,-29,-28,-26,-28,-24,-14,-7,68,173,219,-39,-267,-259,-225,-141,-45,-26,-22,-14,-7,3,8,11,16,11,14,24,33,44,61,73,90,99,105,117,129,134,137,143,153,162,162,159,152,135,118,92,69,55,48,36,36,36,32,25,19,17,10,6,10,17,22,26,23,24,23,17,13,14,14,11,16,14,12
2019-05-15,14:37:52.456,10,9,2,-4,8,8,10,11,8,3,-1,9,7,12,15,23,32,31,28,26,21,23,17,23,29,24,24,24,26,24,17,18,14,12,18,18,25,71,204,333,142,-199,-243,-194,-75,9,16,22,43,50,61,66,66,72,77,81,88,90,98,97,102,114,122,130,140,151,158,166,181,191,196,197,197,192,182,161,135,113,93,74,63,55,47,45,46,43,36,35,38,35,32,35,38,40,38,43,43,38,40,42,41,46,42,40,42,43,46,40,39,40,34,37,36,38,32,31,31,29,28,28,27,23,33,34,31,34,46,49
2019-05-15,14:37:53.484,40,42,39,34,33,31,30,30,27,28,29,28,28,29,28,96,247,359,63,-264,-249,-195,-62,13,25,44,57,68,73,75,83,82,90,97,111,112,118,129,135,138,146,154,166,171,184,196,204,212,211,211,211,201,187,168,144,123,105,88,74,58,58,59,57,51,50,55,55,57,55,54,56,58,56,58,59,60,60,60,58,59,58,61,51,43,47,51,45,48,51,50,51,51,49,46,42,46,45,44,46,56,53,50,46,46,43,40,44,58,50,53,56,46,44,42,44,39,38,39,39,41,40,41,41,81,209,346,182,-184
2019-05-15,14:37:54.512,-249,-197,-131,-4,39,48,62,70,78,90,97,105,112,115,120,120,128,133,136,143,148,162,174,185,192,202,213,219,218,221,213,208,195,178,155,136,120,99,79,67,63,61,56,56,53,53,58,54,51,53,59,63,69,71,74,68,71,65,61,55,53,54,52,56,54,53,56,55,50,52,53,52,49,55,53,52,54,54,56,50,52,52,56,49,48,52,55,51,46,51,49,45,41,47,48,45,47,48,54,140,281,350,47,-239,-224,-181,-72,20,33,51,66,74,82,93,99,100,106,110,116,119,124,135,144,153,163,170,178,186
2019-05-15,14:37:55.540,200,207,214,222,222,227,223,209,189,165,140,116,96,82,71,69,59,52,52,45,42,46,46,45,50,53,57,60,60,59,62,57,62,62,59,58,55,55,58,56,54,52,56,54,51,52,53,48,49,50,53,48,49,49,50,51,52,56,57,65,70,71,64,60,59,63,62,60,55,57,53,47,46,50,45,39,33,38,36,32,35,33,97,244,390,161,-212,-232,-193,-73,-4,0,23,52,81,84,73,69,70,85,104,119,134,139,143,158,168,170,167,166,167,174,186,199,204,201,198,193,182,181,178,166,155,130,110,94,58,26
2019-05-15,14:37:56.568,-14,-27,-7,43,71,66,62,54,52,56,58,59,52,55,63,62,63,65,56,53,49,58,61,60,60,64,69,63,67,63,50,53,59,59,61,64,66,56,58,67,65,60,59,65,68,52,47,47,46,36,34,30,37,34,29,35,33,27,30,26,63,164,255,96,-182,-225,-191,-152,-52,10,11,25,34,47,52,54,61,64,74,76,77,74,78,88,89,91,101,113,118,121,134,142,143,145,134,132,126,109,92,75,56,39,30,23,9,7,4,-4,-2,-8,-6,-3,-3,3,6,15,10,7,10,8,7,9,3,0,2,0,-3,-7
2019-05-15,14:37:57.596,-9,-10,-22,-20,-18,-15,-16,-11,-12,-24,-20,-10,-19,-21,-16,-13,-14,-10,-5,-13,-16,-24,-25,-31,-32,-33,-35,-30,-33,-40,-33,-29,-12,71,158,99,-166,-275,-256,-218,-117,-59,-51,-43,-34,-25,-21,-11,-7,-7,-2,3,6,11,14,18,24,32,43,44,54,62,70,69,80,84,76,76,74,61,43,22,5,-14,-26,-38,-54,-59,-61,-67,-62,-65,-64,-63,-63,-63,-63,-62,-62,-63,-58,-58,-59,-56,-51,-46,-50,-49,-48,-49,-47,-49,-50,-49,-50,-50,-52,-51,-53,-54,-55,-58,-55,-58,-54,-56,-58,-56,-55,-53,-59,-59,-57,-64,-70,-72,-70,-68
2019-05-15,14:37:58.624,-69,-75,-75,-75,-71,-74,-64,-42,48,152,75,-215,-318,-292,-204,-110,-84,-80,-67,-56,-53,-44,-42,-38,-40,-43,-33,-35,-33,-31,-30,-23,-18,-5,4,14,26,35,39,44,49,45,37,32,20,2,-13,-36,-50,-65,-79,-83,-98,-98,-101,-102,-101,-102,-103,-104,-103,-103,-109,-106,-102,-106,-99,-99,-102,-98,-95,-99,-98,-96,-101,-107,-102,-102,-106,-108,-107,-107,-113,-110,-112,-109,-109,-108,-110,-108,-106,-106,-110,-108,-107,-113,-111,-109,-104,-106,-101,-98,-93,-99,-95,-100,-103,-104,-103,-104,-105,-107,-105,-102,-106,-109,-105,-99,-73,33,165,56,-263,-344,-318,-227,-128,-117
2019-05-15,14:37:59.652,-99,-88,-78,-71,-59,-54,-51,-49,-46,-44,-42,-36,-33,-36,-26,-16,-5,2,11,17,24,33,39,46,48,49,46,38,24,2,-18,-37,-55,-67,-74,-82,-82,-83,-86,-86,-90,-91,-85,-84,-85,-82,-83,-78,-77,-78,-79,-80,-81,-78,-81,-86,-86,-86,-90,-91,-92,-92,-90,-93,-89,-91,-92,-94,-95,-96,-94,-92,-92,-88,-94,-89,-88,-87,-86,-83,-88,-89,-84,-84,-85,-82,-79,-81,-86,-87,-84,-80,-81,-76,-65,-65,-68,-68,-74,-77,-76,-81,-77,-76,-77,-72,-74,-74,-72,-67,-43,60,207,125,-210,-314,-291,-225,-105,-75,-68,-61,-48,-38,-31,-31,-22,-19
2019-05-15,14:38:00.680,-18,-12,-12,-9,0,7,10,17,33,43,50,55,61,67,76,77,75,77,78,78,66,50,26,10,-10,-31,-40,-48,-48,-50,-55,-51,-49,-49,-44,-47,-47,-44,-40,-37,-37,-30,-32,-32,-33,-32,-33,-39,-43,-41,-45,-43,-44,-40,-43,-41,-44,-47,-43,-42,-47,-49,-44,-44,-42,-41,-39,-41,-34,-41,-43,-39,-35,-36,-34,-38,-39,-41,-42,-42,-44,-44,-40,-31,-35,-37,-36,-44,-43,-47,-46,-46,-45,-44,-42,-47,-46,-43,-39,-3,117,243,76,-246,-292,-260,-192,-83,-51,-43,-31,-19,-12,-5,-3,2,4,12,18,21,24,31,37,38,48,58,68,77
2019-05-15,14:38:01.708,87,95,99,104,105,107,101,95,87,70,55,33,21,4,-8,-19,-25,-33,-34,-37,-37,-34,-38,-39,-33,-28,-25,-26,-25,-27,-26,-26,-28,-33,-32,-34,-35,-33,-34,-33,-34,-39,-39,-42,-41,-45,-47,-47,-49,-46,-44,-44,-41,-42,-43,-47,-44,-39,-43,-45,-46,-43,-41,-45,-39,-29,-26,-33,-31,-34,-37,-41,-42,-44,-43,-40,-39,-37,-38,-36,-32,-21,65,180,208,-93,-293,-274,-238,-132,-51,-41,-32,-22,-10,-4,0,6,8,7,13,19,29,33,38,41,43,53,62,72,83,91,101,102,110,112,107,104,99,85,68,52,31,14,-1,-21,-28,-32
2019-05-15,14:38:02.736,-32,-33,-36,-35,-35,-40,-32,-38,-35,-33,-23,-24,-22,-24,-24,-22,-22,-25,-29,-27,-33,-40,-42,-41,-39,-40,-37,-41,-40,-39,-41,-44,-43,-43,-46,-47,-46,-50,-50,-46,-43,-39,-40,-33,-39,-41,-40,-41,-41,-40,-38,-38,-31,-26,-36,-37,-31,-30,-35,-39,-45,-45,-47,-46,-43,-44,-43,-38,-36,48,192,219,-107,-307,-285,-234,-102,-48,-46,-32,-24,-15,-14,-9,-10,-12,-4,4,12,20,33,40,37,42,47,48,57,69,77,84,93,99,99,100,100,93,85,62,39,22,1,-19,-31,-32,-41,-46,-51,-54,-48,-47,-47,-52,-54,-52,-55,-49,-45,-41
2019-05-15,14:38:03.764,-42,-43,-45,-47,-47,-45,-45,-44,-40,-39,-35,-37,-38,-36,-43,-45,-45,-43,-38,-39,-37,-44,-42,-41,-43,-36,-37,-43,-41,-43,-42,-38,-35,-34,-33,-26,-32,-34,-31,-23,-25,-21,-20,-26,-27,-22,-17,-19,-23,-22,-24,-23,-28,-25,-14,82,208,206,-126,-319,-295,-235,-98,-44,-37,-24,-8,2,1,9,14,15,21,25,32,40,45,51,59,66,65,69,86,92,100,108,117,120,120,114,106,97,91,72,54,35,21,9,4,-2,-10,-15,-17,-34,-42,-48,-34,-23,-18,-16,-20,-19,-17,-31,-66,-34,-7,-9,-10,-16,-20,-29,-40,-42,-40,-42,-37,-40
2019-05-15,14:38:04.792,-38,-37,-38,-43,-54,-68,-44,-39,-36,-30,-27,-26,-42,-40,-22,-25,0,11,34,55,57,40,24,6,3,2,7,19,17,7,-4,-9,14,109,192,148,-152,-315,-276,-221,-120,-27,-34,-34,-12,13,36,59,71,79,83,87,97,108,114,124,129,135,147,159,166,181,188,201,210,210,213,207,204,193,177,160,135,115,94,89,70,66,60,49,46,49,56,56,56,56,56,62,63,59,53,55,60,50,33,41,24,-62,-124,34,47,26,16,37,35,36,24,12,15,13,9,9,17,-2,19,34,19,25,32,25,18,9,23,11,-8,-2,-31,-35
2019-05-15,14:38:05.820,-49,-10,-57,-50,-18,-24,-25,-17,40,147,351,-21,-207,-345,-252,-77,-12,-9,-7,11,35,65,46,-45,-29,3,47,58,61,71,82,66,63,78,93,79,53,63,75,85,97,95,69,48,20,-19,-78,-86,-93,-100,-103,-117,-118,-125,-123,-135,-141,-146,-149,-152,-136,-139,-138,-140,-140,-135,-137,-138,-146,-150,-146,-146,-146,-150,-147,-142,-141,-139,-142,-140,-139,-139,-140,-141,-140,-142,-139,-129,-133,-137,-130,-123,-127,-126,-120,-127,-134,-130,-128,-129,-130,-124,-126,-121,-114,-116,-113,-98,-11,112,78,-256,-410,-364,-246,-133,-115,-103,-89,-75,-71,-67,-66,-64,-54,-52,-47,-37
2019-05-15,14:38:06.848,-33,-31,-25,-17,-9,-3,7,14,22,36,45,51,56,59,55,50,37,19,-6,-22,-39,-54,-66,-74,-82,-86,-81,-83,-89,-88,-88,-87,-87,-80,-81,-77,-72,-74,-73,-75,-78,-76,-77,-78,-77,-80,-79,-80,-79,-80,-81,-81,-77,-77,-76,-75,-73,-74,-71,-68,-66,-63,-56,-59,-61,-59,-63,-71,-73,-71,-75,-75,-77,-74,-74,-77,-68,-65,-66,-16,96,210,-20,-357,-362,-300,-159,-77,-75,-62,-48,-35,-32,-25,-23,-21,-13,-14,-8,1,5,9,10,19,25,27,34,40,49,57,65,66,70,71,66,60,50,35,19,1,-13,-27,-36,-39,-42,-43,-40,-43
2019-05-15,14:38:07.876,-40,-38,-36,-38,-38,-33,-30,-28,-23,-22,-21,-26,-28,-25,-21,-20,-23,-21,-19,-18,-22,-21,-19,-20,-23,-20,-18,-16,-15,-15,-14,-17,-11,-10,-11,-10,-11,-9,-7,-6,-4,3,11,3,3,5,5,6,7,5,7,2,3,4,2,5,6,8,27,122,237,128,-221,-320,-256,-186,-68,6,11,27,51,59,60,63,65,69,72,76,81,90,92,93,105,107,108,118,124,129,134,141,138,134,129,129,123,115,103,87,70,58,44,33,30,24,20,20,18,24,20,22,23,19,26,27,23,26,27,24,19,16,15,14,19,13,14,15,15,16
2019-05-15,14:38:08.904,10,11,12,12,16,15,18,19,19,15,11,17,22,18,15,17,12,11,8,6,4,9,7,2,6,6,4,2,11,81,192,251,-19,-287,-261,-208,-80,-3,4,17,27,38,49,51,60,63,65,69,74,71,77,87,92,99,108,115,124,130,136,140,140,145,146,145,140,125,110,93,74,53,34,28,18,10,7,2,2,-1,1,-1,-4,2,3,-2,-2,2,3,2,5,5,7,7,2,-3,-2,-1,-1,-2,-4,-6,-8,-6,-8,-11,-12,-11,-10,-15,-16,-17,-17,-19,-19,-16,-19,-20,-13,-11,-15,-16,-13,-23,-26,-27,-28,-31,-31,-33
2019-05-15,14:38:09.932,-33,-30,-30,-31,-30,-26,64,189,195,-148,-340,-288,-208,-69,-43,-42,-25,-14,-3,3,11,10,14,21,21,30,30,36,38,42,48,53,61,70,72,76,84,90,93,92,91,89,83,69,54,31,14,3,-8,-27,-31,-38,-45,-46,-49,-46,-43,-44,-41,-43,-41,-43,-45,-44,-42,-42,-39,-42,-44,-47,-44,-45,-48,-47,-46,-47,-52,-50,-55,-58,-53,-55,-57,-56,-60,-61,-59,-60,-62,-62,-60,-62,-67,-68,-66,-65,-65,-65,-70,-70,-67,-67,-73,-68,-57,-59,-61,-57,-61,-67,-68,-65,-65,-64,-64,-63,-63,-62,-63,-63,-46,50,183,121,-245,-366,-309,-213
2019-05-15,14:38:10.960,-83,-69,-61,-52,-36,-30,-22,-21,-17,-9,-7,2,7,8,15,19,25,27,30,41,46,49,54,62,65,66,69,69,63,63,48,28,16,0,-12,-25,-31,-41,-51,-47,-49,-52,-52,-53,-52,-49,-44,-47,-47,-41,-42,-43,-41,-47,-50,-54,-51,-56,-58,-59,-63,-65,-63,-62,-61,-62,-61,-58,-67,-67,-63,-64,-63,-62,-65,-69,-67,-64,-62,-66,-67,-67,-64,-66,-70,-71,-68,-69,-71,-67,-68,-67,-69,-70,-70,-71,-59,-65,-68,-65,-65,-68,-66,-68,-71,-72,-68,-62,-66,-61,-63,-65,-50,56,183,105,-247,-355,-298,-219,-97,-71,-73,-55,-39,-32,-21,-19
2019-05-15,14:38:11.988,-10,-5,-1,1,1,8,14,18,25,32,38,48,54,61,66,70,68,67,69,65,62,61,51,38,18,8,-2,-21,-25,-34,-40,-41,-45,-41,-38,-29,-37,-39,-32,-33,-31,-33,-36,-31,-33,-29,-32,-34,-34,-35,-36,-39,-41,-39,-39,-40,-39,-42,-38,-42,-38,-33,-32,-30,-35,-32,-33,-37,-32,-31,-28,-31,-30,-31,-31,-30,-31,-27,-24,-27,-26,-20,-15,-19,-22,-18,-24,-29,-32,-29,-29,-31,-27,-26,-29,-22,-22,-22,40,146,224,-13,-309,-301,-251,-145,-47,-41,-31,-17,-7,-2,8,11,15,21,23,28,31,36,42,44,58,61,69,80,88,89
2019-05-15,14:38:13.016,94,97,96,90,93,91,79,75,58,42,30,11,0,-16,-19,-28,-33,-35,-35,-30,-31,-30,-28,-29,-22,-22,-23,-17,-16,-19,-19,-20,-21,-28,-26,-26,-33,-31,-30,-34,-37,-39,-42,-46,-45,-44,-49,-46,-47,-44,-46,-44,-43,-44,-37,-36,-39,-39,-40,-38,-39,-38,-38,-41,-39,-41,-40,-41,-40,-33,-30,-35,-30,-24,-20,-30,-30,-29,-31,-34,-35,-35,-32,-30,-29,-30,-33,-33,-33,-30,-2,110,238,92,-262,-310,-253,-135,-40,-40,-29,-14,-8,-2,7,12,16,19,27,32,32,37,42,49,54,55,65,71,76,86,90,96,102,105,106,105,104,96
2019-05-15,14:38:14.044,86,70,51,32,18,6,-1,-8,-11,-13,-14,-12,-13,-12,-11,-15,-12,-13,-10,-10,-8,-10,-4,-4,-4,-8,-6,-9,-11,-11,-14,-13,-12,-13,-12,-13,-9,-10,-6,-5,-6,-7,-7,-4,-9,-8,-9,-9,-11,-11,-12,-10,-12,-11,-9,-11,-13,-14,-10,-11,-10,-11,-16,-14,-16,-16,-14,-15,-16,-14,-9,-8,-7,-1,-8,-15,-16,-14,-9,-11,-12,-11,-13,-11,-10,-9,-3,79,200,243,-76,-318,-270,-194,-59,-16,-19,-3,11,18,25,31,34,37,42,49,51,56,61,66,75,75,77,88,94,99,107,116,121,122,127,122,118,117,109,92,78,61
2019-05-15,14:38:15.072,43,30,18,14,6,4,5,3,-1,-2,0,6,3,2,6,12,11,11,13,12,13,8,13,14,7,7,8,6,3,4,3,-3,3,6,3,4,3,0,1,8,1,-1,0,3,-2,-2,0,-3,-5,2,3,-2,0,2,-3,-2,4,-1,-6,0,4,0,1,9,16,16,12,16,8,6,3,3,2,-1,0,-2,5,5,3,3,0,23,134,259,160,-197,-284,-226,-150,-24,0,-1,17,31,42,45,51,54,54,61,63,69,71,78,85,87,93,102,104,115,120,123,131,134,134,135,133,133,125,115,100,84,69,58,41,29,26,20
2019-05-15,14:38:16.100,18,18,13,9,15,17,15,13,20,26,20,25,26,24,18,15,16,11,15,8,8,9,10,12,6,8,5,7,7,4,5,3,5,4,1,-1,1,0,-1,1,-2,0,1,1,-2,1,5,6,9,7,5,9,14,20,10,11,15,5,3,2,1,-1,3,3,3,7,7,4,6,15,112,238,228,-112,-292,-237,-167,-36,3,4,16,29,41,44,48,53,58,58,62,67,73,80,86,92,93,104,112,117,126,132,140,141,150,152,146,148,141,128,117,96,76,60,48,38,27,24,20,14,15,15,18,17,18,18,19,24,24,19
2019-05-15,14:38:17.128,21,22,20,17,18,20,17,21,18,15,15,18,13,14,11,13,12,11,11,12,12,11,12,14,16,17,14,17,15,14,16,19,20,16,16,16,15,19,13,10,10,16,17,13,16,15,12,12,21,23,23,26,29,26,22,18,21,20,20,15,16,18,18,21,20,15,72,197,293,46,-274,-250,-185,-57,10,12,18,33,46,54,54,62,68,70,80,85,84,87,95,102,103,113,115,119,129,138,141,146,152,154,153,152,145,139,124,106,90,76,65,53,39,32,33,26,30,27,28,26,26,30,28,31,29,28,31,34,33,35
2019-05-15,14:38:18.156,35,30,25,24,26,27,24,25,27,26,28,26,23,24,22,19,20,24,23,21,24,25,27,29,31,24,24,23,25,23,23,24,28,30,26,25,28,28,27,25,22,28,25,22,26,42,41,36,42,41,29,34,28,31,30,29,27,26,12,26,30,28,30,94,220,324,55,-272,-224,-164,-37,46,36,45,51,52,60,61,55,51,46,45,46,45,49,52,55,64,72,84,95,99,106,114,130,128,130,133,125,116,105,97,72,57,67,56,51,43,45,35,40,40,39,48,60,63,63,68,76,80,79,85,89,93,95,94,91,85
2019-05-15,14:38:19.184,99,105,97,94,97,93,93,88,95,95,90,97,99,95,94,88,83,86,78,77,71,70,75,72,63,57,78,82,72,74,64,43,29,20,21,20,19,17,19,17,20,12,17,31,90,191,227,6,-296,-331,-255,-179,-58,9,13,24,37,48,55,61,65,64,70,77,81,84,94,98,105,115,125,133,143,148,159,166,178,179,174,183,177,165,145,122,100,76,62,50,36,30,22,14,11,16,17,10,5,-2,-4,1,4,3,6,7,2,0,-5,-10,-15,-14,-18,-20,-23,-22,-25,-22,-23,-27,-25,-26,-21,-21,-22,-25,-25,-27,-26,-29
2019-05-15,14:38:20.212,-30,-32,-36,-29,-28,-32,-31,-30,-27,-34,-37,-31,-36,-39,-40,-36,-46,-46,-46,-52,-53,-52,-56,-62,-49,7,106,161,4,-366,-450,-368,-250,-115,-89,-81,-60,-52,-45,-42,-44,-39,-37,-34,-33,-32,-29,-23,-17,-6,-2,6,15,20,30,42,49,52,57,53,47,43,33,7,-25,-43,-70,-89,-101,-116,-127,-133,-137,-142,-143,-140,-145,-146,-140,-140,-140,-142,-142,-140,-140,-136,-137,-138,-137,-134,-141,-143,-144,-143,-146,-141,-147,-150,-152,-153,-149,-152,-150,-146,-144,-141,-142,-147,-148,-152,-147,-157,-149,-152,-157,-155,-146,-142,-144,-141,-131,-128,-127,-126,-125,-119,-127,-125
2019-05-15,14:38:21.240,-128,-129,-126,-128,-124,-126,-116,-105,-100,-74,32,110,104,-218,-496,-443,-355,-196,-92,-90,-73,-56,-39,-38,-25,-26,-31,-24,-9,-4,-1,0,11,15,24,29,42,51,57,68,79,85,93,83,86,74,59,45,19,-10,-34,-62,-83,-95,-106,-112,-123,-131,-130,-135,-141,-140,-147,-146,-142,-141,-145,-143,-143,-145,-142,-148,-149,-149,-149,-151,-155,-157,-158,-159,-158,-162,-163,-161,-160,-160,-165,-163,-162,-161,-156,-158,-165,-161,-162,-157,-158,-159,-158,-160,-159,-153,-151,-155,-147,-145,-149,-150,-138,-137,-137,-128,-132,-141,-140,-148,-148,-144,-143,-144,-142,-140,-136,-137,-132,-121,-45,61
2019-05-15,14:38:22.268,124,-135,-482,-464,-377,-246,-143,-129,-117,-103,-88,-77,-70,-68,-65,-60,-50,-48,-40,-34,-24,-19,-14,-3,1,12,27,39,43,53,63,66,65,64,61,54,35,15,-7,-27,-43,-59,-66,-71,-77,-80,-79,-73,-71,-70,-70,-69,-65,-62,-63,-63,-60,-63,-62,-64,-60,-62,-64,-67,-65,-65,-67,-65,-66,-61,-59,-64,-62,-61,-64,-61,-62,-65,-64,-65,-66,-67,-64,-59,-58,-55,-54,-47,-53,-48,-43,-42,-45,-43,-40,-35,-28,-34,-31,-30,-30,-36,-41,-35,-36,-35,-38,-37,-36,-34,-32,-31,-25,29,142,218,48,-291,-356,-285,-198,-74,-27,-13,-1,14,27,39
2019-05-15,14:38:23.296,44,46,52,57,62,71,74,79,86,98,104,107,122,135,145,152,161,166,168,172,167,159,146,130,108,82,68,50,36,27,17,8,8,9,6,6,8,9,9,14,15,14,19,25,24,21,27,23,15,20,13,12,17,12,14,8,11,9,5,10,12,8,11,14,13,10,13,11,14,20,16,15,16,19,19,14,17,14,19,22,20,20,22,25,27,23,28,32,32,31,34,34,28,27,24,23,25,21,24,27,26,19,22,28,46,151,258,247,-105,-316,-253,-168,-24,21,28,44,64,67,73,77,81,89,92,97,104,106,114,121
2019-05-15,14:38:24.324,130,142,144,154,169,180,188,192,207,209,210,213,207,195,188,169,150,128,105,87,71,66,62,57,51,55,56,55,59,58,58,59,62,65,63,66,65,64,63,62,57,60,56,50,47,50,45,41,42,38,36,39,37,41,38,36,33,38,43,38,35,36,29,31,28,32,31,28,31,31,28,26,27,29,24,27,28,29,24,22,24,29,31,31,30,42,45,38,41,44,38,31,32,28,32,36,35,33,32,30,33,41,53,131,238,306,25,-302,-266,-186,-41,34,40,56,69,83,88,94,100,106,107,113,119,123,130,140,149,155
2019-05-15,14:38:25.352,166,170,172,182,192,200,211,206,207,209,207,203,191,174,160,136,118,102,87,76,69,63,57,53,54,51,53,53,58,57,58,60,61,62,64,65,66,64,63,64,62,60,60,58,57,56,50,49,45,48,49,47,47,46,42,42,37,43,45,44,41,40,41,35,40,43,38,40,40,35,38,43,42,42,47,42,40,47,53,48,46,45,39,31,37,32,30,32,30,34,32,34,33,32,38,99,209,300,85,-265,-281,-214,-130,-7,24,31,46,61,67,73,78,84,90,95,102,107,111,114,116,126,133,143,154,161,174,180,187,196
2019-05-15,14:38:26.380,199,195,194,189,179,164,143,123,103,88,73,65,48,45,43,39,42,37,38,39,47,49,43,49,50,51,51,53,55,49,49,45,37,37,35,33,39,39,38,37,36,39,35,34,36,35,37,37,39,38,42,42,33,37,38,34,36,38,36,34,41,44,39,45,44,49,44,41,42,40,36,35,32,35,35,34,33,30,31,33,40,90,197,297,123,-246,-291,-221,-113,2,20,29,42,62,68,75,79,79,85,88,97,100,104,112,117,126,131,141,146,151,165,175,180,189,194,198,193,190,182,159,142,119,97,83,68,54,47,41
2019-05-15,14:38:27.408,37,35,37,39,35,37,42,36,36,42,45,46,50,51,48,46,44,46,43,41,42,38,38,39,31,34,32,33,35,32,31,27,32,33,32,34,27,29,30,32,30,26,34,34,36,37,34,30,28,35,31,33,31,31,33,43,44,39,37,35,30,28,29,28,26,29,28,25,24,29,28,34,102,216,301,65,-293,-282,-204,-62,22,29,40,59,73,76,82,85,93,100,99,107,115,120,126,128,138,143,150,160,164,177,185,193,196,203,206,199,198,190,170,145,135,106,86,78,63,53,51,51,50,44,44,43,42,40,43,45
2019-05-15,14:38:28.437,55,55,57,61,66,62,58,61,62,63,56,56,52,52,52,50,48,45,52,47,48,49,50,47,49,52,52,49,52,53,48,49,53,49,48,50,51,51,53,51,49,51,50,53,54,56,53,47,54,53,54,59,58,56,50,46,44,40,41,40,41,35,40,37,39,51,124,241,316,37,-293,-257,-180,-54,30,37,50,67,79,82,89,100,102,101,103,107,112,120,129,131,136,149,149,161,166,179,192,198,207,207,211,209,205,193,177,155,134,111,92,75,67,64,54,53,45,49,47,48,52,52,46,52,56,54,55,60,57,54
2019-05-15,14:38:29.465,52,54,49,44,41,45,42,45,46,42,48,46,38,44,42,43,40,44,42,40,40,43,41,41,43,42,40,41,42,41,46,45,44,47,55,56,52,60,55,47,45,42,43,44,37,40,47,44,47,49,60,140,239,283,23,-272,-255,-192,-106,11,40,50,69,80,87,95,95,103,109,109,121,123,131,135,144,148,152,165,171,183,197,209,215,218,219,224,218,210,199,179,156,134,113,94,83,72,61,58,56,54,50,48,50,47,54,60,57,61,65,63,64,62,58,55,52,50,47,47,44,45,43,46,43,40,41,35,36,38
2019-05-15,14:38:30.493,36,33,32,36,37,39,37,34,31,34,31,28,28,29,28,29,28,33,38,36,33,41,47,42,43,47,45,38,39,39,34,35,33,30,31,30,30,34,63,170,280,227,-142,-304,-242,-151,-14,15,21,43,58,63,68,75,81,84,88,93,92,99,106,116,124,131,138,149,161,166,176,185,191,193,195,199,197,186,170,149,124,101,87,66,51,41,36,28,26,25,20,18,22,21,14,19,23,24,26,25,24,23,19,22,21,25,22,23,28,25,19,14,17,14,13,11,11,11,12,12,6,9,7,8,12,11,11,11,11,6
2019-05-15,14:38:31.521,14,12,12,14,12,14,12,12,21,15,18,19,21,17,17,24,26,24,29,27,20,18,20,21,15,13,15,16,17,18,15,28,101,208,292,48,-306,-305,-228,-82,-4,2,21,37,47,55,57,62,69,70,73,74,84,91,94,107,116,118,126,140,149,157,171,179,186,190,185,187,182,173,156,130,113,97,71,55,46,33,31,25,22,17,18,19,17,23,24,17,23,27,25,30,38,33,29,32,30,25,28,30,24,23,21,21,21,20,23,21,21,21,20,21,21,22,17,19,21,21,21,19,19,20,23,23,16,18,18,17
2019-05-15,14:38:32.549,19,12,9,7,15,12,16,14,18,14,11,15,9,7,9,10,-1,5,0,-1,4,3,2,9,40,149,246,156,-195,-329,-261,-191,-70,-11,1,15,27,39,47,50,56,64,64,67,77,79,85,94,97,99,103,116,129,136,145,151,158,155,163,164,154,145,133,104,88,72,49,30,19,17,9,5,2,-5,-1,-3,-2,-1,6,2,4,11,7,6,8,11,9,4,3,-1,-3,-1,-5,-14,-7,-6,-10,-11,-8,-9,-13,-12,-18,-15,-12,-14,-11,-15,-14,-11,-14,-16,-14,-10,-15,-17,-12,-5,-9,-18,-12,-8,-13,-16,-13,-12,-15,-17
2019-05-15,14:38:33.577,-22,-23,-26,-22,-20,-4,70,165,204,-26,-314,-306,-252,-168,-48,-20,-6,9,20,28,37,42,47,46,51,57,59,67,77,85,93,98,106,121,126,134,149,159,168,172,171,167,156,145,125,101,81,61,48,26,21,13,2,-3,-6,-2,-6,-9,-8,-1,4,-3,-5,5,3,-6,-3,-2,3,-2,-6,-11,-10,-14,-18,-15,-22,-26,-37,-40,-37,-57,-50,-7,-24,-14,-12,-17,-29,-37,-41,-41,-39,-46,-52,-55,-52,-60,-58,-51,-42,-42,-34,-28,-25,-34,-37,-38,-39,-50,-50,-50,-52,-54,-55,-54,-50,-42,-36,-44,-35,56,183,231,-76,-294,-268,-198
2019-05-15,14:38:34.605,-87,-60,-51,-41,-31,-23,-18,-16,-15,-12,-11,-7,5,6,7,16,22,28,31,36,41,50,56,62,70,80,87,90,86,85,70,56,40,19,2,-10,-20,-34,-40,-41,-43,-47,-46,-47,-47,-51,-48,-48,-50,-41,-41,-41,-38,-36,-38,-44,-40,-37,-45,-39,-40,-39,-42,-41,-49,-52,-51,-49,-49,-51,-52,-60,-52,-57,-56,-60,-61,-58,-57,-55,-56,-57,-48,-48,-49,-51,-52,-55,-50,-45,-49,-47,-36,-34,-42,-39,-38,-47,-52,-46,-41,-46,-47,-47,-44,-48,-45,-46,-48,-6,127,282,114,-259,-299,-249,-130,-55,-54,-39,-25,-14,-7,-5,0,4,16,16
2019-05-15,14:38:35.633,20,23,26,33,35,39,39,50,56,64,69,77,84,93,96,95,98,92,83,71,51,39,20,-1,-15,-23,-30,-39,-36,-45,-55,-50,-47,-45,-47,-39,-44,-45,-40,-40,-43,-43,-43,-51,-47,-38,-41,-46,-48,-48,-50,-46,-41,-42,-45,-45,-46,-48,-50,-51,-47,-46,-47,-50,-52,-51,-52,-53,-51,-51,-53,-54,-51,-55,-57,-58,-59,-61,-60,-56,-51,-51,-43,-34,-41,-40,-41,-47,-45,-43,-47,-45,-43,-44,-44,-39,-40,-44,-45,-26,98,269,191,-200,-306,-250,-168,-62,-40,-32,-17,-8,-1,7,6,9,13,17,23,27,23,21,31,36,42,55,65,69
2019-05-15,14:38:36.661,75,82,90,100,110,113,115,114,113,98,80,64,43,26,12,2,-8,-13,-17,-18,-18,-22,-27,-26,-20,-17,-20,-18,-18,-15,-12,-13,-17,-17,-18,-19,-24,-22,-26,-28,-25,-26,-29,-30,-31,-25,-26,-24,-24,-26,-25,-24,-23,-27,-26,-25,-28,-32,-28,-26,-27,-26,-29,-20,-15,-18,-20,-22,-24,-26,-28,-25,-27,-28,-24,-28,-27,-27,-19,-9,97,237,208,-132,-289,-251,-204,-96,-33,-33,-23,-12,-3,-1,6,17,19,21,30,36,39,46,51,53,60,69,72,76,82,85,98,104,102,107,106,98,91,77,57,35,16,-2,-17,-28,-40,-48,-54,-59
2019-05-15,14:38:37.689,-64,-65,-70,-64,-64,-63,-54,-53,-57,-59,-52,-53,-59,-58,-61,-59,-59,-60,-65,-68,-68,-65,-71,-73,-70,-62,-60,-76,-101,-111,-98,-77,-72,-76,-71,-69,-68,-71,-75,-83,-81,-85,-86,-82,-75,-80,-76,-79,-79,-85,-87,-87,-88,-89,-89,-90,-90,-92,-94,-97,-95,1,174,235,-115,-346,-315,-240,-126,-109,-103,-86,-78,-66,-59,-60,-55,-50,-46,-45,-41,-34,-27,-24,-19,-14,-7,-4,2,14,22,30,39,46,54,56,58,56,44,24,4,-17,-41,-52,-61,-74,-76,-79,-81,-83,-81,-85,-87,-83,-83,-79,-74,-73,-73,-76,-75,-73,-73,-72,-68,-78,-81,-80
2019-05-15,14:38:38.717,-88,-88,-90,-90,-87,-87,-88,-95,-96,-94,-99,-96,-96,-95,-101,-100,-99,-105,-103,-105,-102,-104,-98,-99,-98,-101,-94,-90,-95,-93,-91,-102,-100,-98,-100,-101,-100,-101,-100,-94,-91,-90,-98,-50,121,280,15,-333,-326,-273,-158,-101,-97,-86,-77,-65,-55,-50,-43,-35,-35,-34,-24,-22,-19,-13,-5,0,2,6,11,22,32,39,46,50,62,64,66,64,55,45,33,12,-8,-22,-36,-47,-52,-59,-62,-60,-61,-64,-60,-59,-58,-59,-60,-53,-48,-48,-49,-49,-49,-52,-49,-54,-57,-50,-49,-51,-51,-47,-56,-56,-52,-51,-56,-52,-54,-58,-54,-52,-49,-48,-53,-53
2019-05-15,14:38:39.745,-54,-55,-58,-59,-53,-52,-58,-60,-53,-51,-57,-44,-36,-42,-41,-42,-40,-42,-41,-40,-43,-37,-37,-32,-31,-28,-29,-38,-19,115,297,193,-202,-290,-243,-164,-50,-35,-36,-17,-11,-3,7,11,19,23,29,31,37,43,45,48,50,56,64,69,80,86,97,101,107,115,114,115,110,110,99,80,63,46,26,14,8,-1,-2,-7,-6,-3,1,-2,-11,-8,-7,-10,-12,-6,-6,-5,-6,-8,-14,-13,-15,-17,-20,-19,-24,-26,-24,-25,-26,-26,-30,-31,-23,-22,-25,-26,-24,-25,-28,-26,-30,-32,-34,-32,-28,-33,-35,-39,-29,-23,-23,-22,-28,-34,-36,-33
2019-05-15,14:38:40.773,-29,-31,-38,-33,-27,-25,-31,-33,-31,66,226,256,-93,-304,-269,-208,-89,-46,-41,-30,-18,-11,-7,3,5,7,9,17,16,16,25,30,31,33,37,45,53,64,73,81,91,98,101,95,94,91,81,68,43,23,12,-5,-15,-21,-26,-34,-32,-31,-35,-36,-32,-34,-37,-35,-37,-37,-39,-39,-36,-40,-36,-42,-47,-49,-51,-54,-54,-51,-52,-57,-53,-51,-53,-51,-53,-50,-55,-56,-55,-57,-58,-59,-59,-55,-53,-49,-52,-51,-55,-57,-60,-55,-53,-58,-53,-47,-48,-52,-52,-50,-56,-54,-57,-61,-60,-62,-64,-64,-66,-61,-62,-73,-40,105,276,111,-273,-318
2019-05-15,14:38:41.801,-266,-153,-71,-72,-62,-50,-35,-27,-23,-17,-11,-13,-10,-5,4,8,16,16,15,19,25,30,36,51,60,66,70,75,81,79,79,74,58,42,19,3,-9,-31,-44,-45,-47,-52,-53,-53,-55,-60,-62,-62,-65,-58,-50,-45,-44,-44,-46,-50,-51,-50,-51,-49,-49,-57,-56,-54,-59,-64,-60,-64,-67,-66,-60,-62,-64,-63,-62,-62,-59,-65,-64,-62,-64,-67,-66,-64,-59,-62,-64,-63,-66,-65,-72,-76,-92,-99,-108,-118,-96,-72,-58,-60,-61,-61,-63,-58,-59,-60,-52,-47,-45,-45,-38,-31,-28,-32,-8,140,346,237,-162,-241,-211,-132,-49,-50,-53,-54,-45,-38
2019-05-15,14:38:42.829,-29,-17,2,18,25,30,35,39,48,48,48,44,44,44,44,55,64,71,81,92,98,103,109,107,91,76,56,35,23,7,-8,-19,-23,-26,-24,-18,-16,-24,-25,-28,-21,-23,-18,-15,-19,-18,-24,-31,-35,-39,-44,-43,-47,-52,-62,-65,-64,-66,-61,-58,-58,-58,-54,-56,-55,-50,-51,-44,-40,-40,-40,-42,-40,-39,-41,-38,-37,-42,-45,-42,-43,-41,-39,-40,-38,-34,-45,-50,-42,-44,-47,-44,-34,-35,-37,-33,-34,-37,-38,-35,-36,-36,43,192,272,-27,-310,-280,-232,-131,-43,-43,-32,-20,-13,-7,-2,7,13,17,20,25,32,33,38,50,56,61
2019-05-15,14:38:43.857,77,84,90,93,100,105,106,113,119,112,109,104,83,68,50,29,13,5,-9,-12,-20,-21,-24,-25,-20,-22,-19,-16,-16,-15,-14,-7,-8,-13,-12,-12,-11,-15,-18,-19,-20,-21,-25,-27,-24,-24,-26,-23,-22,-21,-25,-27,-29,-32,-26,-21,-16,1,9,8,-3,-4,-6,-13,-22,-25,-15,-8,-7,-10,-9,-17,-24,-27,-26,-38,-39,-37,-45,-52,-66,-65,-70,-76,-78,-78,-84,-8,152,268,-26,-319,-308,-253,-108,-46,-57,-63,-50,-31,-19,-21,-22,-21,-9,-8,-6,0,5,11,15,22,26,32,38,46,57,68,74,62,43,25,-5,12,29,30,40,148
2019-05-15,14:38:44.885,130,44,-47,-85,-100,-105,-93,-77,-66,-71,-79,-72,-67,-59,-63,-64,-62,-70,-75,-67,-67,-66,-69,-67,-69,-71,-69,-72,-70,-64,-61,-62,-67,-65,-68,-67,-70,-73,-74,-73,-66,-59,-64,-65,-68,-71,-72,-67,-69,-72,-70,-71,-73,-70,-70,-72,-70,-64,-57,-64,-62,-63,-71,-68,-69,-67,-66,-71,-75,-71,-72,-75,-77,-77,-67,55,241,174,-231,-346,-291,-197,-90,-83,-79,-64,-49,-38,-33,-28,-24,-25,-22,-22,-19,-12,-10,1,9,16,26,27,33,39,40,51,53,59,63,61,62,60,47,28,9,-7,-24,-35,-50,-64,-68,-75,-74,-71,-72,-69,-72,-70
2019-05-15,14:38:45.913,-68,-69,-63,-62,-63,-65,-70,-66,-64,-59,-64,-64,-67,-67,-72,-74,-72,-69,-67,-68,-72,-74,-70,-74,-73,-74,-75,-80,-80,-75,-75,-75,-70,-74,-71,-72,-73,-71,-73,-67,-65,-72,-61,-67,-73,-69,-58,-63,-65,-59,-67,-65,-63,-62,-62,-62,-63,-64,-63,-61,-60,-62,-51,60,228,186,-190,-334,-288,-224,-108,-66,-66,-53,-38,-31,-25,-21,-17,-8,-7,-4,3,7,7,12,17,22,27,32,41,47,53,60,70,71,74,74,65,63,55,40,24,5,-13,-29,-38,-46,-53,-51,-57,-58,-58,-53,-54,-58,-54,-54,-53,-49,-50,-54,-51,-55,-59,-59,-60,-61
2019-05-15,14:38:46.941,-60,-59,-61,-66,-62,-60,-64,-65,-67,-69,-68,-65,-66,-70,-73,-72,-70,-77,-74,-75,-78,-76,-77,-75,-70,-70,-72,-70,-73,-76,-79,-73,-78,-80,-73,-62,-69,-71,-71,-76,-81,-79,-80,-77,-80,-78,-72,-75,-73,-70,-77,-67,54,246,214,-203,-347,-301,-206,-94,-87,-77,-67,-57,-43,-33,-32,-31,-24,-23,-22,-19,-9,0,4,5,12,19,32,37,41,43,47,53,59,66,65,64,61,56,38,17,0,-19,-35,-45,-54,-61,-63,-70,-69,-68,-69,-67,-68,-72,-69,-73,-71,-69,-68,-67,-69,-68,-70,-72,-76,-73,-74,-79,-78,-78,-79,-78,-81,-79,-82,-87
2019-05-15,14:38:47.969,-79,-76,-79,-82,-79,-74,-79,-72,-76,-77,-77,-79,-75,-81,-81,-73,-78,-71,-70,-73,-73,-72,-71,-76,-64,-65,-74,-67,-69,-73,-70,-73,-74,-81,-79,-79,-81,-80,-79,-82,-84,-37,121,273,26,-341,-331,-263,-158,-80,-79,-74,-61,-50,-37,-32,-31,-23,-23,-19,-15,-7,-2,2,5,10,12,18,27,35,40,45,54,57,58,58,57,55,46,33,22,10,-5,-24,-36,-45,-50,-50,-54,-55,-54,-53,-52,-52,-48,-49,-46,-39,-35,-34,-36,-37,-37,-41,-40,-47,-53,-52,-50,-52,-50,-49,-48,-48,-50,-51,-53,-49,-48,-45,-45,-42,-46,-48,-43,-46,-46,-44
2019-05-15,14:38:48.997,-44,-46,-48,-39,-39,-38,-22,-21,-16,-10,-9,-11,-13,-11,-16,-24,-22,-17,-19,-25,-33,-40,-39,32,174,261,-17,-314,-306,-259,-153,-54,-44,-35,-26,-18,-5,-3,0,1,4,11,13,16,17,23,36,36,38,46,50,45,60,74,80,83,92,93,89,85,73,61,41,24,-1,-17,-25,-40,-45,-48,-52,-53,-51,-48,-51,-50,-46,-45,-44,-40,-39,-36,-35,-33,-36,-42,-42,-44,-45,-48,-47,-48,-49,-51,-56,-66,-63,-68,-70,-88,-103,-111,-107,-91,-79,-71,-65,-67,-74,-78,-73,-72,-74,-66,-62,-59,-55,-55,-45,-40,-48,-47,-50,-54,-60,-65,-63,-67
2019-05-15,14:38:50.025,-67,-64,-61,-60,-65,-60,-70,-53,86,277,157,-256,-331,-284,-182,-87,-91,-83,-67,-59,-52,-50,-42,-43,-46,-45,-52,-55,-52,-46,-48,-50,-45,-40,-38,-31,-25,-24,-21,-20,-25,-24,-18,-4,1,-1,-17,-26,-46,-67,-77,-88,-95,-109,-112,-110,-112,-114,-112,-106,-106,-110,-105,-109,-111,-106,-98,-99,-99,-97,-92,-96,-94,-93,-92,-87,-84,-75,-51,-25,-15,-20,-30,-48,-55,-58,-73,-81,-91,-95,-98,-101,-102,-101,-97,-96,-97,-97,-103,-103,-101,-104,-101,-90,-93,-94,-93,-100,-108,-113,-115,-118,-112,-110,-109,-99,-96,-95,-103,-110,-18,166,250,-115,-374,-321,-252,-125
2019-05-15,14:38:51.053,-93,-91,-80,-70,-56,-55,-50,-48,-45,-40,-43,-45,-45,-38,-19,-13,-6,4,15,24,27,38,51,53,62,65,72,77,76,70,51,37,18,-2,-16,-30,-38,-52,-63,-71,-76,-74,-80,-78,-75,-81,-92,-96,-91,-88,-82,-76,-77,-73,-70,-68,-67,-69,-69,-69,-68,-63,-62,-60,-58,-62,-61,-64,-63,-69,-67,-61,-65,-65,-60,-60,-60,-59,-61,-58,-56,-56,-60,-50,-43,-49,-45,-47,-44,-45,-45,-45,-39,-41,-38,-43,-47,-44,-42,-47,8,157,273,14,-308,-300,-249,-168,-60,-50,-47,-31,-16,-7,0,6,12,15,22,33,29,36,37,39,50,58,63,66
2019-05-15,14:38:52.081,81,86,94,102,108,111,110,110,104,94,83,62,45,27,9,-3,-10,-16,-25,-32,-34,-35,-37,-31,-32,-28,-25,-24,-26,-21,-20,-23,-23,-23,-26,-28,-31,-27,-30,-34,-34,-37,-40,-39,-37,-34,-39,-38,-36,-39,-37,-35,-40,-40,-40,-38,-41,-36,-35,-36,-34,-38,-33,-33,-35,-30,-28,-28,-27,-30,-30,-32,-35,-34,-31,-34,-33,-31,-31,-36,-38,-43,-20,108,283,188,-204,-295,-258,-165,-59,-53,-45,-33,-20,-13,-8,2,1,6,12,15,21,27,32,37,38,43,47,53,62,66,77,84,94,97,98,101,98,88,75,60,42,17,1,-14,-21,-27
2019-05-15,14:38:53.109,-33,-41,-43,-46,-47,-47,-47,-46,-44,-42,-41,-42,-34,-40,-37,-38,-36,-39,-41,-38,-42,-46,-48,-48,-47,-48,-45,-46,-48,-47,-46,-49,-49,-46,-44,-48,-49,-48,-52,-53,-53,-55,-56,-55,-50,-54,-53,-49,-51,-52,-50,-45,-44,-44,-42,-46,-56,-57,-58,-55,-55,-58,-56,-57,-57,-57,-55,-62,-27,118,289,107,-280,-315,-264,-157,-70,-61,-54,-38,-26,-21,-16,-10,-6,-7,-5,0,5,13,19,21,26,27,31,37,45,55,63,71,79,80,83,86,82,77,63,46,26,8,-8,-22,-28,-36,-44,-45,-36,-40,-44,-45,-44,-44,-46,-45,-41,-42,-36,-35
2019-05-15,14:38:54.137,-34,-38,-43,-44,-48,-44,-44,-46,-46,-47,-49,-47,-45,-49,-47,-44,-46,-45,-43,-44,-45,-46,-43,-42,-40,-39,-40,-40,-34,-37,-39,-35,-33,-35,-38,-30,-30,-32,-33,-31,-31,-34,-38,-40,-28,-31,-31,-28,-33,-38,-37,-38,-35,-35,-37,-36,-40,-42,-43,-40,-46,32,205,309,-22,-309,-272,-218,-95,-42,-44,-32,-21,-13,-5,3,6,8,12,15,17,20,23,30,35,44,49,52,54,62,70,73,81,82,84,91,91,83,81,69,51,32,18,8,-10,-15,-24,-30,-33,-31,-36,-37,-33,-31,-34,-31,-29,-31,-28,-27,-28,-29,-25,-29,-34,-39,-43,-44
2019-05-15,14:38:55.165,-42,-42,-44,-43,-39,-42,-46,-46,-44,-48,-43,-42,-43,-46,-41,-38,-45,-43,-45,-45,-49,-43,-42,-41,-41,-42,-44,-46,-48,-46,-49,-46,-36,-35,-37,-34,-35,-39,-38,-43,-41,-42,-45,-47,-39,-38,-39,-35,-39,-1,131,276,99,-258,-304,-253,-183,-66,-44,-38,-33,-17,-7,-7,0,4,4,11,18,20,20,24,33,34,38,45,53,66,68,75,83,89,91,90,95,95,92,80,60,39,26,8,-11,-21,-24,-32,-38,-40,-39,-42,-42,-39,-45,-42,-37,-34,-35,-36,-33,-36,-37,-32,-37,-42,-40,-43,-47,-47,-46,-48,-49,-51,-47,-51,-47,-49,-57,-57
2019-05-15,14:38:56.193,-54,-53,-58,-56,-55,-58,-56,-56,-55,-53,-52,-54,-56,-51,-58,-60,-58,-60,-62,-60,-59,-57,-51,-50,-54,-50,-51,-56,-57,-56,-54,-54,-60,-55,-52,-54,-53,-54,-64,-38,108,300,142,-274,-325,-269,-155,-67,-66,-57,-42,-35,-22,-15,-12,-10,-3,-1,0,0,12,17,23,31,32,35,41,49,54,62,74,80,82,90,90,83,81,65,52,32,9,-7,-23,-29,-41,-46,-50,-50,-51,-56,-54,-53,-55,-50,-49,-51,-47,-40,-43,-47,-41,-41,-41,-43,-44,-45,-55,-58,-56,-57,-50,-53,-57,-55,-58,-56,-57,-57,-57,-57,-56,-59,-61,-59,-61,-62,-61,-55
2019-05-15,14:38:57.221,-55,-54,-53,-53,-54,-54,-52,-51,-58,-54,-58,-53,-51,-53,-51,-41,-35,-47,-43,-42,-41,-47,-44,-47,-50,-47,-43,-44,-44,-41,-43,-55,-4,154,325,86,-296,-301,-248,-131,-52,-51,-39,-27,-15,-9,0,2,7,14,13,14,21,28,35,38,42,45,51,57,65,70,81,91,93,102,102,105,105,97,85,67,55,35,24,4,-8,-16,-17,-23,-22,-23,-22,-21,-22,-18,-15,-19,-20,-12,-9,-15,-14,-14,-14,-12,-11,-13,-18,-19,-21,-20,-20,-19,-13,-21,-15,-10,-13,-10,-13,-18,-20,-16,-12,-12,-11,-14,-14,-8,-5,-8,-12,-10,-11,-10,-9,-12
2019-05-15,14:38:58.249,-8,2,-6,-11,-5,2,-4,-4,-4,-5,-11,-4,-1,-9,-7,-9,-6,-8,-3,-2,-9,14,139,304,200,-185,-284,-232,-162,-44,-14,-6,9,23,34,42,47,51,54,53,55,67,71,76,81,85,93,97,108,113,119,130,132,136,140,144,146,144,146,135,114,100,84,63,48,42,29,20,17,9,13,16,11,12,13,16,18,22,26,26,27,24,27,25,19,15,14,16,15,13,9,12,10,11,10,8,6,4,3,-2,-2,1,0,2,0,2,0,-4,2,1,2,4,5,7,5,5,0,3,7,3,6,12,15,8,7,11,5,2
2019-05-15,14:38:59.277,11,8,5,6,6,6,8,10,5,-5,34,183,359,166,-223,-255,-206,-86,-9,-13,1,16,24,32,45,49,50,52,57,57,66,68,69,68,78,86,93,99,105,110,120,131,133,138,142,143,141,135,123,109,93,77,55,39,30,19,13,10,13,10,15,14,13,15,18,16,15,18,18,15,13,11,8,5,10,8,4,5,1,-3,0,-2,-1,-2,-1,0,0,3,-4,-5,-9,-10,-12,-9,-5,-2,-7,-5,0,2,2,-6,-3,-2,3,1,0,2,0,-2,3,-3,-1,11,9,7,10,4,-3,-8,-5,-5,-6,-6,1,1,2,3
2019-05-15,14:39:00.305,1,-11,55,227,351,33,-273,-248,-191,-62,-6,-7,7,18,29,36,40,44,47,54,59,58,65,67,70,74,85,86,86,92,97,105,109,119,128,135,137,138,140,133,123,104,83,71,51,35,23,13,7,11,11,11,10,16,17,16,19,21,23,26,28,26,26,27,26,23,19,15,15,15,20,18,13,19,18,13,19,18,11,10,12,13,11,13,15,15,18,23,21,22,21,22,18,18,14,14,17,16,17,19,22,21,22,38,33,28,30,25,24,23,26,26,25,26,25,26,28,30,30,22,91,255,386,89,-240,-214,-167,-55
2019-05-15,14:39:01.333,33,30,41,56,67,77,84,88,98,95,96,99,106,114,116,124,130,134,139,145,152,160,166,170,172,180,179,177,173,167,157,140,121,103,91,81,67,62,62,52,50,49,57,58,57,61,61,65,66,69,70,65,62,63,58,61,58,52,52,50,48,49,49,49,52,49,47,46,51,51,47,49,52,50,48,55,55,52,49,53,57,56,58,55,56,61,56,60,70,64,57,58,55,49,50,54,54,52,52,54,54,51,56,55,54,153,313,332,-37,-245,-199,-140,-13,39,39,56,67,77,85,93,101,96,102,101,100,107,110,117
2019-05-15,14:39:02.361,132,139,148,150,157,161,167,176,185,189,190,192,185,183,176,157,137,119,103,82,68,60,57,52,53,50,47,47,51,54,51,54,57,61,65,67,66,65,64,62,56,55,55,54,55,52,53,54,56,56,55,54,51,49,51,50,46,49,45,50,53,50,51,51,53,50,49,48,50,52,52,58,54,53,55,48,50,58,66,63,61,58,53,47,50,50,44,43,42,42,43,45,43,39,60,187,375,271,-144,-231,-180,-78,25,32,44,61,75,82,89,93,95,101,103,104,103,110,118,121,131,132,133,143,143,148,159,165,175,178
2019-05-15,14:39:03.389,175,179,176,173,167,146,131,112,92,81,65,56,46,45,42,42,44,50,51,47,49,49,50,56,52,49,49,50,48,43,44,40,37,38,34,36,39,44,43,40,41,45,37,36,38,39,40,41,40,41,40,42,39,36,40,41,40,39,37,36,38,42,40,43,44,53,45,50,48,44,46,42,39,41,38,35,35,42,44,40,43,39,123,299,381,18,-248,-200,-137,-12,34,35,47,61,66,79,80,86,86,90,99,97,103,108,113,114,120,126,132,141,148,154,155,164,174,177,178,180,178,175,163,144,126,108,92,73,63,57
2019-05-15,14:39:04.417,56,51,57,51,52,52,55,59,55,57,60,58,63,61,59,62,60,54,55,62,60,57,57,55,50,55,53,54,54,60,60,58,60,58,58,59,64,63,59,64,60,59,64,61,58,62,73,67,63,69,61,60,62,57,59,59,55,57,57,60,61,53,72,189,352,273,-109,-226,-175,-104,17,54,59,71,82,89,95,103,108,113,118,120,126,130,133,140,150,151,157,166,175,181,190,193,198,202,203,207,206,202,187,166,147,134,117,102,94,80,72,70,61,57,64,61,59,61,62,63,64,70,69,69,72,73,69,69,65,64
2019-05-15,14:39:05.445,55,59,57,55,58,53,49,52,50,47,48,46,47,45,45,44,47,45,42,48,49,49,49,51,54,56,55,62,62,56,54,53,49,47,51,51,49,48,53,48,44,49,46,40,140,313,378,20,-228,-190,-127,7,45,47,56,70,77,84,92,92,95,101,100,102,105,111,116,119,127,133,135,143,150,159,172,177,180,184,183,183,174,170,154,134,117,95,80,64,61,53,43,41,38,38,42,46,44,47,52,49,50,50,48,49,48,51,49,47,50,45,33,31,35,33,32,33,34,30,31,31,26,26,30,29,30,31,30,31
2019-05-15,14:39:06.473,34,33,29,33,28,27,26,30,30,18,27,30,22,23,34,33,28,33,27,21,22,21,25,26,24,24,23,29,26,23,15,64,221,383,147,-222,-224,-166,-47,26,27,34,45,58,67,71,69,75,80,84,87,89,95,102,107,110,111,117,123,135,142,143,149,160,166,166,164,167,165,151,134,112,90,75,63,57,45,44,36,32,35,34,36,33,34,32,28,39,38,33,35,35,37,32,29,33,36,35,34,33,31,28,31,30,30,29,27,24,23,22,25,24,30,33,30,29,30,32,29,26,31,33,33,30,31,27,25,31
2019-05-15,14:39:07.501,29,31,28,28,41,39,36,33,28,24,22,20,19,23,27,25,26,24,23,26,26,38,166,348,251,-156,-244,-185,-111,4,27,32,47,64,72,78,80,84,91,99,100,104,110,121,125,122,128,136,137,145,149,156,169,174,180,178,176,180,178,170,152,134,117,103,91,77,75,63,59,60,57,51,50,57,61,65,72,70,69,69,70,70,73,71,71,72,72,72,67,65,67,67,67,63,65,60,60,60,61,65,64,63,65,63,64,59,62,63,61,69,68,69,71,80,78,75,74,75,70,70,69,69,72,69,64,67,72,71
2019-05-15,14:39:08.529,58,59,75,198,359,282,-103,-222,-172,-104,18,48,50,64,70,80,83,88,97,97,96,101,108,118,120,122,127,134,141,151,156,162,173,179,186,193,191,193,193,180,171,150,130,111,94,82,71,58,57,49,45,42,42,38,41,47,44,42,52,50,52,50,54,48,44,43,44,38,39,37,30,27,31,30,29,37,32,30,33,33,34,29,32,34,31,33,35,31,34,35,33,30,27,30,30,32,33,32,32,37,41,32,32,33,27,24,21,24,26,23,23,21,22,23,18,20,15,88,258,364,33,-262,-218,-152,-24,18,16,25
2019-05-15,14:39:09.557,43,51,61,63,69,69,74,79,79,84,86,91,92,98,106,114,118,127,131,137,149,156,157,155,156,155,145,136,118,98,86,72,56,45,38,33,33,32,31,28,26,29,29,25,31,31,35,38,36,38,37,39,38,35,36,33,31,31,32,30,28,29,27,25,26,22,21,21,23,22,21,25,22,22,27,25,28,28,27,31,24,29,28,29,28,29,37,40,34,37,33,33,28,27,31,31,28,31,34,33,29,30,32,24,120,293,344,-28,-260,-204,-141,-18,22,19,42,53,63,70,80,84,81,84,80,78,86,97,106,111
2019-05-15,14:39:10.585,122,133,138,145,152,164,169,176,182,184,183,182,176,173,156,133,118,104,88,73,70,62,52,53,50,46,48,53,49,48,57,58,56,59,56,55,57,59,55,52,51,49,47,47,53,47,50,51,50,53,50,48,50,53,49,52,60,58,59,56,58,62,59,68,71,83,77,75,80,75,80,81,72,73,73,63,66,65,69,74,79,82,154,256,293,40,-240,-239,-188,-100,30,62,67,91,108,110,115,123,130,130,141,144,149,160,165,173,177,183,193,198,212,221,233,237,246,244,246,251,250,233,210,188,169,153,136,123,109,105
2019-05-15,14:39:11.613,111,110,120,123,121,122,118,117,114,106,105,104,103,113,114,117,112,98,90,87,84,82,81,86,87,94,94,91,91,89,81,81,84,86,92,91,89,95,96,91,89,92,92,87,82,89,84,85,80,83,80,82,79,80,70,108,235,356,174,-153,-203,-161,-89,41,61,66,82,90,94,101,101,99,108,112,117,119,126,135,135,145,148,153,160,163,178,177,190,197,195,197,194,186,182,162,136,117,101,84,67,56,42,27,20,13,8,4,15,13,12,18,17,5,8,16,12,4,1,8,-1,-9,-3,-10,-7,-10,-12,-11,-3,5
2019-05-15,14:39:12.641,-1,5,-1,-5,2,1,4,8,9,7,3,8,13,4,1,4,-1,2,3,2,0,5,1,0,1,-6,80,243,303,-23,-271,-249,-203,-87,-7,-9,5,17,27,35,40,50,51,49,47,57,65,67,75,80,84,96,101,110,121,132,136,143,148,150,155,156,149,133,110,90,67,43,30,18,8,4,-3,-13,-18,-14,-15,-20,-18,-18,-16,-12,-9,-13,-15,-12,-10,-11,-10,-14,-19,-17,-19,-17,-22,-22,-24,-27,-22,-23,-26,-28,-26,-22,-26,-21,-17,-16,-18,-16,-19,-22,-31,-32,-35,-35,-38,-40,-39,-38,-37,-35,-35,-49,-9,150,314,95
2019-05-15,14:39:13.669,-278,-305,-262,-161,-62,-55,-50,-33,-22,-12,-1,4,9,9,10,17,22,28,32,39,44,52,58,70,75,82,87,97,104,106,113,109,99,91,76,54,31,9,-8,-21,-29,-39,-45,-44,-44,-47,-48,-49,-49,-51,-47,-48,-47,-45,-45,-44,-48,-47,-49,-54,-53,-57,-55,-57,-59,-58,-61,-58,-55,-58,-55,-55,-52,-55,-55,-56,-54,-47,-55,-61,-59,-54,-59,-58,-49,-40,-49,-40,-39,-46,-46,-48,-47,-48,-50,-49,-53,-44,-48,-50,-44,-54,20,204,321,-28,-328,-291,-235,-117,-47,-50,-42,-25,-9,-9,-8,1,7,11,19,19,24,29,43,44,49,53
2019-05-15,14:39:14.697,63,68,78,79,91,101,112,114,113,116,111,100,84,67,44,22,12,1,-8,-11,-18,-23,-25,-23,-24,-21,-20,-18,-16,-12,-16,-12,-9,-7,-12,-14,-8,-10,-14,-6,-12,-10,-12,-13,-16,-18,-20,-17,-20,-17,-16,-18,-18,-14,-17,-20,-18,-16,-14,-14,-18,-18,-17,-6,-2,-10,-4,-7,-9,-7,-6,-5,-4,0,0,-1,-2,-2,3,0,25,158,315,170,-195,-259,-207,-145,-31,7,8,25,39,48,52,53,62,65,67,72,78,87,87,95,101,103,115,114,126,140,151,157,158,170,175,170,171,158,145,130,107,85,66,52,41,34,29,23
2019-05-15,14:39:15.725,21,22,19,17,16,16,17,22,28,28,28,31,31,26,25,25,20,18,19,15,13,17,16,18,10,11,9,10,11,8,7,5,8,10,9,4,4,11,13,9,9,13,7,5,-1,1,-2,-4,-6,-6,-5,-7,-8,-8,-11,60,210,311,39,-255,-247,-201,-91,-20,-18,-3,10,19,30,36,35,38,41,43,42,48,54,55,66,65,70,75,85,93,102,114,123,129,131,134,132,118,110,88,59,42,22,5,-4,-10,-20,-24,-23,-28,-29,-25,-25,-26,-24,-20,-18,-16,-16,-15,-17,-15,-13,-13,-17,-19,-19,-22,-18,-19,-22,-23,-23,-25
2019-05-15,14:39:16.753,-21,-24,-27,-32,-34,-35,-36,-35,-37,-35,-36,-35,-35,-38,-35,-38,-39,-38,-37,-39,-44,-42,-34,-36,-35,-33,-36,-34,-36,-38,-36,-24,-13,-11,-11,-19,-29,-31,-47,-5,148,309,78,-288,-300,-258,-149,-72,-73,-62,-45,-28,-23,-18,-13,-13,-12,-5,-1,1,7,12,13,16,21,23,32,44,60,77,95,107,110,109,108,100,91,80,54,29,3,-14,-37,-48,-59,-66,-73,-75,-80,-81,-85,-86,-92,-91,-86,-89,-89,-91,-93,-79,-83,-98,-103,-109,-111,-115,-123,-130,-143,-142,-137,-131,-129,-134,-136,-135,-130,-127,-120,-118,-118,-113,-111,-103,-91,-88,-82,-84
2019-05-15,14:39:17.781,-77,-69,-67,-63,-68,-75,-78,-88,-93,-96,-90,-82,-89,-92,-89,-95,-93,-97,-94,-95,-97,-99,-103,-100,-101,-99,-105,-116,-20,185,261,-123,-353,-308,-251,-138,-105,-107,-87,-72,-62,-57,-55,-49,-51,-50,-43,-44,-41,-35,-30,-30,-27,-21,-16,-16,-7,-1,1,10,14,16,18,21,22,11,0,-20,-37,-59,-80,-86,-95,-97,-99,-107,-110,-111,-112,-117,-116,-113,-113,-112,-112,-114,-112,-106,-111,-117,-114,-122,-121,-122,-128,-125,-118,-120,-116,-119,-120,-120,-125,-119,-128,-130,-133,-136,-135,-137,-138,-136,-134,-133,-138,-144,-142,-150,-153,-154,-156,-161,-160,-149,-159,-166,-168,-172
2019-05-15,14:39:18.809,-177,-183,-180,-186,-191,-183,-191,-189,-187,-189,-191,-184,-73,106,63,-313,-459,-405,-346,-235,-185,-190,-173,-156,-142,-136,-135,-130,-126,-121,-115,-109,-103,-101,-95,-84,-83,-80,-74,-64,-57,-55,-45,-37,-29,-26,-31,-32,-42,-53,-68,-94,-110,-126,-143,-155,-171,-186,-198,-206,-208,-193,-175,-162,-160,-154,-142,-140,-142,-135,-129,-127,-123,-128,-133,-134,-139,-136,-140,-134,-133,-136,-129,-129,-134,-132,-132,-137,-135,-130,-134,-133,-128,-130,-132,-128,-121,-122,-127,-126,-118,-113,-116,-121,-123,-126,-125,-124,-127,-127,-129,-129,-123,-125,-128,-126,-139,-83,77,220,-44,-370,-365,-317,-211,-135,-135,-126
2019-05-15,14:39:19.837,-112,-100,-94,-93,-89,-84,-77,-74,-72,-66,-64,-54,-54,-53,-40,-31,-25,-23,-11,-5,3,10,13,12,14,11,6,-12,-32,-53,-78,-90,-101,-115,-117,-121,-127,-132,-131,-130,-135,-130,-131,-130,-124,-118,-121,-124,-119,-125,-129,-123,-129,-133,-131,-130,-127,-130,-127,-123,-126,-123,-128,-131,-132,-131,-130,-130,-124,-126,-130,-126,-127,-129,-126,-123,-121,-127,-120,-109,-111,-105,-103,-105,-105,-114,-129,-140,-138,-139,-145,-140,-139,-133,-134,-120,22,222,157,-270,-398,-348,-266,-161,-156,-156,-145,-138,-122,-114,-107,-100,-105,-103,-101,-98,-89,-84,-74,-67,-68,-58,-58,-55,-45,-31,-26,-21
2019-05-15,14:39:20.865,-15,-14,-10,-9,-14,-26,-41,-64,-90,-106,-117,-123,-129,-129,-125,-123,-120,-123,-131,-143,-146,-161,-160,-141,-138,-138,-130,-127,-128,-128,-129,-135,-141,-140,-137,-140,-136,-127,-125,-123,-123,-123,-125,-125,-126,-125,-122,-120,-121,-121,-114,-110,-116,-114,-110,-115,-116,-103,-105,-110,-103,-106,-111,-116,-114,-112,-113,-113,-112,-111,-104,-107,-113,-110,-4,195,200,-191,-368,-324,-263,-149,-107,-109,-96,-84,-74,-61,-57,-54,-46,-42,-39,-34,-31,-29,-26,-14,-5,-3,7,22,29,38,49,56,54,56,61,63,65,49,31,11,-9,-25,-38,-46,-60,-65,-68,-74,-73,-72,-68,-72,-71,-60
2019-05-15,14:39:21.893,-59,-56,-54,-53,-56,-60,-55,-54,-64,-61,-63,-59,-55,-56,-60,-63,-61,-59,-60,-59,-59,-56,-55,-55,-54,-52,-46,-46,-38,-35,-40,-44,-41,-45,-46,-44,-43,-47,-46,-42,-43,-43,-44,-41,-45,17,168,259,-16,-301,-284,-243,-160,-58,-48,-40,-23,-17,-17,-4,4,2,8,13,15,20,28,32,37,44,53,60,70,75,88,100,105,104,109,113,110,102,88,65,43,21,5,-15,-26,-29,-35,-40,-44,-45,-49,-47,-46,-43,-45,-37,-37,-35,-31,-35,-36,-34,-31,-37,-41,-39,-43,-49,-56,-58,-60,-61,-59,-58,-59,-58,-60,-57,-57,-60,-64,-66,-63,-70
2019-05-15,14:39:22.921,-65,-58,-60,-65,-60,-53,-60,-61,-55,-61,-68,-69,-68,-68,-66,-66,-67,-69,-67,-68,-73,-67,45,232,237,-146,-319,-286,-208,-94,-77,-71,-62,-54,-44,-36,-36,-34,-27,-21,-20,-12,-5,-1,2,13,15,17,24,31,35,48,57,63,69,79,80,76,70,58,39,18,-3,-24,-42,-50,-60,-71,-74,-80,-75,-73,-73,-72,-71,-67,-64,-64,-59,-60,-60,-62,-64,-60,-62,-64,-63,-70,-72,-71,-70,-71,-72,-69,-77,-74,-76,-81,-84,-85,-82,-79,-82,-80,-82,-80,-83,-83,-86,-87,-86,-84,-83,-83,-72,-66,-72,-77,-72,-78,-80,-78,-80,-81,-79,-77,-76,-76
2019-05-15,14:39:23.949,-69,-72,-83,-51,105,295,113,-280,-315,-272,-164,-84,-79,-77,-62,-49,-47,-40,-34,-29,-24,-22,-22,-18,-9,-7,-3,4,9,12,17,27,35,40,47,56,60,71,72,69,65,53,31,4,-10,-27,-47,-49,-64,-72,-69,-69,-70,-72,-64,-62,-61,-58,-60,-60,-56,-50,-49,-55,-49,-50,-52,-51,-52,-57,-61,-59,-61,-63,-63,-63,-67,-61,-62,-66,-64,-62,-60,-62,-57,-58,-62,-56,-56,-57,-56,-51,-51,-55,-53,-54,-57,-58,-57,-52,-54,-56,-48,-43,-47,-44,-46,-47,-52,-57,-54,-48,-48,-46,-44,-40,-39,-36,-47,-34,96,296,218,-186,-281,-240,-170,-59
2019-05-15,14:39:24.977,-38,-35,-21,-13,-4,1,15,14,15,23,32,35,34,47,49,54,58,66,67,76,85,95,102,110,116,118,119,118,110,102,82,64,41,26,13,-1,-9,-20,-20,-25,-23,-25,-27,-20,-18,-16,-8,-6,-10,-6,-7,-7,-6,-3,-5,-7,-4,0,-3,-8,-7,-10,-15,-7,-12,-15,-10,-12,-16,-16,-17,-19,-22,-19,-22,-27,-20,-21,-21,-26,-22,-27,-28,-22,-23,-22,-18,-6,-12,-14,-12,-16,-17,-15,-16,-20,-20,-22,-24,-22,-23,-22,-23,-13,96,265,240,-131,-283,-239,-184,-71,-24,-24,-11,2,15,18,21,29,33,36,41,48,54,54,62,67
2019-05-15,14:39:26.005,70,79,81,87,96,106,110,120,126,129,126,127,123,109,84,70,49,34,18,3,-7,-13,-17,-18,-21,-19,-22,-25,-20,-18,-20,-27,-23,-20,-17,-12,-13,-20,-22,-23,-25,-25,-25,-33,-35,-29,-29,-25,-27,-32,-30,-33,-36,-35,-32,-32,-32,-35,-36,-36,-38,-36,-38,-40,-39,-36,-35,-36,-35,-34,-38,-41,-41,-40,-40,-43,-42,-30,-29,-33,-31,-32,-34,-38,-38,-35,-38,-40,-40,-38,-36,-39,-38,-49,14,191,334,46,-280,-264,-209,-95,-39,-44,-31,-13,-3,0,7,12,18,20,23,28,29,37,38,39,44,50,55,59,66,69,75,88,97,99
2019-05-15,14:39:27.033,106,107,104,94,81,62,41,26,3,-12,-24,-23,-32,-36,-34,-39,-40,-39,-36,-35,-41,-37,-40,-38,-29,-30,-33,-29,-27,-29,-32,-34,-31,-32,-36,-38,-42,-38,-38,-35,-39,-37,-36,-37,-33,-34,-35,-35,-30,-30,-32,-28,-29,-29,-25,-26,-29,-28,-26,-31,-32,-26,-31,-34,-33,-31,-28,-30,-29,-15,-13,-15,-17,-22,-21,-21,-24,-21,-22,-21,-19,-15,-18,-19,-18,-34,22,197,357,87,-263,-249,-201,-93,-22,-26,-20,-3,11,13,15,22,27,28,38,42,49,49,53,63,64,77,83,86,95,101,113,119,127,130,131,134,131,127,123,102,77,57
2019-05-15,14:39:28.061,37,21,15,12,5,-2,-2,1,-3,-2,1,0,3,8,9,4,10,8,10,10,11,12,7,12,6,3,5,3,1,4,8,6,1,3,-1,-4,0,1,-3,-4,1,3,6,5,7,2,5,6,6,4,10,12,9,15,14,7,6,18,13,10,18,17,12,13,12,13,17,15,16,11,14,5,1,13,127,300,256,-120,-253,-207,-148,-39,1,3,14,26,34,43,51,54,56,55,54,61,65,69,76,79,86,91,98,105,112,121,126,132,136,143,141,142,140,130,107,86,66,47,32,20,12,1,1,-4,-9,-3,-1,-2,-2,0
2019-05-15,14:39:29.089,2,1,5,-1,-2,2,-1,0,-2,-4,-4,-10,-6,-13,-19,-15,-16,-16,-19,-18,-23,-26,-27,-29,-28,-26,-25,-28,-29,-24,-21,-23,-22,-20,-23,-20,-20,-19,-24,-22,-19,-20,-17,-22,-24,-19,-11,-13,-13,-9,-12,-20,-22,-25,-24,-21,-21,-17,-17,-20,-22,-35,-4,145,329,167,-227,-277,-233,-128,-41,-39,-28,-11,-3,4,10,10,12,19,22,25,31,33,34,34,42,47,54,64,70,76,83,91,93,100,108,109,109,107,96,77,57,35,14,-5,-15,-27,-36,-34,-37,-34,-34,-34,-33,-32,-35,-30,-34,-29,-27,-30,-27,-28,-24,-29,-27,-28
2019-05-15,14:39:30.118,-39,-37,-41,-48,-45,-41,-41,-45,-44,-43,-42,-42,-37,-42,-38,-36,-36,-43,-40,-38,-41,-36,-39,-40,-38,-40,-39,-41,-40,-38,-40,-39,-39,-34,-39,-44,-37,-25,-28,-29,-26,-28,-31,-29,-28,-28,-29,-28,-27,-26,-31,-30,-36,-22,117,315,205,-208,-280,-234,-147,-35,-30,-27,-16,1,9,6,15,21,21,30,33,36,41,47,49,54,64,71,73,80,83,92,101,112,112,115,118,119,111,104,89,69,49,32,14,3,0,-8,-12,-14,-18,-16,-20,-21,-18,-18,-13,-14,-8,-2,-6,-6,-3,-4,-9,-12,-6,-7,-12,-11,-14,-15,-16,-19,-19,-19
2019-05-15,14:39:31.146,-15,-10,-11,-14,-11,-16,-18,-19,-15,-19,-16,-13,-13,-5,-7,-10,-7,-4,-7,-14,-8,-13,-14,-10,2,-3,-2,2,-2,-7,-3,-4,-3,-5,-5,-5,-7,-7,-6,-13,15,150,323,198,-190,-261,-214,-142,-29,-4,-3,16,26,35,41,45,48,53,60,61,67,69,75,83,89,92,93,104,107,113,125,132,143,150,151,153,147,146,134,109,91,72,51,35,32,21,14,10,4,6,5,3,2,3,5,10,8,7,8,4,10,12,11,10,7,7,4,4,1,4,4,3,1,0,0,0,-4,0,-2,-5,2,2,3,-4,-2,1,-1,-1
2019-05-15,14:39:32.174,1,6,1,0,3,5,7,4,4,4,-3,-3,-6,0,-5,-5,-4,-3,-4,1,-5,0,115,298,270,-112,-241,-179,-98,26,40,21,23,24,23,21,20,14,4,1,-12,-18,4,28,40,42,54,58,65,68,76,82,87,96,104,112,122,135,140,130,105,75,46,25,11,-8,-14,-27,-39,-41,-40,-38,-38,-38,-35,-41,-41,-44,-35,-32,-34,-32,-34,-24,-34,-46,-53,-55,-59,-68,-70,-67,-67,-65,-57,-56,-46,-48,-43,-37,-48,-40,-40,-46,-50,-49,-42,-44,-45,-42,-49,-48,-49,-34,-35,-42,-41,-48,-54,-55,-57,-61,-63,-64,-59,-58,-53,-60
2019-05-15,14:39:33.202,-63,-74,-31,125,267,6,-348,-340,-267,-161,-79,-78,-73,-56,-49,-41,-42,-35,-29,-30,-27,-17,-9,-3,-5,4,9,12,24,31,41,51,66,76,82,83,86,91,90,83,71,49,32,12,-14,-27,-41,-52,-55,-58,-56,-61,-60,-57,-62,-62,-62,-56,-54,-50,-44,-38,-34,-36,-34,-28,-29,-33,-37,-39,-40,-44,-48,-45,-44,-43,-41,-43,-38,-42,-45,-46,-46,-47,-46,-33,-32,-35,-33,-35,-34,-37,-35,-36,-38,-40,-44,-37,-38,-36,-35,-40,-44,45,231,270,-100,-315,-272,-216,-110,-37,-36,-26,-15,-1,5,10,15,20,25,26,34,38,37,49,54,57
2019-05-15,14:39:34.230,63,71,78,82,98,108,114,125,126,128,126,122,107,80,65,43,26,10,-6,-16,-24,-23,-28,-26,-24,-24,-28,-24,-22,-20,-16,-15,-14,-16,-14,-15,-23,-16,-19,-21,-19,-21,-21,-24,-24,-28,-30,-27,-27,-34,-29,-25,-26,-26,-18,-16,-21,-24,-23,-27,-33,-31,-31,-31,-28,-26,-27,-28,-28,-22,-28,-31,-18,112,290,183,-196,-284,-242,-182,-69,-28,-27,-17,-1,6,8,20,17,23,30,36,38,41,53,54,56,63,68,74,81,98,105,108,119,128,126,127,129,119,95,76,56,35,18,8,-6,-9,-11,-13,-18,-18,-17,-22,-19,-17,-17,-14
2019-05-15,14:39:35.258,-11,-12,-12,-10,-9,-10,-10,-13,-17,-16,-17,-24,-25,-20,-21,-24,-22,-25,-26,-26,-27,-28,-28,-26,-27,-30,-29,-32,-25,-18,-12,-18,-22,-17,-26,-33,-33,-34,-33,-34,-34,-33,-34,-32,-31,-33,-41,34,216,327,-5,-285,-259,-198,-79,-38,-35,-26,-11,1,9,11,15,21,27,32,38,38,41,47,55,56,64,73,77,81,95,103,111,112,119,125,123,122,112,86,69,45,25,6,-5,-12,-24,-25,-28,-29,-34,-32,-28,-31,-29,-28,-24,-21,-22,-28,-24,-25,-21,-25,-24,-28,-30,-29,-31,-33,-37,-37,-39,-43,-35,-37,-40,-33,-35,-37,-39,-35
2019-05-15,14:39:36.286,-32,-35,-33,-37,-40,-32,-42,-43,-36,-33,-38,-42,-37,-39,-50,-46,-46,-43,-43,-43,-45,-43,-40,-38,-48,-55,-33,130,326,147,-249,-284,-231,-134,-47,-47,-38,-27,-17,-11,-7,-1,6,10,12,18,24,32,34,44,49,50,54,58,65,75,82,94,101,107,108,109,116,104,86,63,40,21,6,-5,-10,-16,-22,-27,-33,-34,-32,-29,-29,-29,-29,-31,-24,-24,-26,-30,-24,-23,-26,-17,-20,-22,-23,-23,-27,-26,-23,-24,-25,-23,-25,-28,-23,-26,-24,-24,-23,-28,-32,-28,-28,-30,-31,-30,-34,-31,-27,-19,-27,-26,-22,-26,-25,-26,-28,-30,-27,-27
2019-05-15,14:39:37.314,-25,-24,-30,-25,-25,-35,2,159,327,114,-255,-267,-218,-141,-36,-25,-21,-11,6,15,20,18,24,27,38,44,49,47,58,62,63,73,75,86,96,101,106,110,127,128,128,132,127,121,106,92,73,50,33,19,11,4,-3,-9,-10,-8,-7,-5,-3,-4,-7,-4,-2,0,1,0,1,-9,-9,-8,-11,-10,-13,-15,-13,-13,-11,-12,-10,-11,-13,-13,-17,-12,-11,-13,-11,-12,-10,-12,-13,1,2,-1,-1,-3,-11,-14,-12,-16,-20,-17,-20,-19,-21,-21,-15,-20,-22,5,143,312,150,-216,-261,-219,-147,-37,-16,-8,5,17,22,27,31,36,38,41
2019-05-15,14:39:38.342,47,53,54,57,64,66,71,76,88,92,100,109,111,121,124,126,125,125,111,87,75,52,31,19,5,-3,-14,-20,-23,-26,-22,-26,-27,-18,-18,-22,-19,-16,-18,-18,-13,-10,-16,-14,-15,-14,-15,-16,-19,-24,-23,-24,-21,-14,-17,-15,-18,-17,-22,-25,-19,-23,-25,-26,-23,-22,-26,-23,-20,-21,-18,-17,-21,-13,-4,-9,-12,-8,-7,-15,-17,-19,-21,-25,-22,-22,-28,-21,-20,-20,-25,0,148,342,186,-203,-253,-205,-110,-24,-20,-8,3,10,16,23,25,28,30,33,38,44,50,58,68,73,79,88,91,90,99,108,118,125,133,134,131,137
2019-05-15,14:39:39.370,136,119,102,75,60,43,28,15,1,-5,-5,-6,-3,-9,-7,-4,-6,-8,-10,-12,-7,-5,-4,-1,-3,-7,-9,-8,-10,-9,-12,-18,-13,-14,-19,-17,-12,-13,-9,-10,-13,-14,-13,-11,-13,-18,-19,-21,-16,-14,-11,-14,-14,-15,-15,-15,-16,-11,-18,-19,-5,0,-5,-3,0,-6,-11,-11,-13,-12,-12,-14,-10,-13,-16,-14,-19,-23,93,301,284,-120,-273,-226,-156,-47,-25,-26,-10,7,11,15,24,26,29,34,41,44,40,51,58,62,68,73,81,82,87,100,104,111,114,116,115,120,114,106,91,74,53,41,26,15,2,-2,-7,-14,-14,-14
2019-05-15,14:39:40.398,-18,-14,-19,-16,-16,-13,-10,-10,-5,-7,-5,-4,-3,-6,-6,-6,-9,-16,-11,-9,-14,-13,-18,-17,-21,-16,-16,-18,-15,-20,-22,-16,-21,-19,-21,-21,-17,-17,-9,-6,-2,-6,-8,-15,-20,-23,-22,-26,-23,-28,-30,-23,-22,-24,-24,-23,-29,34,193,294,-3,-286,-253,-206,-126,-33,-28,-26,-6,2,13,18,30,33,33,38,38,44,51,52,57,65,71,78,85,93,97,107,120,127,126,129,127,125,117,100,81,56,41,23,11,2,-6,-12,-16,-16,-19,-17,-12,-13,-7,-8,-3,-4,-7,-2,1,-1,-3,-8,-10,-9,-13,-16,-17,-14,-19,-19
2019-05-15,14:39:41.426,-18,-19,-19,-19,-14,-22,-24,-20,-16,-20,-21,-21,-21,-27,-26,-24,-23,-20,-21,-18,-11,-14,-11,-9,-12,-15,-14,-13,-13,-18,-23,-24,-22,-26,-20,-23,-22,103,296,265,-122,-265,-225,-151,-41,-27,-22,-5,0,3,8,12,20,20,24,30,35,40,43,46,50,58,60,63,74,84,87,98,105,109,119,124,122,114,100,86,62,46,29,13,1,-9,-14,-17,-14,-25,-28,-23,-22,-17,-18,-19,-16,-15,-7,-7,-7,-5,-7,-8,-9,-12,-17,-21,-17,-16,-21,-19,-20,-17,-19,-17,-18,-23,-21,-20,-26,-18,-13,-12,-15,-16,-15,-16,-17,-14,-11,-10
2019-05-15,14:39:42.454,-8,-5,-3,-6,0,2,0,-7,-5,-5,-2,-4,-5,-6,-9,-10,-9,-16,6,159,352,184,-206,-249,-199,-102,-7,-12,-6,15,25,32,37,42,44,45,53,62,65,73,79,85,88,91,95,94,105,112,117,125,133,138,138,140,138,124,113,101,77,59,45,30,20,19,15,8,9,5,0,-1,4,11,10,10,13,12,17,18,14,17,21,18,9,11,10,4,7,12,13,11,13,10,11,13,10,5,11,11,8,11,10,7,11,13,13,16,12,11,20,20,9,14,11,11,10,9,9,11,11,10,14,15,11,13,10,39,186,353
2019-05-15,14:39:43.482,157,-202,-218,-175,-104,-1,10,16,30,45,59,60,65,71,63,70,75,80,88,90,95,104,116,119,123,134,142,147,156,164,167,168,174,165,155,142,121,98,78,63,49,37,29,27,23,24,20,18,21,22,25,22,25,28,29,34,35,30,27,24,23,16,14,17,19,23,23,17,18,23,21,16,17,14,12,11,8,10,7,6,9,5,8,12,15,12,9,8,4,1,5,6,6,6,2,3,5,5,4,8,-3,71,248,338,15,-247,-221,-169,-60,-2,-3,7,23,31,33,42,48,52,53,60,65,65,76,83,80,88,97,102
2019-05-15,14:39:44.510,111,120,126,129,141,147,154,160,160,153,138,128,100,78,65,51,39,30,22,19,18,14,12,10,10,11,11,22,25,23,20,21,19,18,23,21,20,22,19,15,8,12,13,14,15,12,9,12,11,9,10,14,13,10,11,11,8,8,6,3,3,6,2,6,18,19,14,15,13,8,3,5,4,4,4,3,5,3,1,1,-16,16,177,363,173,-213,-243,-195,-95,-4,-10,0,15,24,32,37,39,43,50,52,56,66,66,72,79,87,88,94,102,108,116,132,138,143,152,155,156,156,147,133,114,94,73,50,40,32,27,19
2019-05-15,14:39:45.538,16,15,14,13,19,16,22,25,22,24,21,22,23,26,36,28,28,26,25,18,20,18,14,20,16,11,12,13,14,17,23,19,20,22,19,15,20,23,19,14,19,17,9,13,14,11,22,28,19,22,31,25,19,24,22,21,17,22,24,21,25,25,18,11,88,277,370,34,-231,-192,-141,-31,33,32,43,54,61,69,73,77,80,83,85,93,101,108,111,118,124,131,138,140,146,156,159,167,176,184,185,182,184,170,152,136,116,98,81,75,63,55,50,45,46,47,47,44,42,46,45,42,44,47,51,53,53,50,45,47
2019-05-15,14:39:46.566,42,39,40,34,34,29,29,29,26,24,27,24,28,24,27,27,25,25,21,26,22,24,27,23,19,22,29,24,21,26,21,9,11,13,14,12,15,15,15,20,22,17,9,52,202,359,138,-210,-223,-169,-76,10,17,24,39,46,57,62,64,70,70,72,78,80,85,91,99,106,106,116,123,129,138,148,157,159,164,166,164,161,148,126,104,82,61,46,36,26,15,14,12,6,5,9,8,7,10,10,8,13,15,11,15,16,14,9,8,9,5,8,3,4,5,5,2,2,5,4,-1,2,-1,-6,1,-2,-5,-2,-1,-6
2019-05-15,14:39:47.594,-8,-5,-6,-11,-12,-8,-10,-7,-8,-10,0,3,-2,-3,1,0,-9,-9,-5,-6,-12,-8,-2,-3,-3,0,-2,-16,59,237,367,62,-240,-214,-166,-50,2,-2,13,25,35,43,49,55,56,57,57,64,71,77,81,91,91,98,106,111,113,116,126,134,139,143,148,150,146,139,130,113,95,78,57,45,35,26,20,25,20,16,20,13,8,9,9,9,13,18,16,19,18,11,13,18,17,12,10,19,11,1,26,28,23,9,15,21,16,2,5,4,10,13,6,7,9,-2,-14,-18,-7,1,2,0,0,0,23,41,40,45,42,36
2019-05-15,14:39:48.622,37,35,34,31,28,23,28,35,37,31,38,21,57,233,399,134,-236,-224,-170,-74,18,23,33,41,55,66,70,84,86,86,87,93,97,107,113,116,122,134,144,150,158,166,175,182,194,198,191,192,187,179,167,145,115,90,75,62,52,47,41,36,39,43,45,50,53,51,58,62,59,44,41,40,35,33,44,34,28,27,38,36,39,35,36,30,32,24,18,15,17,12,17,15,13,14,11,16,20,27,22,16,19,11,-2,-5,-3,-14,-15,-11,-11,-10,-8,-7,-10,-13,28,152,284,105,-227,-260,-223,-159,-53,-20,-14,-1,19,31
2019-05-15,14:39:49.650,34,39,41,47,51,53,58,68,70,81,86,93,101,112,120,135,153,163,164,179,184,181,176,165,154,139,121,105,88,81,64,53,57,49,45,38,39,41,53,78,88,94,96,97,91,92,90,81,75,82,86,88,97,102,103,110,107,104,103,104,106,104,99,101,98,101,104,100,110,119,116,115,114,115,111,107,108,101,102,104,107,116,119,125,122,116,116,141,266,449,357,-34,-130,-85,10,106,111,113,129,144,157,164,165,170,175,176,184,191,194,199,203,209,216,218,223,234,242,254,261,268,264,249,256,290,276,277,256,234
2019-05-15,14:39:50.678,204,176,150,138,135,127,125,118,120,114,108,106,112,108,111,118,120,123,126,127,132,137,133,140,111,136,157,142,143,146,145,142,144,149,139,133,172,148,164,179,171,160,158,155,147,144,149,145,139,137,145,144,148,151,149,196,296,350,140,-116,-115,-83,-33,75,123,150,144,164,171,177,177,185,187,189,194,203,208,208,212,220,225,233,246,250,258,279,270,271,272,278,282,270,265,244,217,194,171,153,140,132,112,114,106,107,108,109,104,101,101,97,89,88,86,84,72,71,77,61,65,49,34,28,28,22,23,18,20,30
2019-05-15,14:39:51.706,24,14,14,22,21,19,23,16,13,1,5,0,-8,-11,-15,-10,-15,-20,-16,-18,-8,57,149,207,-15,-256,-257,-227,-148,-57,-31,-16,-8,2,11,21,14,16,35,38,37,37,41,40,47,59,69,76,83,90,98,107,116,121,126,128,124,116,109,87,67,48,23,11,1,-4,-11,-18,-25,-34,-28,-26,-20,-16,-8,-11,-13,-2,3,2,-2,-9,-9,-10,-13,-13,-15,-11,-26,-27,-23,-14,-11,-8,-3,-6,-14,-19,-21,-29,-30,-25,-32,-31,-25,-23,-23,-21,-26,-21,8,118,249,120,-189,-256,-234,-154,-44,-30,-22,-6,8,18,25,15,-24,59
2019-05-15,14:39:52.734,70,64,60,70,73,79,85,89,98,107,113,119,130,143,153,153,145,157,151,136,135,111,77,27,-8,-45,34,17,10,7,9,12,14,43,49,32,16,-23,-3,22,10,15,5,4,12,17,34,32,21,26,40,29,7,1,6,-6,-27,-27,-13,-29,-43,-28,-59,-23,-39,-46,-43,-39,-33,-27,61,191,224,-93,-311,-287,-232,-109,-56,-45,-25,-15,-6,6,8,12,19,22,24,31,35,38,46,58,65,72,82,96,103,113,130,131,135,142,140,136,131,111,88,58,39,23,8,-4,-10,-14,-16,-18,-19,-24,-21,-18,-19,-19,-21,-17,-16,-20
2019-05-15,14:39:53.762,-18,-20,-13,-19,-21,-20,-21,-21,-10,-20,-22,-16,-6,-14,-20,-15,-15,-23,-27,-31,-35,-41,-35,-41,-43,-40,-42,-41,-41,-39,-46,-15,134,293,99,-264,-303,-267,-171,-67,-61,-55,-36,-27,-25,-18,-13,-11,-10,-5,6,5,12,13,12,23,33,36,40,45,55,58,63,71,79,78,75,71,59,43,21,0,-12,-30,-43,-53,-62,-67,-67,-65,-66,-63,-58,-60,-64,-58,-57,-54,-55,-54,-51,-53,-51,-52,-53,-52,-58,-56,-57,-53,-60,-63,-63,-64,-65,-55,-57,-62,-61,-47,-44,-52,-49,-44,-45,-52,-53,-47,-45,-53,-58,-63,-55,-55,-52,-47,-46,-54
2019-05-15,14:39:54.790,-2,169,302,17,-303,-283,-232,-137,-41,-34,-22,-1,7,12,20,31,32,44,44,50,54,56,59,67,77,83,90,98,102,109,116,122,120,124,128,126,126,116,105,87,67,56,42,30,23,14,12,10,16,11,15,16,14,17,21,25,26,24,22,18,15,18,12,10,18,20,22,20,17,17,18,26,21,18,33,38,35,32,33,29,23,24,23,18,14,13,12,9,11,10,6,5,4,3,89,239,285,-43,-264,-227,-192,-94,-2,4,16,32,46,50,60,60,60,67,72,75,80,88,95,93,99,104,105,118,123,128,136,141,143,144
2019-05-15,14:39:55.818,141,137,127,115,94,71,52,36,23,13,4,-1,-4,-4,-7,-4,-4,-4,-1,0,1,2,0,2,4,5,5,-3,-6,-8,-15,-13,-12,-13,-18,-18,-15,-14,-13,-8,-10,-15,-11,-1,-7,-10,-11,-14,-20,-30,-30,-33,-46,-45,-43,-43,-45,-44,-44,-46,-41,-48,34,201,277,-50,-309,-271,-216,-93,-44,-48,-34,-18,-7,-5,-1,1,3,7,11,19,26,31,38,41,51,57,60,63,74,79,84,94,95,94,96,97,87,66,51,27,5,-10,-26,-36,-42,-47,-54,-58,-57,-56,-53,-51,-56,-54,-54,-51,-54,-61,-60,-62,-64,-65,-65,-64,-67,-65
2019-05-15,14:39:56.846,-75,-78,-74,-79,-81,-83,-85,-83,-86,-79,-75,-72,-79,-82,-74,-71,-73,-73,-71,-73,-80,-83,-82,-85,-89,-87,-88,-90,-91,-87,-89,-92,-92,-3,169,227,-138,-370,-327,-265,-140,-102,-97,-83,-69,-59,-50,-44,-40,-32,-32,-27,-19,-15,-14,-7,0,7,13,18,27,33,42,43,50,52,56,57,49,45,28,8,-2,-25,-42,-60,-67,-77,-84,-85,-89,-88,-85,-90,-88,-88,-84,-86,-85,-83,-84,-85,-83,-85,-87,-92,-89,-87,-88,-83,-84,-86,-83,-86,-88,-90,-91,-93,-93,-91,-94,-91,-87,-86,-82,-86,-87,-79,-73,-65,-70,-67,-65,-70,-72,-72,-69,-71
2019-05-15,14:39:57.874,-74,-71,-68,-67,-66,-63,-71,-62,58,236,173,-212,-335,-285,-217,-104,-69,-71,-50,-35,-26,-20,-17,-16,-11,-5,0,8,15,26,24,29,38,43,55,61,68,75,83,86,87,89,88,84,80,63,42,23,10,-10,-29,-28,-36,-42,-46,-47,-48,-50,-51,-49,-48,-49,-51,-45,-44,-42,-45,-51,-50,-57,-62,-59,-64,-65,-63,-60,-60,-61,-63,-68,-67,-63,-64,-67,-65,-64,-65,-70,-64,-65,-70,-70,-64,-60,-67,-67,-69,-71,-70,-76,-76,-78,-80,-81,-82,-79,-79,-82,-85,-84,31,212,171,-211,-347,-301,-231,-111,-87,-85,-70,-55,-48,-37,-37,-30,-26,-21
2019-05-15,14:39:58.902,-11,-7,-5,-2,5,11,14,23,26,25,38,46,53,57,60,58,58,61,52,38,19,2,-18,-34,-46,-57,-67,-74,-76,-81,-77,-79,-78,-79,-74,-71,-75,-76,-75,-77,-67,-70,-77,-78,-75,-76,-82,-81,-82,-82,-82,-85,-90,-89,-89,-90,-89,-87,-92,-91,-89,-90,-88,-89,-90,-85,-82,-80,-85,-83,-72,-73,-74,-72,-69,-74,-86,-76,-82,-86,-88,-93,-92,-94,-88,-90,-93,-81,38,220,172,-233,-353,-306,-222,-101,-86,-80,-69,-59,-48,-42,-36,-34,-32,-27,-24,-12,-8,-1,6,11,16,21,29,35,36,47,53,56,63,66,62,59,53,38,14,-1
2019-05-15,14:39:59.930,-20,-40,-54,-64,-69,-74,-69,-72,-74,-72,-70,-69,-65,-67,-65,-66,-61,-62,-67,-64,-71,-75,-75,-80,-83,-81,-79,-79,-81,-78,-76,-73,-74,-75,-78,-77,-71,-78,-80,-73,-73,-71,-72,-76,-67,-62,-60,-63,-61,-63,-69,-70,-70,-68,-67,-70,-67,-67,-68,-59,-57,-65,-41,98,269,124,-259,-313,-261,-183,-69,-43,-40,-24,-14,-3,7,13,14,21,29,31,38,47,53,62,69,75,83,96,98,109,115,124,131,135,138,140,140,134,121,98,77,61,45,39,31,27,21,20,23,32,31,32,31,34,49,51,52,57,55,59,67,73,75,75,75,76
2019-05-15,14:40:00.958,74,77,78,84,86,95,99,95,100,100,102,118,121,115,116,119,113,110,116,118,118,122,129,124,127,131,133,134,144,182,278,369,211,-65,-100,-57,-10,89,154,167,176,188,197,205,207,215,217,218,231,237,248,256,258,264,271,280,289,296,309,311,316,319,322,320,315,305,294,268,246,227,206,194,187,177,171,172,166,162,169,166,160,157,162,162,157,158,155,147,148,143,141,134,133,128,120,117,116,119,122,116,112,122,128,118,109,104,100,92,88,85,83,78,72,73,68,65,64,59,58,59,94,194,294,177,-115,-175,-155,-115
2019-05-15,14:40:01.986,-7,39,50,55,63,74,80,87,88,88,92,94,88,87,93,98,102,110,118,122,136,145,147,150,161,161,156,154,143,124,104,83,58,39,25,14,6,1,-7,-14,-11,-15,-16,-18,-17,-18,-17,-14,-10,-15,-14,-20,-22,-22,-22,-28,-30,-27,-25,-23,-23,-30,-19,-18,-24,-33,-33,-35,-42,-48,-50,-52,-58,-67,-65,-72,-74,-72,-73,-71,-70,-62,-1,126,220,-33,-301,-300,-262,-152,-84,-78,-71,-62,-47,-41,-41,-33,-31,-29,-25,-17,-15,-14,-12,-5,0,9,18,30,38,51,58,60,68,63,60,57,45,17,-9,-27,-52,-73,-84,-93,-99,-102
2019-05-15,14:40:03.014,-107,-112,-117,-124,-121,-125,-123,-117,-119,-114,-119,-118,-114,-111,-106,-120,-121,-124,-126,-123,-121,-121,-128,-120,-122,-126,-127,-135,-131,-120,-123,-125,-124,-116,-116,-126,-122,-124,-139,-140,-143,-144,-146,-149,-150,-152,-147,-152,-149,-150,-133,-14,155,111,-264,-390,-352,-269,-173,-159,-153,-142,-134,-126,-120,-116,-115,-113,-115,-109,-103,-102,-97,-89,-82,-82,-72,-67,-56,-44,-39,-29,-21,-11,-13,-13,-10,-34,-56,-79,-98,-119,-142,-147,-158,-164,-166,-177,-185,-187,-191,-186,-187,-189,-187,-192,-187,-186,-193,-188,-187,-185,-184,-184,-187,-193,-196,-196,-200,-202,-199,-198,-205,-201,-202,-202,-203,-204
2019-05-15,14:40:04.042,-201,-200,-196,-204,-204,-202,-203,-202,-199,-205,-204,-205,-200,-202,-207,-202,-192,-191,-195,-197,-200,-205,-203,-203,-204,-200,-201,-203,-200,-197,-200,-206,-198,-206,-138,46,171,-148,-452,-426,-367,-243,-201,-201,-186,-166,-154,-152,-146,-141,-139,-138,-135,-127,-122,-117,-111,-108,-103,-97,-90,-85,-77,-74,-66,-55,-50,-48,-38,-42,-43,-59,-77,-104,-127,-134,-152,-166,-176,-183,-182,-182,-181,-178,-175,-170,-167,-171,-170,-168,-161,-162,-159,-162,-161,-162,-162,-168,-161,-154,-152,-157,-155,-153,-155,-150,-152,-153,-151,-149,-152,-151,-149,-147,-151,-148,-147,-147,-142,-144,-145,-142,-140,-136,-138,-138,-136,-128
2019-05-15,14:40:05.070,-118,-124,-118,-123,-122,-124,-123,-120,-126,-125,-126,-126,-124,-127,-123,-120,-125,-85,56,207,16,-347,-363,-314,-239,-136,-117,-110,-92,-81,-71,-63,-59,-57,-50,-44,-45,-35,-32,-23,-16,-11,1,12,22,23,28,49,56,65,66,70,72,62,53,39,15,-1,-18,-32,-45,-50,-56,-61,-65,-61,-58,-58,-59,-51,-45,-46,-47,-45,-40,-41,-43,-40,-45,-42,-45,-47,-55,-52,-48,-46,-46,-47,-48,-52,-57,-50,-50,-48,-43,-40,-40,-38,-33,-34,-32,-18,-16,-24,-18,-14,-14,-19,-20,-22,-28,-25,-26,-27,-23,-19,-14,-7,-7,5,112,247,187,-154,-268,-224,-178,-73
2019-05-15,14:40:06.098,-6,-2,9,21,35,42,53,55,61,64,79,83,86,96,98,99,113,125,135,146,154,165,174,188,187,178,183,177,159,137,117,93,74,63,49,41,43,36,38,37,37,34,34,37,38,40,45,48,50,48,50,55,51,54,49,50,47,46,46,47,45,45,43,44,46,44,49,54,55,50,52,68,68,68,67,68,66,58,56,53,58,59,57,61,61,65,67,61,63,76,157,254,273,-6,-203,-163,-118,-34,54,67,77,89,95,107,110,113,122,127,130,132,140,145,149,160,172,185,195,206,214,216,228,230,231,235,239,232,220,200
2019-05-15,14:40:07.126,180,154,133,119,104,101,91,84,83,81,86,82,81,83,81,86,85,83,85,88,93,87,87,94,89,90,88,83,80,78,75,79,78,81,84,91,84,85,92,91,90,84,85,75,68,74,73,67,65,67,66,66,65,72,69,76,92,174,265,251,-25,-172,-137,-99,-25,64,80,89,98,108,112,112,117,115,115,117,123,128,129,140,149,150,162,168,172,183,191,199,202,201,203,195,189,174,148,132,107,82,63,56,42,34,28,21,18,16,14,15,12,9,8,6,11,13,12,13,13,7,6,4,-2,-7,-2,-3,-5,-3,-11,-13
2019-05-15,14:40:08.154,-12,-13,-18,-20,-8,-15,-21,-14,-9,-8,-17,-16,-15,-24,-27,-31,-32,-37,-41,-46,-51,-43,-47,-53,-48,-47,-12,90,204,90,-223,-277,-249,-198,-87,-58,-55,-45,-31,-29,-28,-22,-23,-20,-13,-10,-2,-3,-5,0,4,15,20,28,39,49,54,60,63,65,65,59,51,32,12,-12,-33,-56,-76,-89,-103,-100,-105,-114,-112,-115,-110,-113,-114,-111,-114,-110,-111,-113,-111,-111,-110,-111,-111,-115,-118,-117,-123,-124,-119,-121,-127,-129,-124,-129,-132,-126,-129,-138,-135,-135,-133,-138,-139,-138,-141,-130,-136,-139,-134,-133,-131,-140,-138,-137,-147,-142,-145,-148,-146,-147,-150,-155
2019-05-15,14:40:09.182,-154,-155,-160,-159,-129,-13,134,43,-292,-370,-339,-271,-176,-153,-143,-136,-124,-119,-111,-111,-108,-107,-104,-99,-94,-92,-90,-84,-77,-71,-59,-54,-53,-38,-27,-20,-16,-14,-8,-7,-12,-25,-44,-63,-79,-107,-119,-135,-145,-150,-147,-150,-153,-147,-149,-146,-147,-146,-144,-145,-144,-142,-145,-142,-148,-148,-146,-146,-147,-152,-150,-151,-153,-149,-148,-154,-157,-157,-156,-161,-159,-159,-168,-169,-167,-171,-170,-174,-169,-175,-172,-171,-173,-169,-170,-172,-175,-172,-172,-173,-173,-172,-175,-178,-177,-170,-177,-171,-169,-176,-178,-177,-185,-180,-178,-186,-188,-186,-186,-187,-192,-194,-158,-27,125,-37,-374,-411
2019-05-15,14:40:10.210,-369,-269,-201,-196,-188,-171,-161,-155,-152,-148,-143,-147,-141,-134,-129,-127,-124,-117,-115,-105,-101,-94,-81,-69,-62,-56,-48,-43,-43,-47,-47,-59,-69,-92,-117,-131,-147,-157,-168,-171,-173,-175,-171,-177,-177,-174,-175,-173,-173,-171,-170,-168,-169,-168,-166,-164,-163,-164,-169,-167,-173,-173,-170,-167,-168,-168,-172,-172,-174,-169,-166,-166,-163,-162,-165,-161,-160,-156,-157,-155,-156,-159,-153,-152,-153,-154,-149,-146,-150,-150,-149,-155,-151,-150,-147,-149,-138,-138,-138,-138,-136,-131,-131,-132,-130,-131,-130,-128,-135,-129,-126,-126,-123,-120,-96,9,160,83,-267,-349,-310,-245,-145,-121,-114,-99,-82,-73
2019-05-15,14:40:11.238,-67,-62,-62,-63,-54,-44,-37,-31,-21,-14,-8,1,11,22,30,37,50,57,59,67,68,72,69,60,46,28,14,-8,-21,-35,-50,-49,-54,-58,-63,-60,-61,-56,-54,-51,-50,-47,-50,-43,-43,-38,-37,-41,-37,-40,-45,-41,-48,-46,-49,-46,-45,-47,-45,-45,-53,-50,-50,-48,-47,-45,-44,-38,-40,-37,-42,-45,-45,-38,-36,-37,-36,-34,-32,-25,-20,-22,-23,-22,-21,-23,-18,-22,-21,-16,-26,-16,-16,-20,-16,-15,-10,40,137,214,35,-218,-232,-199,-143,-37,-4,-3,17,26,29,40,45,46,49,59,62,64,72,75,82,92,96,106,118,125,137,144
2019-05-15,14:40:12.266,155,154,152,154,147,138,122,110,92,66,54,37,25,20,14,15,11,14,11,4,15,15,12,21,21,24,23,22,25,24,26,20,23,22,18,17,16,17,18,12,17,15,15,18,22,17,19,20,21,17,22,24,16,20,24,28,22,27,25,28,30,27,27,25,27,22,25,23,26,25,19,33,86,161,199,9,-204,-202,-169,-115,-24,19,25,44,55,62,72,72,82,72,77,78,82,90,94,106,106,114,129,135,143,155,166,167,177,167,165,165,155,136,115,96,81,64,52,45,33,36,37,29,25,24,21,19,22,26,27,25
2019-05-15,14:40:13.294,29,35,33,36,38,35,39,28,29,31,28,22,32,35,19,12,18,18,18,18,16,17,23,16,20,24,23,29,23,25,26,17,20,22,17,9,10,12,4,7,8,5,12,59,136,177,44,-181,-220,-185,-152,-68,-12,3,13,26,24,26,29,34,37,39,41,39,36,41,48,58,58,67,70,78,79,92,100,96,96,86,79,70,53,28,11,-8,-25,-44,-48,-55,-65,-70,-77,-74,-73,-84,-80,-75,-76,-73,-74,-70,-68,-69,-73,-73,-79,-81,-83,-89,-92,-95,-97,-99,-102,-105,-107,-107,-109,-108,-114,-117,-116,-123,-122,-124,-126,-127,-116,-109
2019-05-15,14:40:14.322,-120,-122,-117,-122,-130,-128,-132,-141,-135,-142,-144,-140,-142,-147,-152,-143,-86,7,80,-105,-345,-356,-332,-270,-186,-162,-155,-147,-132,-130,-128,-124,-117,-114,-114,-107,-104,-99,-89,-87,-84,-77,-70,-60,-61,-53,-49,-44,-44,-38,-38,-45,-57,-65,-91,-104,-126,-145,-155,-163,-165,-173,-178,-181,-182,-180,-179,-182,-180,-184,-185,-184,-180,-182,-185,-181,-183,-178,-175,-185,-187,-188,-189,-189,-193,-191,-188,-199,-201,-203,-204,-208,-203,-205,-210,-209,-210,-216,-212,-212,-211,-211,-215,-212,-209,-207,-210,-209,-206,-212,-215,-217,-216,-219,-222,-224,-227,-225,-230,-229,-223,-200,-104,23,-44,-354,-455,-425
2019-05-15,14:40:15.350,-365,-269,-245,-237,-222,-214,-207,-196,-192,-194,-188,-188,-185,-183,-177,-176,-174,-163,-158,-151,-141,-133,-127,-119,-106,-104,-107,-105,-98,-101,-113,-137,-156,-176,-193,-211,-225,-235,-236,-239,-239,-241,-239,-239,-238,-230,-235,-225,-227,-228,-226,-228,-228,-230,-221,-219,-231,-228,-231,-234,-233,-232,-238,-234,-235,-231,-233,-235,-238,-239,-241,-240,-238,-241,-234,-234,-236,-234,-236,-242,-245,-246,-245,-244,-240,-240,-242,-237,-239,-231,-233,-238,-238,-237,-244,-243,-245,-243,-243,-248,-246,-248,-251,-247,-248,-245,-197,-67,57,-150,-443,-457,-414,-314,-254,-247,-239,-224,-219,-211,-209,-202,-200,-200,-196,-201,-195,-187
2019-05-15,14:40:16.378,-181,-172,-164,-159,-154,-144,-131,-120,-116,-113,-109,-111,-107,-108,-115,-120,-133,-149,-173,-193,-207,-219,-230,-231,-231,-237,-231,-231,-234,-231,-225,-226,-230,-225,-219,-221,-218,-215,-211,-208,-207,-204,-211,-210,-212,-210,-207,-206,-207,-205,-207,-207,-214,-209,-210,-212,-211,-212,-209,-209,-205,-206,-209,-198,-204,-208,-205,-203,-204,-210,-205,-201,-194,-194,-193,-189,-173,-178,-180,-182,-183,-180,-183,-178,-176,-177,-174,-171,-170,-168,-163,-166,-156,-59,80,79,-238,-382,-345,-302,-197,-151,-152,-136,-126,-118,-109,-103,-100,-91,-90,-85,-79,-71,-65,-62,-56,-48,-36,-32,-20,-8,-2,13,22,24,20,20
2019-05-15,14:40:17.406,20,4,-8,-24,-39,-57,-69,-76,-87,-92,-93,-102,-107,-102,-102,-89,-93,-92,-91,-91,-92,-90,-84,-81,-82,-83,-85,-88,-88,-86,-85,-83,-81,-81,-82,-76,-81,-82,-86,-81,-78,-78,-75,-79,-77,-73,-76,-75,-70,-69,-71,-72,-61,-64,-66,-65,-66,-64,-69,-66,-70,-71,-71,-68,-66,-63,-65,-55,-23,70,164,65,-220,-278,-244,-198,-102,-53,-48,-32,-21,-15,-8,-9,-4,2,13,16,18,29,32,37,44,53,68,73,82,93,98,106,113,114,110,111,100,94,79,56,38,19,9,-1,0,-10,-18,-18,-18,-13,-13,-9,-7,-12,-7,-12,-10,-8,-3,-4
2019-05-15,14:40:18.434,-5,-7,-9,-9,-4,-7,-6,0,0,-1,-3,-9,-8,-7,-12,-11,-8,-14,-14,-3,-6,-7,-5,-2,3,-2,-2,0,0,-11,-14,-15,-13,-16,-17,-13,-14,-17,-10,-7,5,85,164,140,-118,-245,-207,-171,-102,-17,3,15,25,32,43,40,40,41,49,59,61,65,68,75,83,85,94,102,113,125,131,136,140,139,138,137,126,114,105,86,66,49,36,29,22,16,14,13,10,9,14,15,14,11,13,18,20,20,25,22,21,23,24,18,21,16,16,7,8,5,0,7,2,-2,3,8,9,5,4,16,11,9,7,9,2,-5,-6,-9
2019-05-15,14:40:19.462,-8,-6,-11,-11,-11,-10,-11,-13,-12,24,113,182,68,-185,-250,-217,-184,-96,-31,-27,-14,-2,3,10,12,11,13,19,17,23,32,37,43,47,54,57,65,76,76,76,81,87,90,86,81,72,55,40,21,-1,-18,-30,-41,-51,-52,-60,-62,-62,-62,-63,-62,-62,-59,-56,-59,-62,-63,-61,-66,-67,-69,-73,-74,-78,-77,-80,-86,-82,-85,-87,-82,-81,-80,-80,-79,-72,-77,-82,-76,-72,-74,-76,-75,-77,-77,-85,-87,-86,-93,-93,-92,-91,-92,-89,-87,-89,-84,-24,80,150,-67,-298,-296,-271,-201,-120,-101,-88,-83,-75,-68,-62,-60,-64,-57,-55,-51,-41
2019-05-15,14:40:20.490,-39,-40,-32,-26,-15,-10,1,4,13,24,24,26,24,19,17,8,-11,-32,-48,-67,-81,-94,-105,-111,-111,-113,-105,-109,-112,-111,-109,-108,-109,-110,-104,-105,-100,-101,-105,-101,-105,-104,-106,-112,-114,-116,-114,-114,-120,-121,-123,-124,-123,-125,-130,-128,-121,-121,-126,-115,-115,-111,-115,-121,-122,-127,-131,-132,-132,-130,-138,-139,-140,-139,-138,-140,-140,-134,-79,40,135,-89,-337,-338,-307,-228,-149,-139,-128,-115,-106,-103,-100,-98,-101,-101,-93,-87,-82,-74,-71,-68,-63,-53,-49,-41,-30,-24,-19,-9,-6,-5,-7,-12,-21,-40,-57,-78,-95,-113,-127,-141,-144,-151,-151,-156,-154,-154
2019-05-15,14:40:21.518,-145,-142,-135,-140,-141,-139,-140,-139,-138,-140,-137,-137,-136,-140,-141,-141,-140,-149,-148,-154,-156,-156,-159,-161,-164,-160,-158,-159,-164,-159,-156,-158,-153,-155,-152,-146,-151,-154,-148,-140,-135,-142,-139,-136,-142,-147,-148,-151,-148,-143,-150,-153,-152,-154,-151,-145,-117,-8,119,-27,-329,-375,-334,-249,-166,-149,-144,-133,-113,-112,-110,-108,-97,-97,-98,-84,-81,-83,-76,-70,-68,-58,-46,-40,-35,-27,-23,-10,-5,-3,-1,-2,-12,-25,-42,-59,-78,-97,-108,-114,-123,-131,-129,-129,-130,-124,-125,-126,-124,-120,-118,-119,-113,-114,-111,-107,-112,-111,-105,-103,-101,-102,-97,-100,-107,-106,-105,-108
2019-05-15,14:40:22.546,-107,-109,-109,-108,-100,-104,-110,-102,-104,-104,-104,-99,-105,-105,-100,-104,-110,-108,-100,-103,-110,-105,-97,-106,-103,-103,-107,-111,-113,-112,-117,-116,-119,-120,-116,-113,-115,-109,-103,-22,110,143,-162,-337,-303,-250,-145,-109,-100,-85,-77,-68,-60,-56,-53,-49,-45,-38,-32,-28,-25,-14,-11,-4,4,13,19,27,36,43,46,47,50,53,54,46,31,13,-11,-30,-44,-58,-69,-69,-71,-75,-71,-73,-72,-73,-73,-69,-67,-67,-60,-56,-59,-58,-56,-58,-60,-57,-58,-57,-54,-57,-59,-54,-51,-54,-58,-56,-58,-57,-55,-54,-57,-58,-56,-57,-59,-51,-57,-57,-47,-44,-51,-50
2019-05-15,14:40:23.574,-56,-59,-60,-58,-64,-67,-65,-65,-65,-68,-64,-67,-70,-10,95,170,-39,-285,-280,-248,-187,-89,-73,-65,-47,-50,-41,-34,-28,-30,-23,-21,-18,-17,-10,-11,-5,2,10,16,30,33,38,49,50,54,62,46,39,36,31,7,-7,-17,-38,-59,-71,-79,-88,-94,-95,-101,-108,-103,-102,-108,-112,-110,-110,-108,-102,-107,-118,-117,-116,-119,-125,-118,-120,-132,-130,-133,-138,-135,-138,-145,-147,-143,-142,-144,-146,-137,-147,-143,-143,-145,-148,-142,-144,-147,-145,-147,-155,-151,-159,-164,-167,-165,-166,-164,-165,-170,-169,-160,-122,-32,43,-75,-332,-383,-340,-296,-206,-159,-151,-140,-130,-122
2019-05-15,14:40:24.602,-123,-121,-117,-120,-118,-112,-103,-107,-104,-93,-87,-82,-75,-70,-66,-56,-45,-50,-45,-40,-34,-45,-45,-52,-80,-97,-109,-128,-146,-156,-163,-166,-165,-175,-168,-166,-165,-159,-158,-153,-149,-151,-150,-144,-143,-142,-139,-142,-144,-147,-149,-149,-148,-149,-148,-148,-148,-150,-152,-143,-151,-147,-144,-142,-144,-138,-133,-129,-132,-127,-132,-135,-132,-133,-139,-138,-136,-138,-140,-133,-137,-137,-133,-117,-55,19,30,-214,-357,-337,-303,-242,-144,-127,-122,-113,-102,-97,-91,-78,-76,-77,-69,-68,-60,-65,-58,-54,-52,-40,-32,-18,-7,-1,7,8,10,10,10,7,-8,-24,-42,-59,-79,-89,-96,-103
2019-05-15,14:40:25.630,-111,-109,-117,-122,-123,-118,-118,-119,-116,-110,-107,-108,-109,-105,-95,-95,-96,-97,-87,-92,-97,-87,-91,-94,-92,-91,-89,-90,-85,-84,-91,-79,-69,-71,-73,-72,-77,-85,-80,-83,-87,-85,-90,-87,-82,-76,-77,-89,-83,-77,-58,18,100,92,-155,-294,-269,-241,-163,-82,-67,-52,-47,-37,-31,-26,-25,-18,-13,-3,-1,8,6,12,18,24,34,41,50,55,63,76,81,82,81,81,74,61,46,26,7,-6,-15,-19,-32,-34,-38,-36,-31,-34,-37,-31,-28,-30,-28,-30,-29,-33,-30,-28,-29,-27,-29,-29,-33,-32,-34,-39,-37,-43,-47,-44,-47,-45,-44,-42,-34,-28
2019-05-15,14:40:26.658,-23,-25,-32,-31,-36,-41,-41,-42,-50,-51,-49,-48,-51,-48,-43,-42,-40,-38,2,104,215,65,-205,-238,-210,-159,-69,-43,-35,-23,-10,2,7,5,8,13,18,25,25,29,40,50,58,62,71,80,86,93,95,97,100,98,97,93,88,72,48,29,11,-3,-12,-22,-26,-27,-30,-31,-34,-33,-34,-29,-27,-27,-29,-30,-29,-26,-26,-29,-27,-30,-29,-32,-34,-35,-28,-32,-31,-28,-32,-29,-25,-27,-27,-20,-9,-10,-17,-12,-6,-7,-11,-9,-8,-18,-21,-26,-32,-25,-28,-29,-30,-29,-26,-24,-22,-24,-18,32,147,249,50,-204,-217,-191,-104,-33,-31,-18
2019-05-15,14:40:27.686,5,10,17,21,22,29,33,38,35,43,47,48,55,65,75,78,91,96,97,109,108,112,115,113,110,107,91,71,46,30,15,-1,-11,-17,-20,-24,-17,-16,-25,-25,-28,-29,-24,-22,-22,-24,-25,-24,-21,-17,-19,-20,-26,-24,-25,-26,-24,-27,-24,-19,-21,-23,-24,-19,-20,-25,-24,-30,-31,-19,-16,-17,-17,-15,-20,-20,-13,-18,-19,-18,-20,-23,-26,-23,-21,-29,-26,-30,-31,-33,-33,-33,-35,0,109,241,96,-197,-236,-203,-105,-32,-27,-19,-13,-3,7,14,18,20,22,25,27,31,33,36,48,58,62,72,74,84,86,95,101,103,111,110
2019-05-15,14:40:28.714,108,100,87,70,53,36,19,4,-3,-17,-26,-25,-24,-29,-32,-25,-21,-21,-18,-18,-23,-18,-17,-14,-17,-11,-19,-20,-13,-14,-14,-20,-20,-16,-20,-12,-14,-17,-14,-15,-15,-17,-18,-20,-21,-16,-21,-21,-18,-12,-13,-17,-15,-5,-1,-3,-6,-9,-12,-12,-13,-12,-15,-20,-19,-13,-17,-19,-14,-13,12,114,246,141,-171,-223,-186,-128,-30,-11,-6,3,15,23,25,34,34,34,41,46,50,53,58,68,72,81,88,93,101,108,119,119,126,124,117,115,113,104,85,68,53,35,20,8,-8,-6,-6,-6,-4,0,-4,-9,1,4,7,9,15,9
2019-05-15,14:40:29.743,13,13,15,9,14,15,11,9,6,5,6,7,8,7,5,4,0,4,2,6,9,12,10,4,15,23,18,23,20,22,14,16,17,11,13,10,9,11,13,12,11,10,61,163,245,39,-200,-186,-158,-101,-6,17,24,31,40,43,50,53,58,64,61,65,72,74,83,85,86,98,101,109,112,124,130,135,143,141,134,132,125,115,95,80,59,43,35,21,15,16,13,12,12,19,23,16,24,19,20,18,23,27,17,18,23,19,18,16,15,15,12,14,17,15,9,14,19,22,26,23,29,39,45,46,45,44,45,33,24,22
2019-05-15,14:40:30.771,29,27,26,32,27,28,30,23,29,34,88,182,238,35,-196,-186,-154,-97,7,29,33,46,56,68,72,75,83,87,87,95,95,99,104,114,125,131,145,148,156,158,166,172,173,169,168,161,155,141,125,104,94,82,67,63,56,50,48,49,50,51,53,48,50,55,54,55,60,57,57,57,58,55,56,61,53,53,51,53,55,55,54,52,57,64,57,54,62,54,46,44,46,39,36,37,35,36,37,40,40,39,42,60,138,225,202,-72,-208,-180,-143,-74,15,28,32,46,57,57,61,68,74,76,87,88,94,99,103,108,105,116
2019-05-15,14:40:31.799,127,135,148,148,151,156,158,152,150,144,125,108,95,74,57,47,41,30,26,28,22,17,20,25,25,26,24,26,27,29,28,20,25,24,20,20,21,21,17,19,14,18,19,17,15,21,25,30,24,22,15,10,11,6,2,0,-3,-9,-6,-5,-6,-14,-14,-8,-3,10,93,197,230,-28,-219,-199,-164,-92,-11,-6,10,17,25,33,34,33,41,45,44,48,57,59,64,71,81,84,92,98,110,113,118,124,126,131,125,117,105,80,61,42,29,17,-1,-7,-10,-15,-11,-14,-15,-18,-11,-10,-15,-9,-11,-11,-12,-9,-7,-10,-9,-10
2019-05-15,14:40:32.827,-18,-13,-19,-27,-22,-21,-24,-24,-18,-20,-25,-21,-14,-19,-13,-11,-4,-12,-14,-17,-19,-21,-26,-28,-31,-33,-34,-37,-31,-27,-33,-27,-29,-29,-23,56,194,232,-58,-236,-220,-182,-92,-43,-41,-29,-17,-14,-9,-1,-4,6,4,10,16,26,29,28,37,38,46,57,66,75,78,88,87,88,97,92,85,78,59,40,21,2,-16,-26,-31,-39,-47,-50,-49,-48,-45,-43,-47,-45,-40,-42,-43,-41,-46,-44,-48,-47,-46,-48,-48,-49,-52,-54,-58,-57,-56,-53,-53,-54,-53,-59,-61,-63,-61,-61,-60,-60,-54,-58,-55,-53,-54,-50,-55,-54,-55,-53,-60,-68
2019-05-15,14:40:33.855,-60,-59,-64,-68,-66,-67,-71,-63,-62,-59,30,169,192,-115,-268,-254,-199,-93,-65,-58,-46,-37,-31,-23,-22,-11,-13,-13,-12,-4,0,6,8,16,21,28,29,43,49,52,64,66,67,69,69,67,56,42,23,-6,-21,-41,-52,-58,-59,-61,-66,-62,-63,-68,-64,-60,-61,-59,-59,-61,-62,-59,-58,-61,-58,-60,-57,-56,-58,-60,-63,-54,-56,-59,-63,-63,-66,-65,-63,-67,-70,-61,-68,-72,-70,-71,-68,-72,-70,-69,-69,-70,-62,-62,-61,-61,-60,-51,-48,-52,-55,-54,-60,-65,-63,-63,-63,-66,-61,-64,-65,-58,-65,-70,-14,121,220,-27,-257,-262,-219,-110
2019-05-15,14:40:34.883,-66,-69,-54,-47,-40,-38,-30,-27,-18,-11,-7,-10,-5,2,11,10,19,26,31,40,47,52,58,64,67,64,65,61,51,47,24,6,-9,-26,-38,-53,-59,-63,-71,-70,-64,-63,-60,-61,-56,-57,-55,-55,-53,-53,-48,-42,-44,-39,-41,-43,-40,-38,-45,-40,-41,-41,-42,-37,-37,-41,-39,-42,-47,-44,-43,-42,-42,-37,-39,-43,-36,-41,-39,-36,-43,-40,-32,-27,-33,-28,-27,-34,-31,-29,-29,-32,-31,-26,-21,-22,-27,-25,-27,26,145,244,12,-235,-220,-193,-123,-40,-33,-19,-10,-2,1,7,8,16,25,28,26,37,42,50,57,57,60,72,84,84
2019-05-15,14:40:35.911,92,101,106,105,104,104,103,94,88,65,45,27,16,12,-10,-14,-15,-22,-18,-19,-14,-11,-9,-8,-9,-7,-5,-5,-2,-1,0,-5,-8,-13,-21,-15,-20,-30,-27,-26,-20,-18,-18,-19,-19,-18,-21,-22,-15,-14,-14,-11,-9,-11,-6,6,-1,-4,3,-1,-9,-6,-5,-8,-12,-8,-3,-11,-7,-4,-11,-11,60,152,203,-39,-248,-219,-179,-127,-34,-14,-8,6,11,26,35,37,42,49,55,56,66,68,75,89,95,101,103,111,123,124,132,134,132,137,138,132,117,100,83,67,51,38,25,14,13,8,11,5,5,6,11,13,12,14,16,14
2019-05-15,14:40:36.939,18,20,21,16,17,18,16,18,18,15,22,20,14,10,12,8,9,9,7,5,9,10,17,14,17,22,17,14,17,19,13,15,16,10,16,15,13,16,13,13,16,26,101,185,196,-53,-222,-192,-162,-95,-4,21,35,47,53,60,62,66,63,70,75,85,81,88,94,95,97,113,116,121,135,146,146,147,151,150,147,139,125,114,91,68,50,39,32,25,17,18,20,22,15,16,14,12,19,24,22,24,27,22,20,22,24,21,23,22,19,21,18,16,13,16,18,25,25,24,30,37,31,32,29,27,21,15,20,19,14,11
2019-05-15,14:40:37.967,7,8,3,4,6,4,14,48,132,199,93,-158,-219,-189,-156,-77,-5,6,18,24,27,34,30,38,39,43,53,55,58,61,71,74,77,82,91,98,107,105,111,117,121,115,103,95,80,59,46,27,10,-3,-15,-21,-29,-26,-33,-34,-29,-27,-28,-24,-20,-20,-20,-22,-24,-24,-24,-23,-26,-31,-31,-33,-38,-39,-44,-49,-42,-36,-43,-44,-40,-31,-31,-31,-37,-41,-41,-48,-46,-54,-54,-57,-63,-58,-59,-59,-53,-54,-50,-53,-36,47,142,150,-124,-274,-250,-211,-125,-62,-50,-34,-29,-19,-17,-15,-9,-4,-4,-4,2,6,7,16,23,34,45,53
2019-05-15,14:40:38.995,61,62,70,71,73,79,75,71,64,52,32,5,-13,-30,-47,-52,-55,-63,-70,-67,-70,-80,-79,-78,-81,-73,-73,-72,-70,-66,-65,-71,-68,-68,-71,-64,-68,-70,-71,-73,-74,-74,-74,-79,-82,-79,-81,-78,-73,-75,-76,-77,-69,-63,-73,-71,-76,-70,-78,-81,-87,-91,-91,-90,-97,-93,-93,-87,-90,-89,-91,-70,38,158,65,-235,-310,-280,-214,-119,-93,-87,-73,-60,-61,-53,-55,-48,-47,-46,-41,-36,-32,-31,-25,-17,-3,2,12,22,25,31,41,45,44,48,39,29,14,-2,-23,-43,-53,-69,-80,-91,-93,-94,-99,-97,-102,-97,-92,-94,-96,-91,-89,-87
2019-05-15,14:40:40.023,-85,-84,-89,-95,-90,-89,-95,-94,-96,-100,-99,-100,-106,-105,-99,-105,-104,-101,-99,-100,-110,-105,-109,-109,-104,-105,-100,-95,-100,-101,-99,-87,-93,-97,-96,-98,-104,-109,-107,-110,-114,-110,-113,-112,-105,-104,-98,-100,-53,73,183,-28,-298,-315,-271,-173,-114,-104,-97,-88,-79,-67,-63,-61,-53,-54,-52,-49,-44,-43,-37,-26,-19,-10,2,10,16,19,28,33,33,38,36,32,27,12,-7,-27,-44,-59,-76,-83,-88,-94,-96,-100,-99,-99,-97,-94,-99,-102,-99,-100,-99,-101,-98,-104,-97,-103,-105,-101,-101,-108,-105,-109,-110,-113,-117,-121,-125,-122,-122,-121,-120,-120,-117,-122
2019-05-15,14:40:41.051,-120,-120,-126,-124,-125,-124,-120,-119,-118,-130,-129,-129,-129,-130,-129,-127,-118,-120,-121,-119,-120,-124,-122,-117,-117,-117,-112,-116,-116,-118,-112,-118,-110,-8,142,138,-188,-324,-291,-229,-127,-110,-104,-88,-76,-70,-59,-55,-49,-50,-46,-41,-37,-32,-31,-29,-18,-4,3,6,18,26,30,41,44,49,45,45,45,33,25,10,-9,-27,-49,-60,-64,-70,-74,-77,-71,-74,-77,-77,-74,-75,-73,-66,-68,-70,-62,-63,-67,-62,-60,-66,-65,-63,-68,-69,-64,-65,-66,-62,-62,-64,-67,-67,-66,-69,-64,-65,-64,-65,-68,-63,-65,-60,-63,-64,-56,-56,-65,-58,-55,-63,-65,-65
2019-05-15,14:40:42.079,-68,-72,-69,-72,-72,-69,-73,-72,-66,-39,53,155,71,-221,-287,-245,-212,-118,-71,-67,-48,-39,-30,-24,-20,-16,-10,-5,-2,7,11,12,18,21,25,34,41,52,60,69,72,73,76,74,69,60,52,36,16,2,-12,-29,-35,-44,-49,-51,-51,-60,-57,-51,-45,-47,-40,-37,-42,-45,-38,-34,-37,-34,-40,-42,-42,-44,-48,-43,-45,-47,-47,-42,-45,-51,-50,-49,-48,-49,-50,-50,-53,-46,-46,-45,-40,-36,-41,-42,-39,-46,-50,-42,-47,-51,-43,-49,-52,-53,-49,-49,-49,-48,1,89,160,-14,-254,-260,-224,-182,-82,-36,-41,-28,-18,-15,-4,-7,1,8
2019-05-15,14:40:43.107,15,20,21,21,32,37,45,51,63,71,79,90,96,95,99,97,100,93,83,69,51,31,9,-4,-13,-28,-33,-36,-41,-41,-42,-32,-40,-33,-38,-39,-35,-34,-33,-33,-32,-26,-23,-28,-27,-24,-23,-29,-25,-31,-30,-25,-26,-29,-26,-22,-28,-26,-24,-21,-27,-18,-18,-19,-21,-24,-23,-34,-37,-38,-39,-42,-40,-44,-44,-38,-42,-46,-38,-21,43,122,132,-106,-266,-246,-206,-149,-54,-31,-27,-17,-9,3,6,8,12,13,18,27,23,26,32,48,50,57,63,66,81,86,90,98,91,93,93,85,69,47,30,9,-8,-21,-35,-49,-54,-60,-63,-65
2019-05-15,14:40:44.135,-63,-60,-65,-63,-63,-63,-65,-60,-65,-64,-65,-62,-71,-72,-72,-73,-70,-75,-77,-79,-77,-79,-82,-79,-81,-83,-81,-76,-83,-90,-77,-75,-79,-78,-79,-80,-91,-98,-96,-99,-100,-103,-104,-107,-104,-105,-107,-102,-102,-48,53,125,-81,-316,-318,-289,-233,-130,-108,-102,-85,-77,-71,-68,-66,-60,-57,-49,-52,-51,-44,-41,-30,-31,-23,-13,-2,2,5,11,23,22,25,18,15,1,-14,-32,-52,-70,-82,-98,-112,-116,-117,-119,-123,-121,-119,-123,-118,-115,-120,-123,-122,-124,-126,-124,-122,-121,-120,-118,-122,-122,-115,-116,-119,-119,-117,-125,-124,-124,-125,-127,-128,-130,-131,-133
2019-05-15,14:40:45.163,-121,-120,-121,-124,-120,-118,-119,-119,-116,-123,-130,-132,-130,-131,-127,-137,-132,-131,-136,-128,-131,-126,-62,54,127,-109,-333,-333,-300,-211,-141,-132,-121,-107,-96,-92,-91,-93,-91,-80,-80,-79,-71,-65,-65,-60,-49,-38,-40,-31,-24,-16,-10,-3,2,4,8,0,-12,-31,-51,-70,-85,-100,-110,-122,-132,-140,-143,-141,-143,-145,-140,-147,-145,-146,-139,-138,-144,-140,-141,-139,-138,-137,-136,-139,-134,-139,-144,-147,-146,-143,-144,-143,-145,-152,-151,-151,-152,-146,-146,-149,-146,-144,-145,-145,-141,-141,-142,-144,-143,-140,-134,-136,-135,-133,-134,-139,-144,-145,-141,-138,-143,-144,-143,-144,-144,-141
2019-05-15,14:40:46.191,-143,-94,30,125,-108,-349,-354,-315,-206,-156,-151,-136,-119,-114,-114,-108,-108,-105,-102,-99,-95,-89,-85,-76,-73,-64,-55,-54,-43,-34,-34,-24,-15,-10,-10,-9,-13,-20,-39,-62,-84,-101,-115,-128,-139,-146,-156,-156,-148,-151,-151,-155,-155,-157,-158,-150,-149,-150,-143,-142,-139,-140,-138,-143,-152,-148,-146,-148,-147,-151,-152,-154,-150,-154,-160,-157,-158,-158,-157,-154,-156,-157,-152,-158,-160,-154,-155,-157,-158,-157,-151,-160,-159,-154,-148,-149,-151,-154,-152,-158,-156,-157,-159,-164,-161,-157,-158,-161,-159,-157,-161,-81,74,137,-161,-352,-334,-278,-180,-154,-156,-144,-130,-121,-121,-114,-110,-108
2019-05-15,14:40:47.219,-99,-96,-93,-88,-79,-75,-68,-57,-54,-51,-37,-31,-24,-16,-12,-5,-9,-7,-6,-21,-29,-42,-65,-80,-93,-107,-117,-123,-129,-132,-127,-131,-130,-133,-125,-124,-121,-119,-116,-121,-121,-120,-117,-112,-111,-113,-115,-113,-114,-118,-117,-114,-120,-120,-119,-117,-116,-116,-115,-115,-116,-114,-116,-114,-111,-120,-119,-111,-116,-111,-98,-98,-101,-98,-99,-102,-103,-104,-105,-103,-102,-103,-101,-102,-98,-98,-101,-56,55,159,-32,-298,-296,-267,-199,-104,-93,-82,-66,-54,-53,-39,-38,-36,-33,-28,-29,-20,-15,-7,-4,7,12,15,23,34,42,49,52,53,55,55,58,48,40,20,1,-18
2019-05-15,14:40:48.247,-27,-39,-51,-62,-66,-69,-65,-67,-65,-65,-67,-63,-67,-55,-57,-54,-49,-48,-45,-46,-51,-48,-48,-47,-48,-47,-47,-48,-49,-50,-52,-55,-54,-52,-47,-44,-46,-49,-46,-48,-47,-42,-44,-49,-48,-49,-51,-54,-58,-60,-58,-56,-57,-57,-58,-55,-51,-51,-13,80,165,32,-233,-265,-228,-187,-87,-41,-38,-23,-17,-7,-6,2,7,7,15,15,20,27,37,42,50,60,69,73,79,84,89,95,97,96,93,87,81,65,49,25,4,-8,-17,-25,-35,-35,-37,-38,-33,-35,-38,-37,-34,-36,-35,-29,-30,-27,-25,-28,-33,-31,-31,-39,-41,-39,-41,-45,-40,-44
2019-05-15,14:40:49.275,-51,-51,-49,-55,-53,-45,-38,-43,-36,-34,-29,-33,-36,-32,-34,-33,-37,-38,-35,-37,-30,-35,-34,-36,-38,-33,-29,17,109,163,-27,-252,-257,-219,-171,-78,-42,-34,-19,-9,-10,-5,4,10,9,19,19,24,27,33,38,49,58,65,67,76,94,97,100,101,103,104,89,79,61,44,28,11,-2,-12,-21,-28,-28,-27,-27,-38,-38,-37,-34,-36,-32,-29,-35,-30,-33,-29,-34,-37,-33,-36,-37,-46,-45,-45,-51,-49,-48,-48,-49,-49,-48,-50,-50,-46,-43,-37,-46,-47,-47,-51,-55,-54,-55,-57,-59,-57,-57,-57,-54,-52,-53,-46,5,89,149,-25,-259,-278
2019-05-15,14:40:50.303,-247,-203,-106,-66,-56,-50,-42,-33,-23,-18,-18,-16,-10,-8,-1,1,6,16,23,27,36,42,48,57,63,66,67,72,62,55,53,35,16,-7,-25,-39,-53,-59,-68,-78,-78,-77,-80,-79,-73,-77,-76,-70,-74,-72,-69,-72,-71,-69,-66,-65,-70,-71,-76,-79,-79,-81,-80,-87,-88,-93,-100,-99,-103,-100,-96,-95,-97,-92,-93,-94,-98,-94,-90,-94,-96,-102,-104,-105,-105,-104,-110,-109,-107,-106,-106,-103,-35,75,140,-110,-324,-304,-270,-189,-121,-112,-98,-88,-81,-82,-80,-66,-68,-70,-68,-62,-59,-56,-46,-42,-36,-26,-20,-8,-1,9,14,16,18,20,21,11
2019-05-15,14:40:51.331,2,-15,-37,-61,-75,-92,-95,-102,-113,-120,-122,-122,-122,-126,-128,-125,-113,-122,-128,-122,-120,-126,-134,-130,-131,-137,-131,-132,-136,-132,-134,-132,-137,-139,-137,-138,-143,-145,-147,-146,-143,-144,-143,-143,-145,-148,-142,-143,-145,-139,-130,-136,-140,-132,-139,-147,-147,-149,-150,-152,-152,-154,-155,-150,-155,-155,-150,-99,26,122,-108,-348,-353,-319,-223,-167,-157,-144,-139,-135,-133,-127,-124,-115,-108,-112,-103,-96,-96,-94,-80,-79,-71,-61,-49,-46,-36,-32,-30,-24,-21,-20,-27,-37,-54,-73,-91,-115,-129,-138,-147,-158,-163,-161,-162,-166,-162,-155,-160,-161,-156,-151,-151,-144,-142,-146,-141,-140
2019-05-15,14:40:52.359,-135,-138,-141,-139,-139,-139,-146,-152,-149,-151,-148,-157,-158,-158,-154,-152,-149,-152,-150,-145,-153,-158,-160,-157,-155,-153,-153,-160,-160,-157,-156,-157,-149,-147,-149,-148,-141,-149,-152,-153,-151,-154,-155,-159,-161,-157,-152,-158,-159,-155,-77,64,118,-185,-374,-351,-288,-188,-163,-158,-149,-144,-134,-125,-122,-114,-106,-108,-101,-98,-94,-91,-85,-79,-70,-60,-53,-45,-30,-27,-17,-16,-10,-6,-14,-13,-19,-33,-53,-70,-86,-105,-115,-125,-133,-132,-134,-135,-137,-132,-132,-129,-128,-129,-133,-124,-121,-125,-128,-126,-121,-119,-113,-114,-123,-125,-123,-123,-121,-127,-124,-121,-119,-119,-120,-117,-118,-118
2019-05-15,14:40:53.387,-113,-109,-111,-114,-107,-108,-106,-104,-97,-103,-108,-108,-111,-116,-109,-104,-110,-100,-92,-101,-97,-92,-94,-98,-94,-95,-96,-91,-86,-90,-92,-87,-87,-87,-74,26,174,128,-203,-295,-259,-204,-101,-85,-77,-62,-49,-43,-38,-35,-33,-24,-17,-12,-7,2,4,6,17,24,31,45,51,50,66,74,75,77,79,72,66,62,46,26,14,-3,-17,-31,-38,-38,-50,-51,-51,-52,-50,-47,-50,-43,-41,-36,-38,-32,-37,-45,-38,-39,-38,-41,-39,-40,-46,-40,-43,-44,-36,-34,-36,-38,-39,-40,-42,-34,-37,-36,-36,-29,-29,-33,-28,-22,-30,-26,-19,-28,-26,-24,-22,-26
2019-05-15,14:40:54.415,-23,-23,-27,-26,-26,-34,-29,-31,-25,-31,-24,47,152,209,-53,-257,-221,-192,-123,-30,-10,-10,3,17,24,26,33,35,37,45,48,52,59,69,72,77,89,96,105,103,113,128,131,133,138,136,129,118,103,83,66,51,36,26,18,12,14,12,2,1,5,7,5,7,5,8,9,9,17,8,12,12,10,10,13,12,10,11,13,8,11,11,5,5,6,4,5,6,8,10,16,16,17,21,25,26,19,22,21,19,19,16,18,22,21,21,13,15,21,11,18,61,146,223,74,-181,-211,-172,-123,-32,15,21,33,47,56,57,59,67
2019-05-15,14:40:55.443,64,66,73,78,80,90,92,104,111,123,122,135,145,153,159,162,159,162,159,143,129,108,93,77,55,47,41,35,35,33,41,31,35,34,29,37,38,39,31,36,42,34,37,43,35,33,30,31,20,22,21,19,20,15,17,15,18,16,13,23,21,16,29,24,25,20,21,27,20,19,17,12,18,20,17,17,19,21,19,18,48,126,201,99,-152,-210,-176,-144,-65,3,15,26,37,47,49,55,55,61,62,72,72,73,85,90,100,107,110,111,117,132,136,141,147,142,140,133,123,109,89,75,58,40,27,22,14,7,5,3
2019-05-15,14:40:56.471,-6,-1,-4,-7,-5,-6,-4,-3,-7,-3,-6,-6,-8,-5,-7,-13,-11,-17,-15,-16,-21,-8,-19,-25,-24,-17,-14,-16,-18,-10,-10,-10,-12,-21,-16,-21,-23,-24,-22,-24,-26,-30,-30,-31,-28,-30,-20,10,92,175,98,-168,-246,-216,-181,-91,-33,-30,-16,-1,6,12,14,17,21,21,24,27,33,32,43,59,65,66,67,75,82,88,96,101,95,95,95,84,76,55,32,9,-6,-20,-30,-31,-38,-38,-46,-44,-48,-49,-49,-52,-45,-44,-47,-42,-46,-41,-42,-44,-42,-39,-47,-43,-48,-50,-50,-55,-55,-57,-58,-60,-62,-59,-56,-55,-55,-58,-60,-54
2019-05-15,14:40:57.499,-49,-55,-61,-56,-59,-66,-75,-73,-75,-80,-78,-76,-79,-73,-74,-77,-73,-44,49,163,99,-198,-288,-257,-208,-116,-76,-65,-51,-49,-40,-38,-37,-31,-28,-23,-21,-13,-12,-13,-2,4,4,13,21,29,34,49,54,50,58,51,49,41,30,10,-15,-31,-44,-66,-69,-76,-85,-82,-85,-84,-86,-85,-88,-87,-80,-82,-83,-86,-83,-78,-81,-80,-79,-85,-84,-88,-91,-92,-90,-88,-87,-85,-89,-92,-88,-86,-88,-90,-86,-89,-90,-90,-91,-93,-93,-94,-95,-93,-91,-86,-87,-80,-81,-82,-85,-91,-94,-93,-93,-93,-91,-90,-88,-91,-90,-86,-53,57,180,38,-263,-302
2019-05-15,14:40:58.527,-273,-196,-112,-97,-92,-79,-64,-62,-60,-55,-52,-51,-48,-45,-40,-32,-24,-20,-13,-8,-2,7,15,21,31,34,38,39,36,38,30,11,-6,-26,-47,-64,-70,-84,-90,-95,-101,-101,-100,-97,-101,-103,-100,-99,-102,-98,-101,-102,-95,-98,-96,-97,-91,-92,-98,-92,-96,-101,-98,-100,-99,-100,-102,-100,-103,-107,-109,-110,-109,-102,-105,-108,-104,-105,-101,-95,-97,-99,-99,-99,-98,-102,-98,-93,-98,-94,-91,-87,-85,-87,-84,-90,-88,-91,-98,-96,-97,-96,-93,-93,-95,-101,-96,-76,30,172,78,-234,-307,-277,-189,-113,-102,-95,-85,-77,-72,-73,-72,-64,-54,-55,-49,-50
2019-05-15,14:40:59.555,-46,-37,-32,-33,-20,-12,-7,-2,11,23,28,33,35,32,35,37,20,5,-14,-30,-47,-62,-72,-78,-80,-83,-88,-87,-82,-78,-90,-80,-79,-78,-81,-75,-73,-79,-78,-81,-83,-79,-78,-73,-80,-74,-74,-73,-74,-72,-73,-74,-71,-72,-75,-72,-74,-80,-75,-76,-75,-72,-73,-75,-74,-69,-72,-75,-73,-72,-72,-69,-70,-64,-63,-63,-62,-63,-60,-63,-63,-64,-63,-59,-60,-49,-59,-63,-58,-59,-16,87,190,2,-257,-251,-218,-168,-74,-58,-51,-42,-27,-26,-28,-21,-18,-18,-5,4,13,14,16,31,31,45,47,54,65,75,81,82,90,85,87,89,76,63
2019-05-15,14:41:00.583,51,31,10,-7,-15,-27,-40,-43,-42,-46,-50,-48,-51,-49,-54,-51,-51,-42,-43,-49,-38,-41,-42,-45,-40,-43,-42,-41,-44,-40,-43,-49,-44,-45,-46,-48,-49,-47,-46,-45,-41,-44,-40,-44,-43,-44,-46,-39,-38,-41,-38,-31,-29,-26,-26,-25,-32,-27,-27,-28,-27,-25,-24,-24,-24,-28,-27,0,82,171,99,-167,-243,-210,-166,-84,-27,-15,-6,8,10,20,19,17,27,34,28,40,43,42,52,67,66,72,80,91,100,105,109,115,115,112,112,103,92,73,43,33,16,3,-9,-8,-17,-20,-14,-16,-16,-17,-20,-16,-18,-11,-7,-10,-10,-13,-9,-3
2019-05-15,14:41:01.611,-1,-3,-6,-4,-9,-10,-8,-6,-11,-8,-11,-6,-13,-9,-7,-7,-6,-11,-9,-8,-3,-5,-12,-3,-2,-8,-7,-10,-7,-10,-12,-14,-13,-7,-10,-20,-11,-9,-9,-6,0,27,105,168,87,-161,-224,-190,-148,-69,-1,9,15,28,37,38,48,41,50,54,57,54,62,65,71,74,80,87,89,96,110,115,121,123,115,111,110,97,86,69,52,34,18,12,4,-4,-9,-8,-10,-11,-8,-9,-12,-2,-5,-8,-6,-1,-2,-7,-6,-8,-9,-11,-12,-18,-14,-15,-22,-19,-23,-25,-24,-17,-14,-21,-24,-23,-21,-19,-18,-22,-21,-11,-12,-20,-18,-25
2019-05-15,14:41:02.639,-29,-31,-36,-37,-46,-38,-41,-39,-37,-38,-37,-32,16,99,174,19,-214,-244,-211,-169,-71,-32,-29,-16,-8,0,-2,-2,8,13,6,5,12,22,29,37,38,45,53,59,74,81,84,87,92,91,83,78,64,49,31,14,-6,-22,-34,-32,-43,-54,-55,-58,-59,-63,-61,-64,-66,-66,-67,-68,-64,-62,-60,-65,-68,-71,-70,-69,-73,-74,-73,-74,-77,-80,-75,-79,-85,-87,-86,-88,-89,-84,-87,-86,-81,-76,-82,-78,-76,-77,-78,-81,-80,-82,-83,-86,-93,-91,-93,-90,-93,-88,-89,-94,-90,-83,-39,66,161,9,-264,-293,-265,-213,-118,-98,-90,-75,-65,-61
2019-05-15,14:41:03.667,-56,-55,-55,-59,-50,-46,-41,-34,-30,-28,-25,-8,3,1,14,21,30,37,36,37,34,27,20,0,-19,-39,-62,-76,-88,-95,-102,-105,-106,-120,-114,-116,-121,-122,-117,-115,-113,-108,-108,-110,-105,-108,-109,-103,-103,-103,-109,-108,-108,-115,-109,-116,-113,-116,-116,-114,-121,-112,-114,-120,-117,-123,-121,-123,-119,-122,-123,-118,-116,-123,-119,-119,-119,-117,-115,-114,-117,-122,-124,-125,-118,-121,-121,-123,-121,-121,-120,-112,-107,-44,78,138,-127,-329,-307,-266,-168,-116,-111,-96,-85,-81,-75,-76,-68,-67,-66,-58,-60,-57,-44,-41,-39,-33,-21,-15,-9,4,7,8,14,19,21,21
2019-05-15,14:41:04.695,20,6,-14,-31,-51,-75,-86,-100,-110,-110,-113,-115,-116,-113,-116,-116,-114,-117,-112,-112,-107,-106,-105,-106,-109,-111,-107,-107,-107,-112,-112,-112,-108,-109,-116,-117,-114,-114,-120,-117,-111,-112,-117,-117,-119,-118,-117,-115,-113,-114,-110,-118,-117,-119,-125,-121,-113,-116,-112,-99,-102,-104,-109,-110,-115,-114,-115,-112,-111,-118,-113,-111,-110,-107,-105,-96,-8,134,128,-183,-312,-292,-228,-124,-105,-99,-92,-77,-73,-70,-62,-59,-58,-53,-50,-49,-47,-37,-36,-34,-23,-15,-7,9,13,14,22,34,35,34,35,30,21,5,-15,-33,-48,-58,-72,-85,-87,-88,-91,-93,-93,-91,-95,-86
2019-05-15,14:41:05.723,-90,-93,-86,-83,-83,-85,-79,-76,-77,-76,-81,-82,-76,-74,-83,-81,-75,-79,-85,-82,-82,-79,-80,-77,-80,-74,-72,-70,-73,-71,-72,-68,-73,-75,-73,-70,-72,-75,-63,-61,-59,-58,-58,-64,-64,-64,-67,-70,-72,-70,-62,-64,-64,-67,-56,19,133,150,-133,-279,-249,-215,-127,-62,-57,-48,-30,-24,-18,-8,-6,-5,0,3,9,8,20,26,33,43,50,55,65,71,78,83,92,91,87,92,90,74,62,40,20,5,-11,-18,-26,-31,-29,-34,-38,-40,-37,-39,-32,-29,-26,-19,-18,-21,-23,-21,-18,-21,-18,-20,-27,-25,-24,-30,-28,-31,-29,-28,-24,-26
2019-05-15,14:41:06.751,-31,-27,-33,-27,-26,-21,-17,-25,-18,-21,-26,-17,-17,-22,-20,-22,-25,-27,-24,-19,-29,-26,-27,-28,-26,-24,-25,-20,11,87,166,51,-214,-259,-224,-181,-94,-42,-29,-21,-19,-7,4,6,11,12,17,26,36,32,33,45,50,56,64,76,87,99,109,112,110,107,105,100,90,78,58,39,29,11,0,-5,-13,-20,-25,-23,-20,-18,-16,-19,-22,-17,-16,-13,-10,-8,-15,-15,-10,-12,-15,-7,-14,-18,-21,-20,-16,-21,-14,-15,-19,-18,-13,-15,-19,-21,-17,-19,-21,-14,-11,-13,-8,-12,-18,-19,-21,-21,-21,-19,-22,-17,-15,-14,-11,-13,-11,38
2019-05-15,14:41:07.779,133,171,-20,-220,-217,-191,-149,-54,-24,-17,-2,7,10,27,31,26,25,33,43,37,45,50,57,66,70,81,86,104,101,102,105,115,109,107,106,92,72,53,33,14,2,-3,-15,-19,-24,-30,-30,-24,-26,-20,-16,-14,-16,-14,-13,-12,-14,-7,-16,-17,-20,-18,-24,-25,-29,-32,-34,-29,-30,-32,-32,-29,-28,-30,-25,-32,-31,-20,-18,-24,-24,-28,-30,-41,-42,-44,-50,-48,-49,-57,-56,-53,-58,-57,-53,-37,31,110,108,-135,-275,-252,-221,-155,-71,-53,-47,-35,-33,-24,-21,-15,-12,-11,-7,-5,-4,4,6,14,18,26,34,43,56,61,66,68
2019-05-15,14:41:08.807,75,79,78,67,52,29,14,0,-23,-35,-47,-56,-53,-60,-63,-69,-66,-69,-72,-65,-63,-58,-56,-54,-55,-59,-54,-58,-64,-55,-65,-61,-63,-64,-67,-74,-72,-74,-78,-67,-73,-81,-78,-75,-74,-74,-73,-74,-74,-70,-73,-78,-78,-81,-87,-92,-92,-94,-98,-93,-90,-91,-88,-85,-87,-88,-74,6,110,124,-143,-296,-278,-246,-165,-102,-86,-75,-67,-56,-52,-46,-45,-38,-39,-39,-28,-21,-21,-9,-8,-1,3,9,20,28,44,49,47,48,47,44,38,27,7,-15,-35,-45,-65,-73,-79,-85,-89,-85,-85,-88,-85,-84,-85,-83,-84,-81,-84,-79,-75,-76,-75,-72
2019-05-15,14:41:09.835,-69,-73,-73,-75,-75,-72,-80,-88,-78,-82,-82,-84,-81,-87,-86,-80,-81,-82,-85,-84,-85,-82,-80,-82,-86,-78,-72,-72,-71,-76,-84,-81,-84,-86,-93,-88,-86,-87,-85,-85,-89,-87,-62,37,151,82,-216,-302,-273,-221,-121,-98,-93,-85,-75,-63,-58,-53,-52,-48,-40,-40,-32,-26,-28,-22,-13,-7,3,9,14,17,28,34,37,42,37,29,22,9,-9,-29,-46,-61,-73,-84,-97,-105,-108,-111,-111,-111,-103,-101,-103,-102,-101,-109,-105,-105,-100,-98,-92,-92,-99,-98,-95,-105,-104,-102,-105,-102,-97,-97,-100,-96,-97,-96,-93,-98,-96,-93,-91,-89,-89,-83,-84,-87
2019-05-15,14:41:10.863,-93,-92,-92,-93,-90,-95,-91,-91,-88,-87,-83,-82,-80,-84,-82,-89,-101,-94,-96,-98,-97,-92,-88,-95,-92,-91,-66,42,166,43,-251,-310,-277,-186,-112,-102,-90,-78,-67,-61,-55,-54,-52,-49,-43,-41,-41,-31,-26,-21,-16,-9,-6,-1,10,18,20,31,35,41,40,34,34,19,5,-15,-35,-51,-66,-73,-80,-83,-91,-91,-92,-92,-95,-90,-85,-92,-90,-85,-85,-91,-84,-84,-85,-84,-89,-94,-90,-87,-87,-88,-87,-86,-83,-83,-87,-88,-85,-82,-83,-80,-75,-77,-79,-81,-80,-76,-75,-74,-72,-71,-70,-66,-68,-69,-61,-60,-66,-59,-48,-53,-52,-52,-54,-56
2019-05-15,14:41:11.891,-49,-49,-53,-49,-52,-52,-39,-45,-44,-45,-34,52,183,177,-130,-252,-217,-175,-79,-39,-31,-17,-12,1,10,8,17,22,22,24,31,43,48,53,61,68,78,78,83,93,103,115,115,117,120,115,113,104,92,70,51,36,14,8,4,-2,-3,-7,-8,-13,-10,-9,-5,1,2,0,-1,-3,0,-5,1,6,3,6,2,1,3,2,3,2,5,2,-3,5,0,-5,-4,-5,-6,-2,3,4,6,12,10,12,16,28,23,17,22,21,10,15,19,22,23,26,19,16,18,19,12,38,123,206,169,-100,-205,-173,-134,-52,22,39,47,54,68,73
2019-05-15,14:41:12.919,70,72,78,81,82,89,89,94,98,111,117,128,139,144,141,156,162,166,172,169,164,150,142,127,106,90,72,59,47,45,42,39,38,38,35,37,38,39,42,48,47,42,45,43,45,44,39,37,39,37,40,38,37,36,41,43,34,37,41,42,41,39,46,43,45,47,51,54,49,46,47,46,47,45,50,47,41,43,40,42,43,40,45,51,75,154,226,165,-99,-177,-144,-109,-27,37,52,63,77,81,81,90,95,94,99,100,105,111,119,131,137,144,154,161,176,180,188,194,205,202,200,193,184,172,155,134,116,101,89,79
2019-05-15,14:41:13.947,72,73,60,59,65,61,61,62,57,63,71,72,71,72,75,74,76,67,75,74,68,76,67,67,72,68,68,68,65,61,63,72,68,67,79,84,73,76,75,75,65,68,61,60,61,59,55,46,51,51,47,58,87,163,235,160,-89,-170,-133,-106,-30,42,49,62,73,78,82,83,85,89,89,94,96,101,106,117,128,132,141,144,151,165,170,174,181,189,184,179,169,146,125,107,89,74,59,50,37,30,30,32,28,28,25,27,31,31,36,33,39,32,29,36,31,28,27,29,26,27,27,21,22,24,23,21,18,24,21,24
2019-05-15,14:41:14.975,25,24,21,22,34,37,30,34,28,28,28,18,21,26,28,19,14,15,14,13,16,19,40,127,224,200,-84,-206,-179,-149,-56,1,7,26,32,38,43,52,54,51,58,61,67,69,77,80,84,96,103,106,122,124,130,136,139,143,144,145,130,114,99,81,55,39,22,13,9,7,4,-5,-3,-4,-8,0,0,-1,-3,-1,-4,-9,-1,0,-3,-5,1,-7,-8,-5,-3,-5,-4,-3,-5,-4,-5,-7,-7,-5,-9,-10,-12,-15,-17,-19,-17,-20,-18,-10,-6,-14,-13,-11,-14,-21,-20,-22,-26,-19,-23,-23,-19,-19,-23,-24,-11,64,178,212
2019-05-15,14:41:16.003,-68,-242,-221,-182,-90,-40,-26,-14,-7,-4,3,8,14,12,18,18,24,28,36,48,51,59,65,67,75,82,93,95,100,108,106,102,102,86,68,46,31,12,-5,-16,-26,-35,-37,-39,-42,-48,-43,-36,-37,-31,-32,-31,-26,-24,-23,-30,-23,-26,-25,-23,-25,-29,-26,-20,-27,-26,-20,-22,-28,-27,-29,-33,-35,-34,-37,-39,-37,-41,-40,-40,-40,-38,-38,-41,-41,-42,-36,-38,-37,-34,-31,-33,-36,-31,-37,-46,-42,-41,-39,-42,-42,-41,-44,-43,-40,-36,-9,90,217,124,-181,-259,-231,-152,-61,-52,-40,-24,-13,-8,-6,1,3,5,2,4,15,19
2019-05-15,14:41:17.031,26,29,36,41,46,56,64,67,82,86,94,93,91,87,79,69,42,22,-1,-18,-33,-45,-55,-60,-61,-59,-62,-62,-57,-55,-55,-57,-53,-52,-53,-48,-51,-53,-51,-46,-47,-45,-43,-40,-44,-43,-44,-53,-48,-52,-49,-48,-48,-49,-54,-49,-45,-42,-40,-46,-46,-48,-45,-40,-44,-39,-38,-42,-42,-39,-42,-46,-44,-46,-49,-44,-45,-42,-39,-41,-39,-42,-42,-41,-47,-47,-49,-44,-42,-44,-42,-41,-33,-38,0,122,260,88,-214,-234,-200,-118,-45,-38,-26,-15,-6,-5,2,1,7,13,25,24,29,36,42,50,52,55,63,69,76,87,100,112,114,114
2019-05-15,14:41:18.059,115,110,102,93,78,53,30,23,12,-4,-12,-18,-25,-24,-23,-22,-26,-18,-16,-16,-19,-17,-14,-14,-13,-10,-14,-12,-11,-13,-14,-19,-18,-14,-15,-17,-15,-10,-11,-9,-6,-9,-12,-13,-10,-10,-11,-3,-4,-3,-3,-2,1,3,6,-1,-3,7,14,16,13,15,16,8,8,8,9,7,4,7,6,15,15,11,18,40,128,230,134,-144,-199,-164,-126,-36,20,20,32,47,57,62,61,74,72,75,85,83,90,98,109,112,115,125,130,142,149,154,164,172,171,169,166,167,150,136,113,92,76,62,58,53,48,52,48,42,48,50,48,51
2019-05-15,14:41:19.087,60,59,61,61,61,64,66,67,56,57,60,56,49,55,50,45,50,47,48,46,49,55,49,53,51,49,53,56,53,47,49,54,57,59,54,53,52,48,47,53,50,50,49,49,52,57,62,57,58,82,162,243,145,-109,-174,-142,-102,-18,48,58,70,80,83,91,95,95,105,103,109,117,121,123,131,146,146,150,164,173,178,184,194,199,197,200,193,182,171,151,132,110,103,87,70,69,67,59,63,62,61,59,61,63,66,71,70,69,72,65,67,66,67,68,65,71,69,65,59,59,62,61,65,65,67,71,69,74,74,73
2019-05-15,14:41:20.115,75,73,80,73,72,72,68,56,50,56,46,48,51,48,54,56,52,51,53,62,136,211,186,-66,-189,-148,-119,-58,27,41,50,60,78,77,82,89,86,88,96,98,97,103,109,108,113,127,139,145,152,158,163,162,164,162,160,151,135,116,97,80,61,42,43,29,22,24,21,19,20,21,26,23,28,28,27,29,28,31,24,29,19,16,19,16,13,15,13,10,10,9,10,4,7,5,6,2,1,11,15,17,14,9,14,7,-3,-1,-4,-7,-13,-11,-9,-11,-13,-16,-18,-6,48,143,208,24,-218,-225,-185,-128,-33,-12,-4,10
2019-05-15,14:41:21.144,16,28,32,31,36,40,42,50,50,56,57,69,77,76,87,97,105,110,117,118,117,118,118,114,108,86,64,38,19,6,-9,-12,-18,-26,-27,-29,-29,-30,-28,-32,-33,-30,-25,-26,-25,-24,-21,-26,-22,-18,-24,-20,-27,-30,-24,-30,-32,-35,-36,-40,-38,-31,-35,-38,-39,-41,-34,-38,-38,-35,-34,-33,-39,-37,-38,-43,-44,-48,-43,-44,-50,-48,-46,-50,-50,-50,-47,-45,10,121,213,22,-242,-256,-220,-142,-70,-58,-48,-37,-27,-18,-15,-9,-7,-2,1,3,11,14,19,23,28,32,36,49,57,68,77,78,77,86,84,80,71,58,34,4
2019-05-15,14:41:22.172,-15,-31,-42,-48,-50,-51,-61,-59,-61,-59,-50,-54,-60,-51,-53,-52,-61,-57,-56,-58,-52,-53,-52,-46,-53,-57,-54,-50,-51,-52,-54,-58,-59,-56,-59,-60,-67,-63,-62,-67,-62,-62,-61,-53,-55,-55,-54,-50,-52,-52,-49,-55,-62,-64,-68,-65,-64,-63,-64,-65,-60,-63,-63,-59,-17,103,215,23,-253,-272,-234,-145,-76,-68,-63,-49,-40,-33,-31,-24,-13,-18,-12,-7,-1,1,7,13,19,16,30,38,45,57,62,65,69,77,74,72,62,48,26,9,-8,-30,-45,-51,-58,-63,-59,-62,-61,-66,-66,-66,-70,-62,-67,-69,-66,-62,-57,-64,-69,-64,-64,-63
2019-05-15,14:41:23.200,-65,-68,-69,-72,-73,-79,-72,-75,-75,-77,-70,-70,-64,-65,-67,-71,-66,-66,-68,-69,-66,-69,-66,-68,-70,-66,-62,-64,-69,-63,-56,-63,-61,-60,-58,-66,-66,-66,-71,-66,-74,-72,-75,-70,-70,-69,-72,-21,115,237,5,-259,-259,-217,-114,-72,-62,-53,-41,-25,-23,-18,-20,-14,-8,-7,-4,-3,-1,13,19,24,32,40,44,46,59,63,72,83,90,87,79,75,59,33,18,1,-23,-33,-40,-52,-52,-53,-55,-60,-57,-57,-56,-50,-50,-49,-52,-50,-47,-51,-48,-50,-51,-47,-38,-42,-44,-42,-41,-46,-45,-42,-45,-40,-44,-49,-47,-45,-48,-48,-43,-46
2019-05-15,14:41:24.228,-39,-36,-39,-42,-43,-37,-41,-44,-27,-29,-29,-25,-29,-30,-33,-26,-28,-30,-27,-29,-27,-25,-27,-24,-23,18,111,212,107,-179,-231,-186,-146,-51,-15,-10,7,19,25,28,28,38,39,42,46,50,55,60,71,79,90,95,108,116,118,134,135,137,142,140,135,126,116,96,71,61,45,33,25,15,9,11,14,13,14,13,9,10,20,18,22,22,25,30,21,29,28,23,17,17,13,16,15,12,14,18,11,5,13,5,6,8,10,8,5,10,15,10,14,15,16,14,14,15,13,14,8,-2,4,5,6,1,2,6,-3,0,5,10
2019-05-15,14:41:25.256,74,158,199,-34,-222,-199,-171,-112,-21,13,21,25,34,45,55,52,51,57,62,64,70,83,84,91,97,106,109,120,131,139,147,153,156,154,148,142,131,116,96,72,52,44,27,16,15,14,13,15,11,12,15,17,20,17,26,26,18,24,28,32,27,26,32,26,26,25,23,21,19,20,17,23,23,18,24,21,22,25,29,31,28,37,43,37,36,40,34,31,32,38,36,39,30,30,39,39,34,39,47,58,122,194,204,-30,-189,-164,-132,-79,16,52,51,68,73,73,78,84,87,93,96,99,102,108,114,121,135,137,143,158
2019-05-15,14:41:26.284,166,175,172,175,168,163,165,159,138,126,106,87,70,56,46,35,36,22,17,19,20,20,17,20,20,19,22,13,11,19,17,11,8,9,4,5,7,-1,4,5,5,3,-1,0,-4,-6,-5,-8,-3,0,-5,-2,4,3,-2,-4,2,-5,-11,-17,-20,-22,-24,-18,-25,-28,-24,-26,-22,-23,-4,75,150,120,-140,-257,-225,-195,-110,-41,-26,-18,-8,8,10,10,18,17,19,23,33,36,39,46,51,53,63,71,79,83,94,96,94,99,98,96,85,65,47,28,11,-5,-21,-22,-32,-41,-48,-46,-50,-47,-42,-41,-46,-49,-47,-49,-45,-41
2019-05-15,14:41:27.312,-33,-35,-34,-36,-37,-36,-45,-49,-44,-43,-45,-49,-49,-47,-49,-45,-49,-51,-56,-51,-57,-63,-57,-58,-57,-59,-65,-68,-70,-72,-67,-65,-61,-61,-68,-56,-61,-67,-68,-68,-71,-73,-69,-73,-74,-66,-78,-84,-81,-75,-78,-76,-42,54,164,51,-235,-294,-265,-204,-113,-88,-74,-67,-62,-50,-44,-42,-46,-37,-37,-37,-32,-32,-28,-19,-15,-7,2,10,18,25,34,39,39,46,48,45,30,23,5,-17,-33,-47,-63,-76,-85,-90,-95,-96,-94,-98,-93,-96,-99,-98,-96,-94,-97,-94,-92,-97,-94,-96,-98,-95,-97,-98,-97,-96,-93,-99,-100,-104,-105,-102,-101,-96
2019-05-15,14:41:28.340,-101,-100,-102,-108,-111,-106,-109,-109,-106,-108,-109,-106,-106,-108,-106,-109,-107,-98,-106,-104,-98,-94,-104,-107,-100,-108,-113,-109,-111,-110,-113,-109,-108,-110,-108,-112,-109,-67,42,152,-29,-294,-318,-289,-197,-123,-112,-102,-88,-86,-82,-74,-66,-64,-56,-59,-55,-52,-47,-43,-36,-29,-22,-15,-7,2,11,16,24,23,25,27,27,11,5,-14,-40,-60,-70,-82,-94,-101,-111,-118,-115,-118,-114,-112,-109,-111,-113,-112,-109,-111,-104,-100,-102,-103,-97,-97,-106,-97,-99,-107,-105,-103,-100,-106,-106,-105,-106,-102,-109,-112,-109,-113,-108,-118,-118,-113,-115,-112,-115,-114,-115,-116,-118,-117
2019-05-15,14:41:29.368,-111,-113,-121,-117,-123,-120,-115,-120,-120,-119,-114,-116,-121,-120,-127,-121,-123,-119,-126,-130,-125,-120,-122,-117,-116,-114,-76,37,164,-22,-301,-324,-288,-183,-124,-119,-113,-98,-86,-80,-69,-69,-66,-61,-61,-56,-58,-49,-41,-41,-32,-25,-18,-4,3,8,15,22,26,19,30,29,19,6,-15,-29,-50,-65,-82,-96,-97,-102,-111,-111,-110,-108,-106,-107,-106,-109,-107,-112,-112,-109,-101,-98,-98,-97,-93,-97,-93,-90,-93,-93,-95,-97,-96,-89,-87,-87,-84,-84,-86,-83,-84,-84,-86,-80,-77,-79,-73,-70,-71,-67,-68,-66,-68,-65,-62,-70,-60,-56,-48,-53,-55,-52,-59,-55
2019-05-15,14:41:30.396,-56,-60,-57,-61,-63,-65,-61,-57,-61,-59,-53,13,135,184,-94,-277,-243,-211,-129,-58,-52,-50,-35,-27,-19,-14,-6,0,9,17,20,18,34,38,41,48,51,57,59,72,81,84,88,93,88,88,87,80,66,48,27,8,-3,-15,-28,-31,-28,-30,-32,-25,-26,-33,-27,-25,-23,-21,-15,-12,-11,-9,-13,-12,-10,-13,-11,-16,-13,-19,-21,-22,-19,-24,-21,-20,-21,-19,-16,-16,-18,-16,-20,-23,-15,-15,-16,-19,-10,-2,0,-4,-8,-4,-4,-10,-8,-12,-7,-7,-13,-10,-15,-16,-19,-14,8,94,182,133,-146,-238,-198,-165,-84,-13,-7,2,18,29
2019-05-15,14:41:31.424,36,41,39,44,50,55,62,67,74,85,87,102,109,114,127,138,141,138,144,143,144,146,136,126,102,78,64,45,39,29,19,16,19,21,23,15,13,15,20,17,15,19,17,20,21,26,27,20,25,24,27,30,27,30,29,30,29,22,21,23,18,20,24,23,29,27,32,38,37,31,30,31,31,29,26,29,30,24,26,26,24,38,35,28,38,74,153,217,97,-155,-195,-158,-121,-32,28,35,47,52,64,68,75,78,81,86,89,95,97,105,113,115,120,133,141,158,162,177,174,172,175,174,168,164,143,125,102,84,68,53
2019-05-15,14:41:32.452,46,42,36,29,28,30,28,27,27,25,32,31,32,36,35,29,26,31,28,26,27,29,23,23,26,27,23,24,24,26,31,27,29,26,31,38,39,36,34,32,33,25,20,15,16,16,13,12,11,12,17,17,19,44,123,192,141,-111,-215,-182,-148,-75,2,17,28,37,36,46,49,52,57,62,62,62,75,83,82,92,101,104,116,118,131,139,142,143,140,138,140,128,120,99,76,57,47,25,9,6,-1,-6,-10,-9,-9,-8,-11,-5,-9,-3,-9,-12,-9,-4,-6,-11,-11,-13,-17,-12,-15,-18,-21,-23,-22,-27,-21,-20,-20,-21
2019-05-15,14:41:33.480,-18,-12,-10,-19,-16,-19,-19,-19,-31,-26,-28,-31,-24,-31,-33,-33,-28,-26,-36,-29,-13,75,179,144,-137,-258,-224,-190,-109,-41,-30,-18,-11,-3,2,5,11,14,17,26,27,25,31,39,45,51,63,67,78,91,97,100,102,103,103,98,91,69,44,29,6,-17,-27,-35,-43,-45,-45,-47,-50,-52,-54,-55,-52,-52,-50,-51,-43,-46,-51,-50,-51,-50,-55,-55,-53,-56,-56,-60,-62,-59,-65,-63,-63,-59,-56,-62,-57,-50,-48,-49,-54,-53,-55,-61,-67,-72,-73,-78,-88,-83,-82,-83,-88,-84,-81,-77,-57,30,145,127,-171,-302,-274,-228,-132,-87,-77,-68
2019-05-15,14:41:34.508,-56,-48,-45,-40,-40,-36,-32,-33,-23,-24,-19,-17,-13,-8,1,19,22,33,44,46,51,61,55,51,42,30,8,-18,-40,-56,-70,-85,-91,-98,-105,-105,-105,-107,-103,-104,-103,-99,-97,-98,-101,-98,-98,-101,-99,-101,-106,-106,-107,-112,-118,-114,-112,-115,-112,-111,-108,-107,-106,-103,-108,-108,-105,-110,-108,-111,-116,-111,-112,-114,-115,-113,-113,-116,-113,-115,-125,-130,-133,-133,-133,-135,-135,-137,-133,-130,-133,-132,-126,-53,64,115,-155,-341,-324,-277,-180,-140,-133,-119,-113,-104,-97,-102,-92,-87,-89,-86,-84,-79,-75,-66,-62,-59,-47,-35,-31,-28,-24,-14,-6,1,3,5
2019-05-15,14:41:35.536,9,-4,-23,-50,-68,-91,-107,-112,-119,-128,-123,-125,-128,-130,-132,-132,-134,-131,-130,-137,-132,-132,-132,-135,-127,-129,-134,-127,-128,-133,-128,-128,-126,-131,-133,-135,-138,-136,-140,-141,-136,-141,-143,-144,-142,-141,-144,-141,-143,-145,-142,-147,-148,-149,-146,-140,-141,-134,-139,-137,-130,-134,-137,-138,-136,-139,-140,-140,-144,-155,-147,-151,-149,-144,-142,-145,-145,-77,64,139,-124,-341,-329,-285,-186,-149,-146,-130,-119,-112,-104,-101,-102,-100,-95,-93,-87,-82,-81,-78,-67,-63,-54,-51,-40,-28,-23,-14,-6,-3,3,1,-4,-10,-30,-49,-70,-86,-106,-123,-134,-143,-145,-152,-154,-150,-156,-150
2019-05-15,14:41:36.564,-135,-135,-140,-143,-140,-143,-138,-139,-138,-130,-132,-131,-133,-134,-130,-128,-125,-128,-127,-120,-125,-125,-132,-129,-133,-133,-127,-121,-129,-126,-123,-125,-125,-121,-117,-121,-125,-121,-115,-109,-117,-114,-115,-116,-113,-116,-111,-112,-111,-110,-114,-110,-113,-110,-109,-84,1,105,44,-237,-325,-290,-257,-165,-107,-102,-87,-75,-72,-67,-63,-55,-52,-47,-42,-36,-26,-27,-19,-8,-3,14,20,32,38,43,55,57,60,58,56,48,36,21,-3,-28,-41,-55,-66,-69,-74,-77,-82,-82,-78,-83,-76,-77,-71,-74,-71,-74,-71,-63,-65,-70,-70,-71,-68,-70,-72,-70,-76,-71,-65,-69,-71,-68
2019-05-15,14:41:37.592,-67,-71,-72,-69,-67,-64,-59,-63,-61,-50,-55,-55,-55,-50,-48,-54,-45,-46,-45,-49,-53,-54,-53,-59,-62,-52,-54,-63,-55,-54,-43,30,117,131,-119,-281,-249,-216,-155,-66,-45,-35,-20,-14,-8,1,4,2,12,12,8,13,25,35,38,57,61,62,68,70,81,88,93,98,95,89,78,67,53,30,14,-5,-17,-25,-30,-36,-38,-42,-43,-48,-50,-43,-40,-33,-31,-24,-30,-35,-23,-28,-26,-25,-22,-23,-25,-18,-23,-29,-28,-30,-30,-35,-35,-34,-34,-27,-28,-26,-31,-30,-25,-29,-26,-22,-19,-17,-19,-17,-13,-27,-32,-31,-26,-26,-30,-25,-22,-18
2019-05-15,14:41:38.620,-10,-12,-13,-11,28,112,169,53,-185,-235,-195,-155,-67,-8,7,16,23,33,38,37,45,53,55,58,58,53,62,79,90,94,98,106,115,125,134,141,135,143,141,135,126,110,91,65,59,36,24,20,14,6,1,3,8,9,10,12,10,9,15,17,16,18,14,14,22,14,10,9,7,6,1,1,0,-5,-3,-5,-9,-4,0,5,-2,3,4,-3,5,5,8,2,2,4,4,4,-6,-6,-2,-9,-12,-11,-18,-15,-17,-19,-15,-14,41,129,182,1,-224,-234,-203,-150,-54,-20,-17,-6,2,12,19,21,23,32,34,28,39,44,46,58
2019-05-15,14:41:39.648,69,78,79,93,100,103,114,117,115,119,117,104,96,77,53,34,20,5,-8,-13,-17,-24,-22,-25,-25,-32,-27,-21,-26,-26,-24,-21,-26,-18,-20,-24,-21,-23,-29,-34,-35,-43,-43,-40,-40,-43,-39,-39,-40,-45,-44,-49,-51,-50,-46,-51,-48,-55,-51,-45,-43,-41,-42,-42,-43,-39,-38,-40,-39,-42,-46,-49,-50,-49,-50,-53,-51,-50,-52,-50,-37,34,131,181,-68,-261,-240,-212,-132,-67,-51,-41,-34,-26,-22,-19,-7,-7,-5,-2,0,6,7,17,22,28,44,48,51,57,67,77,75,86,83,74,74,68,45,19,2,-22,-37,-43,-53,-59,-57,-60
2019-05-15,14:41:40.676,-62,-63,-62,-67,-72,-66,-67,-63,-55,-63,-59,-66,-62,-61,-69,-62,-61,-63,-58,-59,-61,-64,-59,-61,-65,-60,-59,-66,-68,-71,-69,-71,-73,-73,-77,-76,-79,-77,-74,-81,-77,-79,-76,-76,-73,-72,-73,-72,-64,-68,-70,-72,-72,-72,-67,-65,-69,-72,-73,-70,-71,-76,-72,-67,-52,44,163,113,-187,-290,-268,-209,-104,-73,-70,-56,-47,-42,-38,-36,-28,-31,-23,-20,-18,-15,-10,-7,1,11,18,24,37,45,47,52,59,56,57,56,51,32,18,-4,-24,-39,-55,-65,-74,-77,-79,-87,-86,-82,-86,-85,-88,-82,-81,-78,-80,-85,-85,-82,-80,-78,-78,-73
2019-05-15,14:41:41.704,-84,-79,-83,-88,-83,-85,-80,-82,-81,-84,-90,-87,-89,-93,-86,-91,-97,-95,-91,-90,-90,-93,-90,-95,-91,-92,-90,-91,-89,-85,-86,-82,-82,-80,-74,-77,-77,-75,-71,-74,-78,-70,-76,-79,-79,-83,-84,-84,-83,-84,-80,-82,-82,-78,-18,106,202,-31,-281,-281,-235,-130,-86,-78,-61,-51,-48,-40,-36,-36,-33,-27,-21,-17,-9,-4,0,8,23,29,32,46,53,63,74,79,84,80,81,77,71,61,43,19,1,-12,-24,-36,-39,-40,-46,-42,-45,-46,-43,-48,-44,-46,-46,-40,-40,-37,-35,-34,-32,-37,-35,-36,-36,-35,-41,-31,-32,-37,-30,-28,-27,-30
2019-05-15,14:41:42.732,-31,-26,-29,-32,-27,-25,-21,-22,-24,-26,-21,-21,-26,-19,-20,-23,-15,-17,-16,-17,-11,-19,-21,-18,-20,-19,-20,-14,-8,-13,-7,-7,-11,-4,-8,-9,33,117,205,71,-192,-226,-192,-144,-56,-10,0,13,21,27,38,45,42,53,59,62,61,66,75,77,82,88,99,111,122,127,134,143,144,140,139,140,124,115,98,77,64,50,38,27,29,25,20,23,24,25,29,27,33,23,30,37,34,36,34,35,36,37,32,31,29,27,21,26,26,28,30,31,27,27,33,34,31,35,39,36,38,41,44,42,43,48,51,57,58,55,49,53
2019-05-15,14:41:43.760,55,54,57,56,51,52,54,59,51,58,68,110,191,232,70,-155,-171,-131,-95,-2,57,64,75,82,93,97,101,105,106,111,119,118,124,133,136,142,153,159,173,181,188,192,202,196,199,201,196,185,172,159,131,111,99,89,79,78,79,75,70,71,74,77,76,74,76,79,80,81,77,79,77,75,86,78,73,77,80,77,70,68,71,67,68,66,72,68,67,75,72,74,78,82,94,84,85,89,90,83,72,77,82,75,80,81,84,82,80,77,89,106,174,231,223,-8,-143,-119,-89,-41,46,77,86,97,108,114,115,118,117,125
