2019-05-15,15:43:58.725,133,127,133,132,129,110,69,26,98,420,745,664,187,-61,-95,-35,39,85,99,121,156,200,180,127,123,157,161,160,170,182,209,263,225,290,262,207,205,245,277,293,301,308,300,279,254,227,210,185,197,203,143,162,171,152,160,166,171,170,169,171,172,168,168,170,169,176,169,165,170,162,159,158,157,158,159,164,163,158,160,163,168,169,172,174,174,173,176,179,177,178,186,190,191,206,213,212,206,209,207,197,195,199,194,168,114,50,65,440,924,1074,569,107,-6,54,137,181,186,196,202,204,208,212,220,223,229,228,232,236
2019-05-15,15:43:59.753,236,238,246,256,266,276,286,299,309,322,326,325,324,318,306,286,273,249,232,232,235,228,225,231,251,250,235,240,240,243,227,200,207,218,226,231,240,233,225,227,242,228,214,213,213,217,227,231,233,238,230,232,223,212,215,222,213,205,214,219,222,225,234,241,239,245,257,214,191,188,199,204,200,167,90,56,204,688,1202,1191,485,48,1,99,173,177,184,189,230,221,203,199,210,222,227,228,230,232,234,238,246,266,258,282,339,311,280,264,277,299,304,300,285,267,253,247,238,236,231,227,225,235,241,229,283,277,187,171
2019-05-15,15:44:00.781,182,201,206,209,212,215,219,224,231,231,224,229,228,231,232,233,234,239,251,250,246,241,241,241,235,238,237,237,251,253,243,251,275,250,249,257,267,263,271,272,256,254,247,234,253,272,186,60,10,112,659,1277,1429,716,145,-2,88,175,201,192,196,208,213,211,217,234,229,208,216,223,229,236,236,235,241,261,293,245,243,260,278,285,295,307,308,300,286,271,260,255,251,247,244,250,251,245,246,253,254,253,254,257,259,258,262,266,263,263,264,259,263,263,261,264,263,263,264,262,263,264,260,265,268,268,267,266,268,268
2019-05-15,15:44:01.809,269,265,272,275,277,284,302,307,305,305,299,282,269,266,271,273,261,219,128,61,209,760,1380,1477,664,161,100,171,229,237,245,249,252,254,255,254,257,258,260,265,268,271,269,269,268,270,264,266,272,276,282,289,294,300,306,310,295,282,268,254,247,244,239,236,230,226,222,219,218,219,220,215,212,210,209,206,207,206,203,202,205,200,196,194,192,194,189,186,190,191,189,188,193,192,192,197,196,202,202,204,219,225,223,222,211,189,180,175,177,175,163,128,28,-54,70,613,1251,1414,603,70,-5,65,120,131,132,132,135,136
2019-05-15,15:44:02.837,133,138,142,142,143,139,144,147,148,151,149,152,153,156,157,163,164,173,179,191,194,196,180,169,165,159,152,144,139,136,135,131,129,128,126,126,120,117,119,118,116,115,112,112,107,101,107,111,106,108,106,103,100,99,100,100,98,95,89,91,90,87,83,82,79,80,86,88,94,105,109,108,108,94,73,66,64,67,69,44,-15,-103,-162,83,635,1165,911,160,-140,-166,-82,-19,5,19,25,29,37,35,39,46,49,52,53,58,60,64,71,72,74,79,89,98,103,103,108,110,115,108,98,78,60,48,37,27,24,19,19,18
2019-05-15,15:44:03.865,13,7,11,11,8,3,5,1,-3,3,1,-7,-5,-8,-8,-11,-13,-13,-13,-15,-17,-17,-22,-21,-18,-16,-19,-18,-21,-23,-22,-23,-27,-29,-27,-29,-21,-17,-16,-12,0,12,14,18,14,-1,-18,-24,-27,-27,-37,-58,-119,-216,-239,137,740,1207,771,2,-229,-185,-97,-55,-54,-50,-41,-37,-36,-34,-31,-33,-30,-24,-18,-20,-18,-21,-17,-16,-12,-9,-8,0,8,16,18,22,28,33,23,16,4,-7,-18,-20,-27,-26,-28,-34,-33,-32,-27,-29,-32,-37,-35,-42,-45,-43,-41,-39,-44,-43,-46,-49,-51,-49,-47,-52,-57,-58,-59,-59,-57,-60,-60,-68
2019-05-15,15:44:04.893,-69,-68,-63,-66,-67,-67,-78,-78,-79,-71,-69,-68,-57,-47,-42,-41,-34,-49,-71,-78,-81,-84,-83,-96,-141,-229,-283,-47,485,984,712,-6,-277,-289,-199,-135,-110,-105,-90,-90,-90,-83,-79,-74,-70,-66,-69,-62,-55,-54,-49,-47,-42,-35,-23,-13,-3,8,15,20,21,18,2,-19,-34,-48,-61,-71,-78,-82,-83,-84,-85,-87,-86,-83,-85,-87,-87,-89,-89,-87,-92,-93,-95,-99,-101,-101,-103,-108,-105,-111,-110,-115,-114,-111,-111,-113,-113,-114,-116,-118,-118,-118,-114,-118,-123,-122,-119,-122,-124,-118,-114,-99,-93,-91,-90,-85,-84,-69,-59,-78,-95,-97,-101,-120,-123,-145
2019-05-15,15:44:05.921,-199,-282,-271,160,747,1056,463,-168,-319,-255,-181,-146,-135,-125,-116,-113,-106,-108,-112,-112,-109,-109,-110,-111,-105,-95,-93,-98,-92,-98,-98,-90,-82,-71,-67,-62,-58,-60,-70,-84,-114,-131,-145,-156,-165,-166,-167,-164,-169,-163,-163,-177,-186,-185,-186,-189,-189,-188,-191,-196,-184,-185,-189,-186,-192,-202,-204,-200,-201,-199,-201,-205,-206,-202,-199,-203,-213,-214,-216,-223,-217,-219,-221,-220,-219,-217,-215,-205,-215,-236,-225,-208,-219,-204,-130,-173,-214,-197,-202,-212,-219,-211,-186,-194,-238,-267,-370,-414,-89,446,789,346,-229,-405,-378,-285,-223,-205,-197,-189,-184,-179,-176,-171,-173,-165,-161,-161
2019-05-15,15:44:06.949,-153,-150,-147,-144,-142,-135,-129,-117,-108,-93,-84,-77,-70,-71,-79,-94,-115,-128,-139,-155,-171,-181,-180,-178,-179,-178,-176,-173,-172,-170,-169,-168,-169,-170,-173,-169,-169,-163,-163,-168,-175,-172,-155,-155,-180,-165,-164,-192,-193,-178,-172,-164,-152,-149,-157,-153,-152,-165,-165,-162,-156,-145,-134,-140,-152,-140,-126,-149,-153,-134,-113,-112,-113,-104,-120,-150,-149,-148,-138,-142,-152,-203,-292,-335,-81,449,894,616,-75,-321,-302,-217,-168,-156,-142,-136,-141,-139,-129,-132,-124,-120,-118,-117,-114,-108,-103,-95,-97,-96,-84,-77,-58,-52,-44,-33,-33,-31,-29,-36,-51,-69,-79,-94,-111,-120,-123,-131
2019-05-15,15:44:07.977,-129,-128,-134,-134,-134,-131,-132,-134,-129,-130,-145,-138,-133,-135,-139,-140,-134,-133,-135,-132,-142,-143,-132,-138,-141,-144,-138,-134,-132,-130,-134,-129,-123,-124,-123,-117,-126,-123,-122,-124,-123,-121,-124,-120,-121,-123,-118,-109,-106,-96,-76,-74,-71,-72,-83,-107,-114,-115,-116,-115,-126,-177,-270,-322,-83,456,946,726,9,-279,-287,-204,-148,-140,-135,-127,-121,-118,-114,-110,-107,-99,-96,-93,-88,-87,-85,-86,-83,-75,-64,-59,-51,-38,-24,-18,-10,-8,-11,-15,-34,-57,-71,-82,-94,-102,-106,-112,-116,-121,-123,-118,-119,-119,-120,-118,-118,-117,-117,-119,-116,-113,-110,-113,-112,-118,-116,-119
2019-05-15,15:44:09.005,-120,-123,-121,-123,-127,-129,-124,-126,-129,-131,-130,-129,-126,-131,-132,-131,-128,-130,-129,-130,-132,-133,-135,-128,-130,-127,-125,-127,-129,-127,-125,-119,-115,-102,-88,-84,-78,-80,-89,-111,-121,-118,-119,-120,-143,-182,-260,-303,-51,440,793,421,-159,-343,-338,-246,-187,-154,-144,-136,-127,-124,-118,-117,-111,-108,-104,-97,-91,-84,-78,-66,-58,-51,-37,-20,-8,4,23,35,42,44,35,19,-2,-22,-45,-64,-76,-83,-87,-89,-91,-90,-84,-85,-83,-84,-80,-75,-75,-75,-73,-74,-74,-74,-72,-75,-74,-77,-80,-81,-76,-73,-76,-77,-74,-78,-79,-78,-79,-77,-71,-70,-73,-74,-72,-74
2019-05-15,15:44:10.033,-75,-80,-79,-85,-81,-83,-85,-80,-82,-78,-80,-82,-85,-75,-69,-68,-64,-46,-37,-38,-31,-34,-60,-66,-66,-69,-71,-82,-116,-191,-249,-95,381,825,682,54,-241,-272,-191,-132,-102,-95,-88,-83,-77,-74,-66,-67,-61,-62,-56,-55,-50,-47,-42,-27,-16,-4,11,28,47,64,80,90,93,89,60,19,-14,-40,-62,-76,-89,-98,-103,-106,-111,-114,-117,-116,-119,-121,-116,-113,-108,-109,-105,-107,-106,-100,-101,-102,-100,-103,-106,-107,-104,-101,-103,-104,-102,-101,-99,-97,-95,-92,-96,-99,-99,-100,-101,-102,-100,-98,-98,-96,-91,-94,-90,-83,-79,-72,-60,-50,-48,-45,-46,-66
2019-05-15,15:44:11.061,-78,-84,-78,-72,-89,-127,-196,-256,-149,303,771,742,125,-225,-272,-204,-130,-97,-91,-84,-79,-72,-62,-62,-56,-46,-38,-37,-32,-29,-24,-21,-8,1,11,27,41,55,74,85,94,100,100,88,67,44,20,2,-12,-20,-26,-28,-28,-34,-38,-42,-41,-38,-35,-35,-29,-23,-16,-14,-17,-15,-12,-13,-17,-18,-17,-17,-18,-20,-18,-17,-17,-15,-15,-16,-17,-15,-13,-15,-14,-13,-13,-8,-10,-13,-13,-12,-15,-12,-11,-11,-13,-14,-12,-10,-6,-3,2,11,24,32,32,36,29,9,0,0,0,-2,-14,-53,-138,-192,19,553,1020,838,139,-174,-185,-94,-28,-15
2019-05-15,15:44:12.089,-10,-5,3,6,5,8,17,19,22,27,31,36,40,45,50,49,56,65,79,97,114,126,137,145,144,134,117,93,74,59,48,35,26,21,23,25,25,22,17,15,18,18,21,21,24,21,22,23,24,23,24,21,24,29,26,26,25,22,21,22,24,23,21,20,20,21,23,23,19,17,19,22,26,25,25,25,22,26,24,26,23,23,25,26,27,26,28,29,31,37,40,52,69,76,77,78,65,46,40,36,35,36,27,-15,-105,-163,24,578,1106,1039,281,-115,-139,-57,4,10,16,25,32,35,37,41,42,46,47,54,57,54
2019-05-15,15:44:13.117,53,60,61,65,75,81,90,104,120,131,142,152,155,152,141,121,104,93,78,72,63,62,60,61,61,60,60,54,55,51,50,50,58,58,59,59,58,61,57,58,54,55,56,55,53,55,58,56,56,54,53,54,55,53,52,50,48,51,51,51,48,52,52,52,53,51,53,53,54,51,51,56,57,54,55,57,59,58,58,60,63,70,74,75,90,102,104,105,106,91,76,69,69,66,61,43,-19,-116,-132,246,834,1242,793,91,-122,-86,-3,40,43,51,53,54,59,62,66,70,69,74,75,81,83,86,90,96,96,102,112,120
2019-05-15,15:44:14.145,132,146,158,167,173,178,175,158,141,126,111,101,92,84,84,82,78,78,76,72,73,72,72,77,74,75,74,76,75,76,78,77,76,76,71,66,69,70,72,68,70,73,72,71,72,71,68,69,71,68,73,76,72,72,73,77,78,72,73,73,75,71,74,76,76,79,77,79,76,78,77,75,79,80,81,84,91,91,105,117,125,126,124,114,95,93,93,95,88,69,21,-81,-118,186,768,1252,954,189,-93,-79,5,55,62,65,72,78,79,83,83,87,91,92,93,95,97,100,99,105,112,113,119,127,139,153,165,172,181,187
2019-05-15,15:44:15.173,178,166,151,136,122,111,100,96,94,92,90,88,83,84,84,83,81,82,82,82,80,81,81,75,76,74,73,73,70,73,68,67,72,70,70,69,70,67,64,66,64,67,70,71,66,63,64,68,68,67,68,66,66,65,65,66,66,66,64,64,62,61,64,62,62,67,64,60,61,62,64,67,73,75,82,96,105,106,103,100,78,67,69,66,63,62,28,-53,-130,-58,440,1033,1252,552,-12,-117,-53,19,43,46,51,54,58,62,62,67,71,69,76,81,83,82,85,88,88,93,96,104,111,121,135,148,160,158,161,160,145,132
2019-05-15,15:44:16.201,115,99,89,84,79,77,75,76,73,72,73,71,74,76,77,78,75,74,74,73,73,75,73,74,72,74,68,65,64,61,63,64,65,67,68,62,63,64,63,61,63,61,61,58,58,59,60,57,59,53,60,60,55,54,57,56,58,56,54,55,51,51,52,52,54,52,52,60,63,66,75,92,92,90,85,63,55,58,55,48,47,17,-47,-130,-101,329,885,1108,487,-45,-165,-116,-36,9,22,29,29,33,39,42,44,52,52,56,60,65,69,70,72,79,85,98,112,126,145,160,168,177,183,183,171,146,120,101,86,72,59,52
2019-05-15,15:44:17.229,41,39,38,34,40,40,39,42,39,40,39,42,42,40,39,38,39,38,36,36,32,29,31,29,27,29,28,29,28,23,28,29,27,30,28,25,25,30,29,27,28,26,30,33,32,29,29,30,31,31,29,27,30,27,29,30,33,36,42,42,45,64,79,78,77,74,54,40,41,38,42,41,8,-65,-141,-83,374,925,1095,449,-60,-162,-98,-19,16,20,28,33,39,43,44,43,48,53,58,61,65,67,71,74,75,83,89,100,111,121,136,146,155,161,163,157,141,120,103,86,72,62,54,53,53,49,47,48,46,45,45,45
2019-05-15,15:44:18.257,49,48,50,46,48,47,46,48,47,44,42,41,42,41,43,44,39,40,42,43,39,42,39,40,40,36,34,34,31,33,35,34,31,30,32,33,34,34,34,35,36,34,36,33,33,33,36,40,37,37,41,46,48,59,75,79,78,76,66,47,42,42,42,41,21,-37,-132,-157,181,762,1196,813,86,-156,-121,-38,9,13,18,24,31,29,32,36,40,41,42,47,50,57,62,63,62,60,67,74,82,94,102,119,130,137,144,142,132,115,96,81,67,57,49,44,45,44,43,42,37,35,37,36,40,40,41,40,41,42,41,40
2019-05-15,15:44:19.285,42,43,39,36,35,30,28,29,29,28,26,31,32,32,29,32,29,29,30,30,27,30,31,30,31,30,29,30,31,32,34,36,35,33,33,34,40,36,36,34,35,31,36,37,43,46,59,69,74,75,72,53,44,42,39,36,31,1,-77,-153,-88,409,993,1197,503,-57,-156,-80,-5,13,21,25,27,36,33,32,38,41,47,49,47,54,55,61,62,64,66,69,70,78,91,102,118,129,135,138,135,126,108,92,79,67,58,56,51,48,47,40,39,37,39,38,40,40,42,42,40,41,44,40,37,40,38,35,40,39,36,32
2019-05-15,15:44:20.313,31,31,28,29,28,28,30,31,33,32,31,33,34,35,36,33,31,32,32,33,32,32,34,31,34,34,33,32,33,34,33,31,29,30,28,30,30,33,37,41,55,65,67,64,63,52,31,30,29,26,23,8,-41,-134,-179,112,673,1120,791,81,-168,-163,-80,-20,-6,2,6,12,15,18,21,25,27,27,32,36,38,41,42,46,47,57,66,75,94,107,124,137,138,136,137,118,91,67,49,31,20,10,6,-1,1,-1,-1,-7,-13,-10,-10,-10,-10,-12,-7,-6,-13,-15,-13,-18,-19,-23,-26,-32,-31,-31,-30,-31,-31,-34,-32,-34
2019-05-15,15:44:21.341,-37,-40,-37,-37,-41,-45,-50,-52,-48,-52,-51,-54,-53,-52,-54,-57,-59,-57,-57,-57,-61,-58,-61,-62,-55,-52,-53,-37,-23,-27,-29,-29,-41,-60,-64,-63,-64,-67,-83,-128,-199,-219,85,563,815,363,-141,-279,-252,-165,-115,-99,-88,-78,-74,-69,-64,-63,-61,-60,-53,-51,-46,-45,-35,-30,-26,-16,-4,16,30,45,61,70,81,90,81,66,40,14,-10,-32,-52,-65,-73,-79,-86,-89,-91,-91,-89,-86,-84,-90,-86,-83,-85,-83,-84,-81,-84,-84,-85,-86,-85,-90,-91,-94,-98,-94,-95,-94,-98,-96,-97,-98,-93,-94,-100,-105,-100,-104,-110,-110,-110,-109,-111,-110
2019-05-15,15:44:22.369,-101,-103,-101,-97,-96,-95,-88,-76,-62,-66,-68,-70,-85,-98,-100,-99,-100,-100,-125,-171,-232,-220,126,556,677,171,-222,-293,-258,-195,-137,-119,-111,-105,-104,-102,-96,-94,-84,-72,-71,-73,-73,-64,-59,-53,-42,-24,-12,-1,26,42,41,52,68,71,72,63,57,38,-3,-53,-72,-82,-86,-85,-72,-61,-52,-54,-55,-36,-61,-69,-60,-55,-48,-43,-28,-30,-32,-27,-28,-25,-24,-18,-16,-12,-6,-11,-8,-6,-5,-2,-1,-1,5,8,11,10,9,13,18,16,19,21,23,26,24,26,35,30,31,52,59,55,59,62,52,32,29,29,28,25,1,-60,-119,-59
2019-05-15,15:44:23.397,354,812,853,284,-111,-180,-105,-19,24,31,42,49,56,61,64,68,71,72,76,80,84,91,100,103,110,120,132,146,165,184,201,208,220,224,224,207,183,158,138,119,97,87,85,81,80,75,72,71,70,70,72,71,77,80,80,79,83,84,85,85,83,82,84,81,79,81,81,79,79,77,82,79,79,81,82,84,83,80,77,74,74,77,79,81,79,77,75,75,77,81,82,93,105,118,117,122,119,97,85,84,85,82,77,53,-17,-90,-44,409,923,1046,444,-44,-132,-51,34,61,60,76,81,82,89,94,92,88,94,102,103,103
2019-05-15,15:44:24.425,103,105,108,109,116,122,134,148,162,174,186,198,209,210,198,179,160,138,121,107,99,89,86,85,86,85,82,85,85,84,82,81,84,89,88,85,84,85,87,84,83,85,82,84,84,86,85,84,82,81,79,82,82,85,84,84,84,80,79,80,82,76,78,81,77,80,79,80,79,86,83,85,83,86,92,99,104,112,124,127,128,127,108,93,93,92,95,92,70,14,-80,-98,253,830,1207,794,105,-106,-55,34,67,66,75,79,85,87,90,95,96,99,101,107,113,107,106,107,108,111,118,127,135,147,159,172,183,195,199,201
2019-05-15,15:44:25.453,189,177,162,143,129,119,112,111,106,101,103,103,99,100,98,96,97,95,95,96,98,99,101,101,99,97,96,97,98,97,96,95,94,94,94,92,91,90,90,88,91,91,90,90,93,93,93,92,95,94,94,94,87,91,88,93,93,93,92,90,93,93,92,91,88,93,98,99,109,119,130,130,126,127,106,93,90,89,89,84,58,1,-85,-92,289,858,1189,688,51,-131,-82,10,51,57,66,73,75,74,81,82,88,93,96,93,96,101,104,109,110,117,122,128,144,162,175,189,200,210,217,208,194,170,149,131,115,105,96,89
2019-05-15,15:44:26.481,89,88,90,88,86,89,87,86,87,84,89,88,88,91,87,89,90,84,82,83,83,78,76,75,77,80,77,76,78,78,76,79,74,75,77,75,74,74,78,75,76,75,77,74,72,71,74,71,74,74,74,71,69,70,80,85,93,106,116,124,124,121,115,94,85,88,81,63,53,15,-68,-131,-4,498,1009,1015,309,-100,-140,-55,22,38,42,52,55,61,64,69,70,75,76,79,84,84,89,94,97,102,108,113,122,134,147,163,175,185,185,188,186,167,151,132,119,105,93,86,83,84,78,81,82,81,80,80,81,82,86,85
2019-05-15,15:44:27.509,89,91,73,70,72,79,77,76,74,73,72,73,74,74,73,69,70,67,74,71,69,64,64,60,63,64,66,65,62,61,58,63,61,57,60,61,61,61,63,64,61,60,59,64,70,75,73,86,100,102,100,97,87,70,69,63,63,63,44,-4,-90,-137,129,678,1127,842,125,-144,-126,-36,22,30,38,39,47,49,55,59,59,60,57,64,68,74,77,80,84,91,92,99,107,119,134,148,166,171,173,170,160,144,122,102,81,72,60,55,49,49,47,44,42,44,42,43,46,49,46,45,43,42,38,39,38,40,37,38,34,35
2019-05-15,15:44:28.537,30,32,28,31,29,24,27,24,22,21,18,20,20,21,23,21,16,14,18,19,17,14,16,17,15,15,10,11,18,19,18,23,38,43,42,39,30,12,1,0,-3,-4,-10,-39,-112,-174,-28,417,836,674,64,-202,-230,-151,-77,-33,-23,-12,-6,-3,2,6,12,17,16,25,29,34,41,47,49,54,62,77,88,107,123,143,158,161,161,156,141,116,85,61,40,27,13,7,5,1,-1,0,1,4,7,-1,-5,-4,-5,-6,-4,-7,-7,-11,-14,-17,-20,-23,-22,-25,-25,-28,-29,-30,-27,-29,-31,-33,-35,-30,-31,-32,-28,-32,-32,-30
2019-05-15,15:44:29.565,-29,-27,-26,-23,-25,-26,-25,-27,-25,-20,-16,-3,6,7,11,9,-3,-19,-18,-20,-16,-24,-40,-79,-149,-168,117,566,791,355,-118,-245,-221,-130,-66,-42,-33,-22,-14,-7,-6,0,3,6,6,15,19,24,27,32,38,47,58,68,82,101,116,130,141,143,140,124,107,76,52,34,18,6,2,-4,-6,-10,-12,-11,-13,-14,-9,-11,-11,-9,-5,-4,-6,-5,-3,-2,-8,-13,-12,-14,-10,-11,-11,-10,-13,-14,-14,-14,-12,-14,-15,-10,-13,-11,-12,-13,-13,-14,-20,-21,-17,-16,-14,-10,-5,-7,4,15,20,22,24,18,-1,-12,-13,-8,-9,-20
2019-05-15,15:44:30.593,-54,-121,-178,-82,368,806,762,159,-196,-230,-145,-61,-35,-30,-20,-13,-8,-3,-1,-2,-1,6,11,13,18,19,22,29,31,36,46,55,69,84,102,111,121,131,131,121,99,78,59,39,25,14,11,8,6,2,4,2,-1,-2,-4,-1,0,6,9,7,7,11,12,7,6,7,10,6,-1,3,3,4,7,5,6,4,2,5,2,3,4,4,1,2,3,5,6,4,1,3,-1,0,5,8,13,20,32,45,48,47,48,39,17,12,8,7,6,-1,-40,-115,-164,16,510,922,766,114,-188,-172,-78,-12,-5,0,4,7,14,19,19,21
2019-05-15,15:44:31.621,17,22,27,25,26,29,34,42,49,47,53,70,82,99,108,120,106,114,102,76,53,36,25,16,-5,-4,-20,-43,-40,-37,-35,-42,-38,-30,-27,-36,-31,-27,-32,-31,-33,-30,-27,-27,-26,-22,-30,-30,-31,-42,-41,-35,-41,-38,-42,-39,-33,-31,-35,-24,-10,-11,-11,-6,0,2,-4,-1,1,-2,4,15,15,19,23,25,31,36,34,33,44,55,63,66,77,79,82,106,104,94,106,107,86,78,78,73,72,70,23,-63,-114,88,620,1074,894,171,-134,-108,-5,57,61,61,74,85,76,68,80,86,82,83,94,103,110,110,104,109,103,95
2019-05-15,15:44:32.649,109,117,124,141,162,178,196,198,197,180,167,150,135,123,111,105,103,111,122,102,89,90,100,99,94,104,118,117,111,122,128,112,113,113,119,111,112,116,118,113,119,120,115,114,117,120,127,130,125,114,109,114,118,123,128,115,116,126,123,110,107,115,116,118,121,119,115,120,123,115,105,103,115,116,118,131,145,150,156,157,158,129,120,118,125,114,105,90,26,-71,-74,340,903,1214,679,37,-115,-39,57,86,90,98,106,113,115,125,130,139,134,127,122,130,146,140,141,145,152,157,157,173,200,211,202,209,225,223,225,222
2019-05-15,15:44:33.677,191,174,160,142,138,139,116,112,114,130,101,98,101,111,108,105,112,114,107,104,108,96,91,92,97,100,105,105,100,98,101,112,99,91,97,99,104,106,105,104,99,106,100,102,101,99,113,117,98,104,96,97,96,94,98,103,104,105,106,93,92,111,109,101,99,102,104,122,142,142,135,139,124,112,117,114,106,106,86,41,-43,-84,203,741,1132,718,53,-152,-114,-1,80,103,112,121,132,121,127,138,144,136,134,142,153,165,157,144,143,155,174,171,177,194,210,233,240,238,257,253,233,212,183,152,123,109,100,94,100,111
2019-05-15,15:44:34.705,100,98,113,119,87,75,85,90,90,96,98,104,103,109,115,105,99,96,91,93,103,101,99,113,116,105,99,107,107,93,102,97,99,101,96,95,96,83,80,92,90,86,89,89,86,96,100,93,97,113,109,110,116,134,132,133,131,120,103,101,103,111,108,70,-7,-70,65,559,1029,939,251,-108,-148,-46,48,85,87,91,104,110,104,103,110,113,114,112,126,127,111,121,133,132,146,153,161,177,190,200,209,217,217,211,205,191,164,139,119,102,86,87,80,75,72,77,81,71,69,75,72,72,74,59,57,59,59,55,60,74
2019-05-15,15:44:35.733,61,62,52,51,41,34,40,47,47,44,28,55,73,48,45,45,40,38,44,41,41,44,41,47,37,34,38,45,34,39,33,35,42,48,41,45,54,59,60,67,82,69,70,79,63,39,39,41,43,39,13,-59,-149,-109,358,926,1122,453,-91,-185,-103,-2,28,24,33,39,41,47,52,54,62,64,67,67,69,74,76,78,83,89,94,97,108,119,129,140,148,151,154,151,143,126,110,104,80,73,63,55,53,51,53,53,51,49,52,51,51,50,48,48,46,47,44,45,49,51,45,47,40,42,39,36,39,39,38,36,39,37
2019-05-15,15:44:36.761,37,37,37,33,34,35,32,33,34,32,30,29,28,26,24,21,20,24,22,19,20,20,25,29,34,40,50,50,47,36,16,7,7,5,0,-5,-38,-121,-196,-117,371,918,988,276,-172,-233,-149,-70,-40,-36,-32,-26,-20,-16,-15,-15,-10,-3,3,8,10,14,19,24,27,31,40,51,61,81,89,101,107,108,105,96,80,55,35,11,-4,-14,-21,-28,-25,-28,-34,-39,-51,-50,-47,-48,-42,-42,-44,-46,-48,-45,-45,-48,-50,-49,-48,-48,-52,-51,-57,-60,-56,-60,-60,-61,-60,-62,-64,-69,-74,-75,-72,-73,-78,-81,-83,-81,-81,-87,-86,-81
2019-05-15,15:44:37.789,-81,-81,-86,-84,-81,-79,-73,-71,-57,-47,-50,-55,-60,-82,-91,-90,-94,-99,-102,-133,-200,-260,-176,251,682,638,37,-287,-332,-265,-186,-144,-134,-126,-118,-110,-111,-102,-96,-102,-95,-93,-90,-89,-75,-66,-73,-64,-50,-35,-22,-8,13,26,37,43,47,44,29,4,-23,-45,-62,-83,-99,-107,-110,-113,-114,-113,-112,-109,-111,-111,-112,-113,-112,-114,-109,-109,-106,-109,-112,-113,-112,-116,-119,-120,-118,-118,-119,-116,-120,-120,-123,-124,-129,-126,-127,-122,-120,-126,-126,-127,-124,-123,-130,-126,-129,-132,-129,-130,-122,-116,-108,-101,-93,-92,-98,-101,-108,-121,-119,-127,-126,-132,-163,-229
2019-05-15,15:44:38.817,-280,-175,264,692,645,41,-300,-325,-239,-158,-137,-128,-117,-110,-107,-103,-96,-92,-89,-86,-84,-80,-73,-65,-60,-52,-45,-44,-34,-23,-8,3,21,35,46,53,52,43,27,6,-15,-29,-41,-56,-63,-65,-69,-68,-68,-65,-64,-63,-62,-58,-56,-57,-56,-54,-52,-48,-46,-41,-42,-49,-47,-48,-50,-51,-49,-56,-51,-51,-51,-47,-48,-49,-51,-49,-49,-45,-42,-43,-45,-42,-35,-34,-36,-37,-35,-40,-43,-42,-38,-29,-18,-12,-9,3,10,18,18,17,-1,-19,-21,-18,-21,-25,-43,-91,-166,-179,147,650,951,525,-73,-226,-155,-66,-29,-23,-18,-8,-5,2,6,7
2019-05-15,15:44:39.845,11,16,15,18,23,30,38,40,47,53,56,63,74,88,98,113,133,138,142,144,131,113,94,83,69,55,46,39,39,36,39,40,38,37,37,37,36,37,38,40,43,44,42,39,44,42,43,39,36,43,46,46,44,42,41,39,43,48,49,46,47,52,48,48,47,47,45,47,46,42,45,47,46,45,42,45,47,48,49,52,59,64,67,75,87,97,98,96,90,65,58,61,56,55,51,19,-55,-125,-55,401,928,1045,379,-87,-147,-64,15,24,26,31,38,46,48,52,53,55,56,60,66,67,72,76,78,79,82,95,96,102
2019-05-15,15:44:40.873,113,129,139,151,157,162,157,142,126,110,96,80,70,65,61,57,56,53,57,53,50,50,51,54,52,48,49,51,50,49,49,47,44,47,42,44,44,45,45,44,44,45,48,43,43,45,42,38,38,39,42,39,44,44,41,40,41,43,42,47,45,45,42,41,42,46,43,44,43,49,54,58,67,79,81,83,82,71,52,52,49,46,49,34,-8,-96,-148,86,621,1097,883,147,-144,-122,-33,20,16,25,28,32,38,41,41,43,50,50,48,53,57,61,61,62,64,71,77,84,90,103,119,127,137,142,146,139,125,107,90,75
2019-05-15,15:44:41.901,61,51,46,45,39,37,42,37,34,33,34,31,32,32,29,31,32,32,27,28,30,29,25,24,21,19,18,17,18,16,16,18,19,17,17,14,14,15,12,15,15,11,10,7,8,6,7,10,8,9,6,3,6,8,6,12,10,17,26,40,41,38,34,5,0,-3,-4,-5,-10,-41,-105,-170,-93,339,809,801,168,-186,-236,-166,-87,-37,-26,-19,-15,-12,-10,-8,-2,-5,0,2,9,15,18,21,28,38,45,51,65,81,97,109,120,132,135,131,116,93,69,48,19,6,-4,-17,-19,-27,-32,-32,-31,-34,-24,-20,-29,-30,-28,-30
2019-05-15,15:44:42.929,-33,-36,-35,-42,-44,-45,-52,-55,-55,-57,-61,-59,-61,-66,-65,-66,-67,-71,-68,-71,-69,-71,-73,-70,-72,-78,-78,-75,-76,-78,-76,-77,-78,-77,-74,-71,-69,-66,-53,-38,-37,-35,-44,-63,-77,-76,-73,-76,-80,-104,-164,-224,-181,194,616,679,130,-239,-306,-251,-172,-117,-104,-93,-92,-88,-81,-76,-74,-70,-64,-57,-50,-47,-41,-33,-26,-18,-9,0,13,32,47,59,73,83,88,80,70,50,23,-2,-16,-32,-43,-53,-56,-60,-57,-60,-61,-59,-58,-58,-57,-60,-57,-56,-60,-61,-61,-63,-69,-67,-72,-74,-77,-83,-86,-85,-85,-87,-88,-88,-90,-90,-92,-90
2019-05-15,15:44:43.957,-97,-95,-97,-96,-96,-97,-98,-96,-98,-100,-95,-94,-89,-87,-86,-74,-58,-50,-49,-51,-56,-81,-86,-84,-89,-93,-96,-128,-192,-253,-176,255,719,751,161,-236,-295,-212,-136,-105,-99,-93,-87,-81,-76,-71,-66,-61,-61,-57,-54,-46,-40,-34,-27,-26,-20,-11,1,18,30,45,64,74,79,79,74,57,37,19,-4,-19,-25,-32,-37,-38,-45,-47,-49,-51,-48,-43,-42,-41,-39,-40,-37,-35,-37,-41,-39,-37,-36,-37,-40,-41,-42,-43,-44,-46,-43,-41,-35,-32,-26,-18,-26,-38,-53,-53,-45,-44,-35,-29,-30,-36,-34,-28,-36,-29,-14,-1,8,9,10,0,-19,-24
2019-05-15,15:44:44.985,-33,-39,-36,-54,-94,-179,-221,22,536,954,700,27,-249,-227,-134,-72,-62,-54,-50,-40,-31,-30,-44,-46,-36,-28,-18,-14,-9,4,10,18,11,13,20,36,56,73,93,117,122,122,123,111,94,79,62,48,36,38,32,36,36,40,38,31,25,22,23,33,37,36,35,38,40,42,45,48,53,55,44,45,49,42,35,39,44,43,44,41,45,45,38,41,44,42,49,52,50,46,53,48,47,48,51,52,47,48,61,63,59,72,86,103,95,96,87,68,64,62,62,63,56,10,-70,-133,15,531,1037,968,250,-123,-144,-48,29,39,37,44
2019-05-15,15:44:46.013,47,51,52,57,64,69,75,80,79,72,74,73,76,81,88,98,106,122,131,146,168,167,171,176,170,153,133,114,96,80,67,60,55,53,55,53,47,46,49,51,51,53,61,60,53,39,32,31,30,30,30,31,31,35,30,20,23,25,20,6,9,17,20,16,13,16,20,16,12,14,9,5,7,7,3,7,9,15,4,1,-2,-9,-3,2,4,24,31,37,37,24,5,-8,-10,-12,-19,-19,-36,-84,-157,-179,169,700,978,488,-91,-245,-191,-97,-43,-39,-37,-27,-19,-23,-20,-10,-8,-11,-8,3,11,14,13,23,26,22,24,36
2019-05-15,15:44:47.041,48,65,85,107,115,116,117,116,109,83,67,48,27,15,12,-4,-5,-6,-10,-12,-9,-7,-3,1,5,4,6,12,9,6,2,1,-1,-1,-1,-5,0,10,4,-7,-14,-12,-11,-13,-10,-6,-8,-3,11,9,-5,-8,-6,-1,-8,-5,-3,-4,-6,-13,-14,-2,-3,-6,-8,-11,-9,-6,-7,-9,-1,6,0,13,28,32,25,24,9,-1,-2,-5,-6,-15,-29,-75,-160,-205,59,580,975,648,-6,-229,-207,-121,-64,-49,-42,-37,-29,-24,-23,-16,-6,-11,-15,-20,-14,-7,-6,1,12,17,20,33,36,41,58,77,89,103,108,111,98,74,56,31
2019-05-15,15:44:48.069,12,1,-5,-10,-12,-17,-19,-18,-23,-16,-20,-23,-25,-24,-26,-26,-24,-25,-22,-19,-20,-31,-32,-31,-36,-39,-39,-41,-42,-37,-40,-44,-48,-41,-31,-31,-43,-51,-48,-45,-43,-34,-37,-32,-26,-32,-45,-53,-52,-44,-41,-44,-30,-24,-39,-34,-29,-38,-32,-15,2,10,13,10,-10,-32,-33,-29,-32,-35,-54,-115,-183,-191,157,652,876,377,-132,-262,-221,-126,-66,-48,-43,-34,-25,-25,-22,-20,-17,-11,-3,-1,-1,-2,4,10,19,21,31,39,51,64,78,89,93,108,116,107,83,60,41,15,-13,-31,-37,-44,-43,-45,-52,-50,-54,-60,-56,-54,-55,-57
2019-05-15,15:44:49.097,-44,-52,-63,-67,-63,-63,-66,-64,-62,-65,-76,-74,-73,-59,-74,-80,-82,-87,-84,-83,-82,-82,-80,-82,-82,-79,-78,-83,-88,-87,-88,-88,-83,-85,-80,-80,-87,-90,-88,-88,-94,-91,-89,-89,-75,-72,-70,-67,-63,-51,-51,-54,-56,-72,-79,-82,-89,-96,-97,-127,-202,-265,-183,284,790,836,181,-251,-308,-219,-135,-115,-108,-96,-85,-86,-88,-86,-80,-79,-74,-69,-64,-58,-51,-40,-39,-39,-30,-24,-18,-3,15,32,48,57,60,70,74,61,37,20,-2,-16,-25,-33,-36,-39,-34,-34,-32,-23,-7,1,9,14,20,18,15,12,8,13,19,16,17,24,24,12
2019-05-15,15:44:50.125,6,11,13,15,15,25,22,18,19,18,18,23,23,31,39,35,30,35,33,32,37,39,39,38,41,43,53,57,51,47,50,48,49,50,58,58,69,75,82,98,101,97,100,86,73,66,69,68,72,53,-1,-88,-109,238,781,1116,665,37,-143,-97,-3,57,64,60,75,82,85,83,87,94,95,101,101,106,113,114,119,123,126,136,141,153,174,188,198,206,218,224,225,211,195,174,149,128,112,99,91,87,89,88,83,81,79,85,81,86,87,84,81,84,88,80,78,82,80,78,78,76,76,74,72,74,75,72,70,69,64,59
2019-05-15,15:44:51.153,59,59,62,60,57,61,61,57,47,50,55,50,49,51,48,46,45,37,44,39,46,45,48,52,57,72,78,71,72,57,42,35,37,43,35,10,-52,-113,-72,317,764,798,223,-150,-214,-148,-58,-5,9,20,19,17,14,28,37,36,38,41,54,49,51,56,62,69,83,100,107,119,134,150,165,173,179,174,168,147,121,91,75,57,40,22,14,14,10,9,7,11,17,15,9,5,10,7,4,10,17,10,5,6,-2,-3,1,-5,-6,6,-3,-4,-15,-23,-25,-17,-12,-7,-9,-9,-8,-3,-10,-13,-16,-6,-16,-24,-22,-25,-19,-15
2019-05-15,15:44:52.181,-14,-18,-19,-17,-8,-1,-8,-10,-8,7,13,11,14,3,-8,-18,-20,-14,-24,-52,-95,-160,-154,203,664,837,336,-142,-252,-183,-90,-46,-38,-23,-26,-27,-18,-19,-20,-16,-14,-11,0,2,2,10,16,19,23,33,42,43,61,78,89,104,114,116,111,99,84,57,22,7,-1,-14,-25,-24,-20,-26,-28,-28,-31,-34,-32,-33,-34,-35,-33,-34,-33,-30,-24,-32,-35,-36,-34,-42,-44,-37,-44,-50,-50,-43,-45,-43,-44,-46,-44,-47,-56,-55,-46,-45,-52,-51,-52,-55,-52,-56,-57,-52,-46,-49,-44,-49,-48,-48,-54,-56,-50,-40,-46,-44,-28,-20,-21,-25
2019-05-15,15:44:53.209,-33,-41,-55,-56,-57,-60,-67,-90,-149,-218,-183,229,716,843,276,-191,-272,-190,-96,-77,-80,-68,-55,-54,-60,-58,-47,-57,-58,-53,-46,-41,-43,-39,-26,-27,-31,-25,-14,-5,7,26,41,45,59,66,69,53,36,14,-6,-22,-36,-49,-59,-62,-64,-70,-70,-76,-73,-72,-72,-68,-63,-73,-79,-71,-66,-70,-76,-72,-73,-70,-71,-76,-81,-86,-80,-77,-85,-82,-83,-77,-67,-75,-80,-82,-90,-87,-84,-82,-86,-82,-79,-74,-77,-89,-92,-85,-89,-88,-84,-80,-78,-79,-82,-79,-75,-70,-65,-54,-51,-53,-51,-58,-75,-76,-88,-84,-91,-117,-173,-241,-222,159,649,793
2019-05-15,15:44:54.237,240,-208,-317,-261,-170,-113,-98,-99,-94,-87,-76,-74,-71,-70,-58,-58,-57,-54,-48,-43,-39,-33,-25,-20,-10,-4,8,29,45,61,66,67,58,44,24,5,-20,-41,-53,-63,-65,-68,-76,-80,-78,-75,-71,-69,-70,-75,-74,-74,-74,-71,-71,-69,-69,-73,-76,-68,-62,-75,-76,-75,-73,-74,-74,-77,-75,-74,-72,-72,-70,-72,-70,-76,-83,-85,-83,-84,-79,-79,-75,-77,-70,-69,-82,-86,-88,-91,-90,-87,-85,-89,-85,-79,-77,-77,-75,-74,-74,-66,-51,-52,-57,-58,-69,-74,-81,-87,-90,-107,-141,-223,-267,-56,442,853,656,-14,-289,-261,-171,-124,-117,-107,-99,-95
2019-05-15,15:44:55.265,-80,-86,-98,-99,-91,-91,-92,-89,-86,-81,-78,-78,-71,-73,-75,-67,-57,-47,-33,-19,-10,0,5,6,-4,-22,-53,-68,-77,-91,-99,-103,-102,-99,-94,-95,-102,-107,-102,-109,-108,-107,-104,-106,-103,-101,-97,-95,-98,-97,-93,-99,-100,-103,-108,-104,-94,-89,-97,-99,-91,-89,-83,-87,-91,-90,-89,-87,-83,-79,-73,-63,-56,-61,-75,-68,-66,-75,-74,-73,-73,-69,-63,-59,-60,-61,-46,-38,-44,-43,-31,-17,-18,-16,-23,-39,-43,-37,-49,-54,-68,-117,-200,-219,110,644,1017,620,-40,-228,-162,-82,-57,-52,-43,-43,-30,-25,-24,-27,-26,-20,-14,-15,-16,-14,-13,-14
2019-05-15,15:44:56.294,-11,-9,-4,-3,4,8,16,26,42,41,47,54,59,45,35,23,4,-8,-20,-21,-23,-33,-29,-33,-36,-39,-37,-39,-38,-40,-36,-38,-40,-45,-52,-58,-58,-60,-57,-59,-62,-55,-64,-67,-63,-69,-71,-70,-71,-68,-71,-80,-85,-82,-80,-84,-80,-74,-82,-79,-85,-87,-85,-82,-83,-86,-95,-95,-94,-98,-101,-98,-96,-101,-93,-87,-84,-77,-66,-67,-68,-83,-108,-113,-117,-116,-119,-133,-176,-264,-317,-135,381,888,783,27,-323,-313,-224,-167,-165,-159,-151,-154,-160,-154,-147,-137,-139,-140,-140,-135,-132,-131,-133,-135,-130,-132,-138,-132,-118,-114,-102,-91,-90,-85,-77,-75
2019-05-15,15:44:57.322,-84,-102,-117,-129,-145,-153,-158,-163,-169,-163,-168,-172,-174,-174,-182,-186,-192,-190,-187,-193,-195,-199,-205,-206,-208,-207,-210,-212,-219,-221,-224,-223,-233,-239,-236,-235,-232,-236,-239,-238,-237,-238,-238,-239,-245,-243,-244,-249,-248,-247,-251,-249,-254,-256,-250,-249,-254,-251,-248,-221,-204,-186,-208,-231,-242,-266,-260,-253,-253,-261,-269,-311,-387,-433,-181,329,740,394,-264,-486,-471,-370,-302,-294,-285,-279,-280,-272,-268,-262,-259,-260,-249,-239,-241,-246,-240,-234,-226,-218,-213,-204,-184,-175,-164,-151,-139,-140,-130,-128,-140,-163,-188,-204,-224,-242,-248,-256,-263,-265,-271,-276,-277,-285,-288,-287,-281,-282
2019-05-15,15:44:58.350,-279,-274,-269,-275,-285,-288,-293,-296,-296,-298,-302,-296,-294,-296,-297,-298,-300,-298,-297,-296,-291,-287,-287,-293,-298,-305,-303,-299,-296,-286,-277,-271,-270,-267,-265,-253,-235,-209,-209,-224,-236,-247,-257,-260,-256,-239,-247,-290,-370,-436,-353,108,614,666,-16,-416,-478,-396,-317,-291,-274,-260,-257,-249,-243,-241,-233,-222,-222,-220,-215,-216,-214,-207,-191,-189,-185,-176,-164,-153,-135,-123,-111,-101,-93,-93,-103,-123,-147,-163,-174,-189,-202,-204,-208,-211,-209,-212,-215,-211,-210,-209,-208,-204,-198,-203,-197,-198,-204,-212,-217,-215,-218,-220,-218,-221,-218,-220,-225,-223,-215,-212,-222,-221,-214,-221,-225,-222
2019-05-15,15:44:59.378,-225,-227,-224,-227,-220,-222,-224,-208,-200,-198,-185,-180,-179,-179,-192,-209,-214,-217,-226,-222,-230,-263,-337,-412,-304,173,691,709,10,-391,-440,-350,-273,-240,-235,-238,-228,-220,-216,-213,-212,-204,-206,-203,-199,-190,-165,-162,-138,-154,-206,-200,-179,-165,-150,-134,-115,-111,-105,-103,-118,-133,-163,-174,-194,-211,-217,-229,-230,-227,-237,-239,-237,-242,-237,-227,-229,-236,-241,-241,-235,-240,-245,-251,-254,-254,-254,-262,-258,-260,-263,-267,-266,-270,-269,-267,-265,-268,-264,-274,-278,-280,-280,-277,-276,-275,-274,-268,-264,-267,-264,-249,-244,-243,-242,-255,-279,-286,-288,-285,-290,-314,-356,-439,-494,-275,252,718
2019-05-15,15:45:00.406,484,-216,-499,-499,-410,-344,-322,-323,-314,-311,-304,-301,-301,-290,-288,-289,-293,-290,-283,-275,-267,-263,-261,-247,-237,-229,-222,-197,-186,-168,-152,-151,-153,-170,-199,-216,-245,-269,-283,-290,-294,-301,-305,-298,-301,-300,-305,-304,-299,-299,-301,-302,-297,-297,-293,-291,-293,-298,-298,-301,-304,-307,-303,-296,-311,-306,-303,-308,-305,-304,-302,-307,-311,-311,-311,-305,-304,-301,-291,-284,-274,-266,-263,-260,-259,-269,-293,-299,-297,-292,-300,-314,-343,-425,-487,-342,141,635,547,-147,-487,-519,-428,-350,-319,-312,-302,-295,-278,-274,-277,-277,-278,-277,-270,-263,-258,-248,-241,-237,-235,-219,-217,-205,-183,-167,-155,-144
2019-05-15,15:45:01.434,-139,-128,-131,-146,-165,-187,-204,-226,-238,-244,-251,-260,-262,-264,-262,-259,-263,-259,-257,-259,-258,-262,-256,-253,-257,-259,-251,-250,-257,-263,-267,-271,-267,-260,-257,-264,-262,-257,-256,-253,-244,-241,-255,-258,-260,-261,-263,-258,-257,-255,-251,-240,-238,-237,-230,-220,-208,-206,-208,-214,-232,-242,-241,-238,-237,-242,-274,-341,-428,-407,29,592,864,259,-312,-444,-390,-306,-273,-267,-251,-245,-236,-225,-234,-235,-227,-226,-221,-213,-207,-204,-199,-189,-185,-191,-182,-162,-152,-147,-133,-120,-109,-98,-93,-98,-110,-127,-143,-160,-180,-183,-190,-206,-205,-204,-205,-208,-207,-203,-201,-204,-195,-197,-194,-202,-206,-209
2019-05-15,15:45:02.462,-197,-196,-194,-197,-198,-194,-192,-193,-200,-202,-196,-197,-195,-197,-193,-191,-196,-201,-197,-200,-201,-200,-199,-198,-188,-190,-195,-194,-182,-177,-177,-163,-156,-160,-155,-148,-159,-185,-186,-186,-189,-185,-202,-247,-341,-405,-186,371,907,726,-36,-373,-388,-297,-230,-210,-205,-196,-186,-180,-178,-175,-168,-165,-158,-159,-162,-159,-148,-146,-138,-130,-124,-116,-99,-84,-70,-53,-42,-34,-27,-23,-35,-52,-78,-106,-123,-136,-144,-153,-159,-162,-157,-161,-163,-163,-162,-161,-158,-157,-162,-161,-159,-160,-159,-162,-163,-161,-162,-165,-169,-168,-170,-171,-174,-175,-175,-174,-171,-173,-178,-175,-177,-187,-184,-182,-184,-186
2019-05-15,15:45:03.490,-187,-190,-188,-189,-188,-183,-181,-166,-149,-151,-151,-153,-178,-192,-194,-196,-193,-193,-220,-281,-358,-375,-23,498,770,239,-294,-429,-406,-314,-253,-230,-219,-206,-199,-191,-187,-176,-184,-181,-176,-173,-168,-162,-155,-147,-136,-127,-115,-107,-86,-68,-45,-26,-18,-6,-10,-31,-60,-86,-116,-140,-160,-181,-188,-188,-199,-202,-197,-192,-198,-203,-200,-199,-198,-197,-201,-202,-201,-211,-216,-211,-214,-212,-214,-218,-219,-216,-222,-223,-221,-224,-226,-228,-223,-215,-225,-233,-233,-228,-230,-225,-226,-232,-224,-224,-221,-218,-212,-205,-196,-197,-201,-199,-210,-227,-230,-230,-236,-241,-263,-328,-382,-323,81,513,482,-94
2019-05-15,15:45:04.518,-410,-459,-389,-302,-251,-243,-231,-222,-219,-210,-210,-205,-204,-193,-197,-195,-192,-184,-176,-176,-161,-146,-135,-120,-102,-85,-67,-57,-46,-36,-40,-62,-87,-117,-133,-161,-182,-192,-200,-210,-212,-212,-211,-211,-213,-204,-204,-209,-205,-200,-208,-203,-204,-200,-198,-205,-205,-204,-207,-207,-204,-205,-203,-207,-210,-211,-206,-207,-209,-215,-215,-215,-217,-215,-213,-208,-202,-203,-201,-195,-188,-178,-170,-172,-173,-181,-204,-205,-206,-203,-211,-227,-270,-346,-379,-121,360,683,360,-193,-404,-393,-301,-234,-214,-208,-203,-199,-191,-181,-177,-173,-162,-161,-158,-159,-153,-147,-135,-132,-129,-111,-92,-80,-69,-51,-36,-23
2019-05-15,15:45:05.546,-10,-1,-12,-35,-57,-80,-108,-131,-146,-156,-152,-156,-158,-160,-170,-164,-168,-168,-161,-153,-141,-145,-149,-149,-150,-147,-150,-147,-144,-144,-143,-141,-142,-144,-145,-144,-151,-152,-152,-150,-148,-147,-148,-147,-146,-144,-147,-149,-149,-146,-148,-145,-136,-131,-127,-117,-104,-108,-103,-104,-124,-140,-144,-145,-145,-146,-164,-221,-298,-303,58,565,793,331,-210,-352,-292,-201,-165,-164,-150,-141,-140,-141,-135,-134,-132,-130,-129,-127,-125,-117,-116,-110,-108,-98,-90,-87,-74,-60,-44,-31,-15,-6,4,3,-14,-37,-62,-92,-109,-119,-131,-136,-140,-138,-143,-149,-147,-146,-143,-139,-142,-140,-133,-137,-140,-139
2019-05-15,15:45:06.574,-136,-142,-146,-151,-149,-149,-153,-152,-147,-148,-147,-149,-149,-152,-149,-146,-146,-148,-155,-153,-154,-153,-150,-144,-143,-152,-157,-153,-144,-139,-144,-141,-130,-121,-118,-110,-99,-91,-92,-89,-90,-101,-107,-111,-112,-110,-113,-125,-167,-248,-278,20,542,897,575,-64,-277,-226,-130,-96,-99,-97,-87,-85,-80,-83,-75,-74,-71,-73,-72,-62,-55,-50,-49,-46,-42,-38,-35,-23,-3,11,27,38,47,56,68,63,42,22,1,-16,-27,-38,-43,-42,-38,-44,-49,-47,-44,-47,-45,-41,-40,-39,-40,-39,-39,-43,-43,-44,-44,-45,-43,-38,-44,-43,-50,-44,-36,-38,-42,-41,-40,-36,-40,-43
2019-05-15,15:45:07.602,-47,-45,-43,-40,-40,-41,-38,-44,-45,-37,-35,-42,-48,-47,-46,-42,-37,-41,-43,-32,-20,-13,-7,-6,0,3,-5,-25,-32,-26,-31,-33,-43,-71,-132,-205,-144,295,801,877,264,-156,-231,-159,-79,-47,-39,-34,-27,-25,-19,-15,-15,-7,-2,-10,2,11,5,15,15,24,29,34,48,63,76,96,115,126,130,135,130,109,86,57,34,23,10,-1,-6,-11,-10,-11,-8,-7,-9,-5,-11,-16,-10,-5,-11,-11,-11,-11,-9,-17,-21,-22,-20,-19,-22,-19,-27,-22,-22,-27,-26,-23,-30,-26,-21,-26,-26,-27,-24,-25,-21,-26,-28,-30,-29,-29,-31,-29,-24,-29
2019-05-15,15:45:08.630,-22,-19,-21,-16,-16,-9,-2,-2,6,20,20,19,15,-2,-12,-12,-13,-12,-17,-46,-116,-186,-109,336,819,889,278,-139,-191,-116,-46,-29,-24,-15,-14,-8,-7,3,3,4,7,14,23,16,19,29,30,38,41,45,45,54,76,96,105,117,126,135,135,116,90,70,55,42,31,28,23,21,17,18,23,22,11,15,12,16,14,17,20,25,27,28,17,19,13,6,5,10,9,6,8,15,15,10,12,18,16,9,6,5,4,7,8,12,11,13,15,16,19,9,12,12,12,15,15,17,21,13,17,24,25,18,27,29,29,45,53,51
2019-05-15,15:45:09.658,45,43,29,26,28,22,17,5,-27,-99,-160,1,481,921,788,146,-152,-168,-87,-15,0,5,19,24,30,30,31,39,50,46,44,45,52,55,67,66,74,82,95,107,120,130,145,157,170,179,187,182,167,139,116,95,79,68,62,58,60,58,52,51,47,48,47,45,50,48,42,44,44,35,36,37,38,31,25,17,12,15,14,20,19,13,11,15,14,10,5,-1,0,5,3,5,5,7,13,7,-2,1,-2,-1,2,2,5,3,8,16,17,14,20,31,37,36,32,23,12,5,5,10,9,-17,-84,-152,-102,319,797,914,338,-109
2019-05-15,15:45:10.686,-177,-98,-25,-8,-7,0,8,12,15,18,24,37,36,37,46,52,55,61,69,67,72,86,89,100,110,133,155,165,169,176,178,163,141,129,114,95,80,70,73,74,74,73,67,74,74,69,68,75,74,76,72,81,80,79,76,74,70,63,66,64,65,68,73,67,57,55,57,53,48,54,61,65,72,82,82,85,83,79,81,89,94,86,94,93,90,88,87,87,89,93,99,109,110,116,127,135,130,132,133,117,109,112,104,98,93,63,-23,-86,64,550,1043,1007,308,-51,-66,24,85,90,92,95,101,108,107,103,106,113,115,121
2019-05-15,15:45:11.714,127,127,129,134,131,135,141,146,154,164,176,191,205,208,215,226,222,208,191,176,159,154,140,129,124,120,120,114,114,116,119,113,120,121,124,126,122,124,128,129,134,136,141,132,133,130,130,134,138,135,133,136,136,127,124,131,126,125,125,121,127,132,126,123,122,119,121,125,129,128,130,130,119,110,105,102,112,122,121,126,145,161,164,159,179,203,211,251,265,270,280,265,206,137,175,609,1148,1335,706,213,122,201,280,305,312,316,321,326,328,329,324,328,330,329,326,329,326,307,286,279,278,275,285,288,278,286,297,309
2019-05-15,15:45:12.742,315,314,311,291,277,256,235,219,208,203,190,184,177,172,179,183,188,189,177,176,187,189,179,175,171,169,167,166,167,164,165,159,144,145,154,157,142,145,151,146,149,163,157,151,157,158,165,162,159,158,157,165,159,154,165,169,159,164,169,172,183,199,198,205,208,184,164,170,168,166,165,154,111,33,-15,235,716,1069,707,134,-54,-35,39,113,145,155,164,163,164,167,173,177,175,177,185,190,197,203,200,204,210,217,228,245,262,276,293,303,313,320,313,294,273,248,224,210,192,177,177,174,174,173,174,177,184,181,181,180
2019-05-15,15:45:13.770,184,186,189,187,185,185,183,188,190,187,188,188,191,186,180,180,181,178,177,171,172,177,175,170,171,169,173,170,169,168,167,166,167,168,178,174,178,181,186,199,216,232,233,234,235,213,212,215,217,216,205,169,80,31,259,783,1224,1005,347,85,108,206,271,289,297,307,319,323,332,326,327,332,338,349,351,351,354,363,373,371,372,379,386,356,341,342,341,339,341,338,327,310,284,260,244,238,220,206,206,203,197,195,193,205,204,198,204,207,198,199,204,210,203,198,199,192,189,182,182,177,171,170,170,169,172,171,174,175
2019-05-15,15:45:14.798,172,168,169,169,162,163,166,167,162,161,166,168,165,161,164,172,183,184,185,192,204,212,215,207,186,169,166,167,167,159,135,81,-2,-17,339,883,1226,744,113,-46,22,110,133,134,144,154,157,160,161,165,167,170,177,179,184,187,192,195,195,200,208,216,227,237,243,260,272,277,285,286,272,252,240,224,208,197,189,182,177,169,159,162,165,161,159,159,160,163,157,158,153,156,152,152,153,145,145,144,137,139,139,140,129,132,138,136,137,135,131,135,136,135,133,132,137,132,133,134,136,135,129,130,134,131,125,126,136,140
2019-05-15,15:45:15.826,143,154,165,180,183,178,175,158,147,142,136,135,133,110,53,-35,-53,310,867,1238,739,101,-65,-13,78,112,112,118,118,121,122,130,127,130,140,143,142,148,151,156,157,154,155,162,175,176,188,205,215,226,232,243,241,236,219,193,175,159,145,133,124,121,120,122,125,116,118,118,116,121,114,110,112,109,113,110,105,103,103,103,104,96,94,94,94,96,92,93,93,87,93,91,87,88,90,87,84,84,82,81,88,87,86,82,77,78,80,80,82,85,85,91,93,93,105,117,118,115,113,91,78,77,79,77,71,46,-5,-87
2019-05-15,15:45:16.854,-107,219,745,1086,607,15,-143,-115,-26,30,42,57,59,63,74,77,78,77,82,81,83,83,87,92,91,97,105,115,121,128,145,165,184,196,206,216,208,187,166,141,119,95,75,67,60,54,51,46,45,48,48,52,48,48,51,42,42,43,41,40,43,41,40,36,35,31,24,24,26,21,22,23,22,25,27,20,22,22,18,20,17,17,22,20,16,17,18,22,18,17,17,19,20,16,19,26,29,36,45,54,57,60,52,32,19,20,17,17,12,-14,-71,-155,-160,209,741,1037,525,-51,-199,-140,-52,-8,3,2,1,12,20,16
2019-05-15,15:45:17.882,16,20,27,40,42,36,41,48,54,64,70,78,81,92,104,120,139,149,154,166,164,150,129,108,94,75,63,54,48,41,40,39,38,39,35,37,44,43,44,46,42,42,49,46,43,42,41,40,41,37,37,38,36,33,31,30,29,36,37,33,37,34,40,41,39,41,38,32,36,39,38,43,43,45,48,45,45,51,48,43,52,61,69,80,94,99,102,102,84,70,66,65,67,62,47,-5,-96,-129,188,745,1163,780,96,-117,-77,10,47,48,51,65,68,68,66,77,80,77,83,90,90,96,99,103,106,112,117,122,128,138
2019-05-15,15:45:18.910,160,183,191,198,204,211,201,178,150,132,118,104,89,86,84,77,74,71,69,73,68,71,76,81,79,80,88,84,80,80,79,80,84,79,84,83,75,72,75,74,77,81,78,82,83,86,80,73,71,70,73,71,71,74,80,82,80,77,74,75,76,83,87,98,112,114,117,119,113,96,90,88,85,84,74,48,-18,-81,-25,393,882,952,324,-65,-134,-68,15,60,63,77,82,81,84,91,98,103,105,113,116,119,122,125,131,140,147,161,175,189,205,222,237,245,245,245,234,211,187,160,131,111,100,91,78,70,71,74,73,76
2019-05-15,15:45:19.938,80,82,81,78,67,63,62,62,62,72,71,60,63,62,59,59,56,62,57,58,63,55,48,49,47,48,49,49,54,50,43,42,46,42,35,37,41,42,48,43,41,45,52,54,56,73,86,86,80,71,52,44,38,34,33,26,-10,-88,-147,-47,418,909,935,279,-124,-147,-57,0,3,8,5,13,26,25,26,30,29,36,41,45,52,50,54,60,64,58,59,74,78,88,108,116,124,131,138,137,126,108,90,67,49,38,33,28,21,20,22,21,18,21,22,14,11,15,20,25,27,25,30,31,29,24,22,19,15,15,14,11
2019-05-15,15:45:20.966,9,16,16,10,10,10,11,3,0,7,8,11,5,2,2,0,7,5,-2,5,-1,1,7,7,10,11,17,32,46,41,43,41,25,11,9,-5,-5,-5,-33,-92,-181,-180,209,756,1081,555,-62,-197,-128,-49,-28,-26,-21,-19,-17,-13,-8,-9,-14,-7,-2,2,-1,5,12,5,9,15,20,23,33,42,53,67,75,84,95,95,88,69,50,30,19,11,0,-8,-14,-19,-17,-23,-24,-18,-13,-15,-14,-13,-12,-21,-16,-9,-17,-19,-22,-23,-19,-23,-26,-24,-19,-24,-27,-20,-18,-30,-22,-18,-23,-25,-29,-22,-32,-35,-36,-27,-25,-33,-30,-31
2019-05-15,15:45:21.994,-28,-25,-29,-27,-26,-30,-27,-31,-24,-18,-21,-6,9,12,13,13,-6,-25,-20,-25,-27,-33,-46,-91,-178,-228,51,595,1058,753,35,-203,-184,-99,-53,-55,-47,-39,-34,-35,-36,-30,-29,-21,-22,-26,-21,-20,-11,-10,-7,0,7,11,12,22,39,54,63,68,77,86,80,66,53,34,14,-7,-16,-18,-23,-31,-28,-31,-33,-27,-28,-30,-32,-35,-33,-34,-30,-29,-28,-31,-32,-38,-40,-37,-38,-41,-47,-47,-44,-42,-42,-44,-49,-47,-48,-49,-47,-48,-50,-49,-52,-54,-52,-55,-57,-55,-54,-56,-57,-58,-53,-54,-47,-51,-54,-45,-27,-20,-20,-20,-30,-50
2019-05-15,15:45:23.022,-60,-61,-64,-65,-70,-116,-188,-252,-94,383,838,680,19,-267,-289,-204,-133,-99,-89,-83,-80,-73,-69,-73,-65,-63,-57,-52,-52,-44,-41,-38,-26,-24,-12,-1,9,25,41,53,68,80,83,81,76,47,15,-6,-23,-44,-67,-74,-79,-80,-85,-83,-81,-79,-82,-82,-88,-83,-78,-77,-79,-82,-86,-87,-87,-95,-95,-100,-98,-100,-107,-107,-108,-109,-108,-109,-109,-107,-113,-112,-119,-117,-112,-107,-115,-111,-111,-109,-114,-118,-114,-112,-110,-109,-107,-99,-88,-85,-74,-73,-76,-91,-108,-105,-112,-119,-114,-126,-166,-235,-276,-61,393,765,451,-126,-316,-315,-229,-164,-138,-132,-120,-111
2019-05-15,15:45:24.050,-115,-105,-98,-96,-93,-92,-95,-90,-79,-69,-66,-62,-52,-47,-30,-22,-2,14,28,41,46,51,52,37,9,-19,-44,-65,-79,-99,-104,-107,-106,-111,-109,-109,-106,-107,-106,-109,-112,-106,-105,-106,-113,-113,-112,-114,-114,-118,-123,-127,-129,-130,-132,-135,-132,-138,-139,-136,-134,-136,-142,-138,-141,-144,-142,-147,-149,-149,-146,-142,-144,-143,-137,-128,-111,-104,-98,-105,-109,-124,-138,-139,-144,-147,-150,-164,-212,-290,-317,-21,475,809,448,-160,-349,-299,-196,-161,-161,-159,-154,-147,-141,-136,-133,-131,-129,-125,-124,-121,-115,-112,-108,-103,-100,-97,-92,-80,-67,-55,-41,-29,-22,-14,-7,-14
2019-05-15,15:45:25.078,-25,-48,-66,-86,-97,-102,-108,-110,-118,-122,-118,-119,-121,-123,-121,-115,-113,-114,-113,-111,-111,-113,-112,-110,-115,-115,-113,-115,-113,-117,-120,-119,-116,-118,-117,-113,-110,-110,-115,-110,-112,-113,-112,-117,-118,-112,-109,-110,-106,-100,-92,-78,-75,-71,-65,-62,-82,-104,-109,-107,-104,-112,-130,-180,-267,-285,37,563,924,513,-126,-297,-240,-150,-125,-123,-117,-110,-107,-104,-100,-95,-93,-89,-93,-86,-76,-72,-73,-77,-71,-61,-61,-55,-42,-39,-30,-12,0,9,14,19,12,-5,-14,-32,-51,-65,-76,-80,-81,-87,-89,-91,-93,-86,-85,-89,-90,-89,-91,-93,-87,-87,-91,-89,-81,-85
2019-05-15,15:45:26.106,-84,-90,-86,-86,-90,-91,-86,-90,-91,-91,-88,-87,-91,-93,-90,-90,-93,-84,-84,-81,-76,-70,-56,-48,-44,-47,-45,-57,-78,-85,-87,-79,-82,-93,-135,-217,-273,-122,361,850,784,74,-267,-254,-160,-104,-97,-99,-97,-93,-92,-86,-87,-83,-78,-81,-77,-70,-69,-62,-58,-49,-45,-45,-36,-28,-21,-11,5,5,16,30,35,30,13,-4,-18,-33,-47,-58,-62,-61,-60,-65,-63,-60,-62,-69,-64,-62,-65,-66,-62,-59,-56,-53,-58,-59,-60,-61,-61,-64,-67,-66,-67,-59,-58,-61,-61,-64,-59,-56,-62,-60,-60,-55,-47,-43,-36,-15,-7,-14,-16,-27,-54,-59,-57,-53
2019-05-15,15:45:27.134,-62,-67,-106,-194,-251,-82,398,895,784,65,-250,-232,-145,-84,-82,-79,-69,-62,-62,-64,-67,-67,-59,-53,-56,-55,-51,-50,-39,-35,-32,-30,-30,-19,0,12,27,37,44,52,55,43,17,-5,-25,-40,-57,-69,-75,-75,-79,-85,-81,-80,-78,-72,-76,-77,-72,-75,-71,-74,-73,-75,-77,-75,-83,-90,-91,-95,-91,-86,-88,-91,-92,-95,-91,-99,-99,-101,-99,-101,-98,-87,-84,-83,-74,-61,-59,-54,-50,-65,-88,-91,-91,-90,-101,-114,-136,-203,-254,-127,297,706,526,-62,-297,-318,-241,-160,-110,-105,-94,-83,-80,-75,-70,-67,-67,-62,-54,-49,-48,-40,-32,-25,-13,-5
2019-05-15,15:45:28.162,4,22,39,56,70,80,85,91,83,61,29,0,-25,-43,-63,-74,-78,-78,-81,-76,-76,-77,-79,-80,-76,-74,-76,-78,-77,-80,-84,-84,-85,-84,-90,-92,-89,-97,-101,-103,-102,-105,-104,-108,-109,-106,-107,-107,-109,-112,-106,-108,-104,-101,-100,-86,-73,-67,-72,-73,-83,-108,-117,-120,-120,-121,-127,-148,-212,-277,-204,191,627,632,56,-292,-337,-255,-172,-148,-144,-129,-127,-123,-118,-114,-105,-108,-112,-100,-97,-93,-93,-88,-79,-74,-68,-60,-52,-39,-22,-12,-4,3,15,11,-6,-25,-42,-62,-86,-101,-112,-119,-118,-127,-133,-131,-126,-125,-124,-123,-129,-131,-127,-128,-130,-131
2019-05-15,15:45:29.190,-134,-130,-139,-138,-135,-138,-138,-143,-140,-145,-151,-147,-144,-138,-144,-147,-146,-143,-146,-147,-148,-148,-152,-152,-147,-139,-132,-126,-117,-111,-113,-112,-115,-138,-153,-151,-151,-152,-156,-176,-230,-293,-285,68,536,727,237,-254,-329,-244,-166,-158,-153,-147,-145,-144,-141,-146,-143,-137,-136,-135,-129,-128,-124,-120,-120,-119,-119,-116,-107,-95,-88,-77,-62,-51,-43,-41,-43,-59,-79,-93,-109,-116,-121,-138,-139,-143,-144,-145,-150,-149,-146,-139,-138,-135,-138,-141,-140,-139,-139,-142,-148,-145,-140,-137,-132,-134,-137,-141,-150,-142,-142,-139,-137,-137,-136,-138,-140,-147,-146,-141,-139,-138,-136,-133,-129,-134
2019-05-15,15:45:30.218,-133,-127,-121,-116,-111,-97,-83,-81,-84,-81,-98,-129,-126,-120,-122,-127,-141,-174,-251,-300,-90,392,814,612,-59,-301,-267,-181,-143,-137,-137,-142,-131,-128,-125,-121,-119,-115,-115,-108,-101,-103,-103,-98,-95,-98,-89,-89,-85,-79,-68,-57,-47,-37,-29,-25,-23,-30,-51,-71,-79,-92,-96,-102,-105,-106,-105,-97,-104,-102,-101,-100,-103,-105,-107,-99,-100,-105,-101,-99,-102,-108,-106,-106,-111,-107,-114,-112,-109,-107,-102,-106,-113,-114,-105,-107,-108,-106,-106,-109,-107,-101,-104,-107,-101,-103,-108,-102,-105,-102,-102,-99,-98,-91,-88,-85,-75,-61,-57,-60,-59,-70,-94,-90,-96,-97,-96,-108
2019-05-15,15:45:31.246,-152,-238,-282,-35,482,927,665,-40,-276,-239,-147,-105,-107,-98,-97,-96,-90,-89,-90,-91,-89,-80,-78,-70,-67,-69,-69,-66,-66,-58,-57,-53,-47,-36,-31,-22,-14,-7,1,-1,-16,-26,-34,-46,-57,-68,-69,-70,-72,-71,-72,-70,-70,-67,-73,-72,-73,-70,-73,-73,-80,-79,-78,-78,-75,-82,-84,-81,-78,-80,-79,-81,-81,-80,-81,-79,-83,-89,-84,-82,-80,-77,-76,-78,-80,-75,-76,-77,-81,-86,-81,-82,-81,-74,-81,-83,-82,-72,-68,-70,-60,-47,-38,-33,-36,-41,-56,-70,-70,-75,-79,-86,-115,-184,-261,-207,246,794,961,271,-210,-261,-183,-108,-91,-90,-91,-88
2019-05-15,15:45:32.274,-88,-83,-80,-76,-69,-73,-65,-58,-65,-59,-53,-53,-53,-53,-47,-42,-34,-27,-19,-13,-3,8,13,9,-1,-12,-28,-43,-50,-60,-66,-70,-72,-73,-76,-74,-75,-78,-81,-78,-75,-79,-77,-82,-88,-85,-85,-85,-92,-93,-90,-95,-95,-96,-94,-97,-96,-98,-98,-101,-101,-101,-98,-97,-102,-99,-101,-100,-100,-98,-99,-96,-97,-95,-97,-104,-99,-97,-101,-99,-92,-85,-82,-67,-57,-58,-55,-69,-93,-103,-97,-99,-101,-112,-134,-188,-252,-191,223,691,696,62,-280,-326,-253,-166,-125,-110,-98,-100,-95,-87,-83,-79,-76,-72,-68,-63,-60,-52,-46,-41,-35,-30,-13,-9,0,18
2019-05-15,15:45:33.302,27,41,55,54,55,47,23,-4,-27,-49,-66,-76,-80,-86,-89,-83,-86,-87,-95,-99,-101,-102,-100,-92,-93,-99,-101,-97,-99,-101,-107,-111,-111,-116,-117,-112,-111,-109,-111,-116,-110,-113,-116,-121,-119,-116,-114,-121,-123,-123,-127,-123,-119,-129,-131,-125,-122,-121,-110,-99,-93,-87,-86,-91,-110,-123,-124,-125,-129,-132,-154,-206,-272,-258,101,550,683,138,-265,-343,-298,-211,-159,-145,-137,-138,-133,-126,-119,-117,-117,-114,-107,-102,-103,-97,-89,-86,-81,-69,-58,-51,-37,-29,-12,-4,2,7,5,-1,-13,-36,-64,-85,-91,-105,-118,-121,-122,-119,-125,-124,-121,-122,-116,-118,-110,-111
2019-05-15,15:45:34.330,-116,-119,-116,-116,-115,-116,-120,-124,-121,-123,-116,-117,-122,-126,-128,-125,-123,-126,-127,-125,-127,-128,-132,-131,-132,-127,-121,-127,-125,-129,-126,-122,-112,-110,-100,-85,-79,-83,-80,-85,-103,-121,-120,-121,-121,-124,-150,-208,-273,-236,144,595,738,208,-248,-298,-219,-140,-133,-137,-131,-121,-121,-122,-115,-113,-111,-108,-107,-100,-93,-90,-92,-86,-84,-82,-77,-72,-65,-50,-43,-35,-28,-19,-9,-9,-21,-31,-48,-62,-74,-83,-91,-96,-100,-100,-99,-99,-92,-98,-96,-96,-93,-91,-92,-83,-83,-87,-89,-84,-97,-99,-97,-93,-92,-89,-87,-87,-92,-91,-90,-88,-88,-89,-91,-89,-85,-83
2019-05-15,15:45:35.358,-81,-82,-85,-83,-79,-76,-85,-88,-81,-71,-72,-65,-48,-38,-40,-45,-50,-72,-82,-89,-94,-90,-90,-112,-170,-237,-213,169,654,844,298,-194,-257,-179,-101,-93,-96,-89,-81,-76,-77,-76,-67,-69,-70,-71,-65,-53,-49,-44,-45,-44,-35,-34,-31,-23,-11,-4,2,15,18,24,27,13,0,-11,-19,-27,-44,-49,-49,-52,-50,-53,-50,-51,-50,-50,-48,-46,-47,-50,-50,-47,-44,-41,-47,-52,-48,-50,-50,-48,-49,-50,-49,-50,-52,-47,-44,-48,-52,-48,-45,-46,-48,-48,-44,-41,-36,-39,-40,-45,-45,-44,-43,-42,-41,-35,-29,-28,-18,-1,8,8,7,3,-14,-31
2019-05-15,15:45:36.386,-30,-35,-32,-35,-53,-105,-184,-197,153,669,991,499,-87,-211,-144,-61,-41,-37,-33,-29,-25,-25,-22,-20,-14,-10,-7,-5,-4,2,8,7,8,13,15,21,31,35,46,55,63,68,74,76,74,62,51,38,29,17,9,4,0,3,2,3,4,7,8,12,12,8,9,9,7,4,7,0,3,3,2,4,0,0,-6,-3,-1,-2,1,3,0,-1,1,3,-1,-5,0,-2,-2,-4,-6,-10,-7,-3,-1,-2,-8,-5,0,1,-1,-2,6,11,14,15,35,47,50,40,32,9,2,7,4,3,-7,-36,-102,-178,-123,318,847,1005,339,-132,-184,-98
2019-05-15,15:45:37.414,-28,-21,-22,-15,-12,-7,-2,3,-4,-3,-1,3,11,9,13,19,26,26,25,27,32,36,52,59,69,80,87,94,96,78,62,43,34,20,11,3,-4,-4,-6,-8,-7,-4,-3,-4,-4,-8,-5,-10,-11,1,-7,-13,-7,-17,-22,-14,-14,-20,-18,-16,-16,-18,-19,-14,-16,-25,-22,-17,-22,-21,-18,-23,-24,-27,-29,-24,-26,-24,-23,-21,-19,-23,-24,-22,-21,-20,-18,-11,-6,4,15,16,11,7,-16,-25,-26,-25,-30,-24,-53,-105,-171,-158,208,685,858,281,-153,-239,-189,-114,-62,-49,-41,-34,-31,-27,-22,-17,-10,-8,-7,-3,2,7,13,22
2019-05-15,15:45:38.442,37,41,49,64,75,92,106,118,133,139,136,127,112,86,61,41,21,5,-9,-7,-12,-10,-7,-11,-9,-9,-7,-6,-5,-9,-11,-9,-7,-10,-11,-13,-15,-18,-16,-18,-24,-18,-16,-21,-21,-15,-25,-32,-37,-33,-35,-30,-28,-27,-26,-25,-24,-25,-31,-30,-33,-32,-31,-30,-29,-25,-22,-16,-13,-5,3,6,8,8,-7,-26,-29,-21,-23,-34,-51,-94,-172,-205,41,511,875,555,-31,-226,-197,-108,-52,-47,-43,-35,-28,-25,-22,-20,-12,-8,2,6,6,3,5,9,20,24,26,39,51,65,71,77,92,98,107,104,94,75,56,37,20,14,-1,-9
2019-05-15,15:45:39.470,-8,-10,-5,-6,-4,-4,-8,-8,2,-1,4,-1,-4,-5,-3,-4,-2,-4,0,-3,-5,-8,-11,-10,-11,-6,-10,-14,-9,-11,-14,-13,-15,-10,-12,-15,-8,-7,-7,-7,-8,-9,-5,-9,-10,-11,-12,-14,-10,0,5,8,27,36,39,34,36,16,-2,-3,-2,-4,-8,-29,-76,-157,-178,157,687,1038,604,-20,-183,-122,-30,-3,-10,-12,-5,-2,5,4,9,16,20,15,24,24,28,33,39,48,47,45,53,60,62,71,85,94,105,112,120,112,101,88,69,52,41,39,32,23,28,32,20,20,24,32,23,16,18,24,28,29,24,25,29,27
2019-05-15,15:45:40.498,26,23,21,18,16,17,15,20,18,21,16,12,16,14,12,13,17,16,13,16,15,13,15,10,9,10,11,13,6,9,14,10,11,21,28,29,45,56,59,59,56,42,27,22,21,19,18,3,-49,-134,-176,100,636,1068,758,68,-158,-118,-34,2,1,9,13,15,19,22,23,24,27,32,34,37,36,43,42,43,48,51,54,59,74,75,85,98,106,113,121,119,103,77,70,60,46,35,30,27,26,32,25,28,30,26,25,22,30,31,30,28,32,30,26,28,29,29,25,30,26,20,20,22,19,20,23,22,21,23,24,21
2019-05-15,15:45:41.526,28,32,29,29,32,31,31,30,29,26,26,28,23,29,26,29,30,28,35,47,45,54,65,77,75,78,69,45,35,38,46,41,22,-14,-95,-149,33,535,1010,854,156,-139,-141,-57,6,11,24,30,36,41,43,46,45,51,55,57,58,61,60,63,63,72,80,90,92,102,116,132,142,160,162,164,157,140,120,99,84,71,59,48,41,42,43,38,39,42,38,43,36,42,49,45,40,46,40,42,43,44,38,39,37,35,36,39,34,34,32,33,32,31,32,34,31,33,28,28,29,24,28,28,28,29,37,38,37,39,31,33
2019-05-15,15:45:42.554,37,40,45,50,59,73,79,83,86,69,50,46,41,37,36,29,-6,-73,-124,35,479,889,701,92,-155,-169,-94,-20,19,23,26,36,41,40,42,52,56,58,67,72,80,86,92,98,100,108,119,134,148,163,177,191,202,202,203,191,163,139,118,100,79,67,69,62,59,60,60,58,56,58,58,62,56,58,59,67,66,57,58,57,52,49,49,47,43,47,51,46,41,44,49,46,43,43,50,47,46,48,43,45,46,42,42,43,44,44,44,47,45,46,47,43,45,53,57,62,74,90,92,90,87,68,50,48,47,47,44,30
2019-05-15,15:45:43.582,-24,-107,-127,175,687,1034,674,46,-142,-89,-1,26,21,24,31,40,39,42,44,48,47,55,57,58,60,66,66,69,65,75,81,87,95,106,118,131,138,145,153,149,135,123,107,89,79,69,67,68,62,59,59,59,56,52,60,59,60,63,68,65,65,63,58,55,55,56,57,58,56,50,48,57,55,45,43,49,45,48,49,51,52,51,52,51,47,46,47,45,44,42,47,49,48,49,47,49,52,57,61,61,73,88,92,94,95,82,58,57,59,52,54,42,1,-82,-144,42,553,1038,931,209,-120,-106,-21,26,28,36,39,40
2019-05-15,15:45:44.610,42,42,50,52,50,58,60,63,68,73,72,72,73,80,83,89,95,103,121,129,134,148,156,154,144,128,115,96,81,71,66,63,56,58,60,58,59,62,61,58,61,60,62,64,59,60,59,54,55,53,54,53,51,51,53,51,52,52,50,49,46,42,38,45,46,45,42,43,38,43,45,42,40,39,36,35,41,40,36,37,39,39,47,48,49,63,73,80,77,75,63,43,39,40,44,42,26,-13,-103,-156,98,625,1079,811,101,-146,-114,-26,20,19,24,30,31,36,41,45,46,49,51,52,57,57,57,62,64,71,73,74
2019-05-15,15:45:45.638,85,96,105,119,130,137,153,161,153,137,114,99,82,66,56,47,44,42,41,40,37,42,42,41,44,41,41,43,38,40,36,32,37,34,36,33,34,28,26,31,29,26,31,30,21,24,24,21,27,28,20,21,20,21,18,23,22,19,21,25,21,20,17,21,25,26,30,39,45,57,54,53,50,28,24,22,19,17,9,-16,-87,-146,-71,355,829,848,212,-142,-192,-132,-55,-16,-7,1,2,8,14,18,20,21,27,34,35,39,46,50,57,61,68,82,92,101,107,121,133,136,141,138,128,112,88,70,47,31,21,15,13,10
2019-05-15,15:45:46.666,9,6,4,9,11,6,10,7,8,8,10,11,8,10,4,3,-4,-6,-4,-6,-13,-13,-10,-12,-11,-8,-13,-10,-10,-6,-8,-10,-13,-8,-10,-8,-11,-12,-15,-15,-17,-10,-9,-12,-6,-7,-10,-9,-4,-4,-2,7,15,31,36,35,35,17,-7,-9,-3,-3,-10,-23,-73,-157,-180,136,660,1037,640,-9,-189,-135,-51,-19,-21,-21,-11,-7,-5,5,4,5,7,11,14,19,20,26,26,26,34,40,41,48,56,68,75,90,95,107,116,116,102,89,73,58,46,35,25,22,24,21,23,24,26,23,25,29,30,27,28,29,26,26,26,27
2019-05-15,15:45:47.694,26,23,25,25,26,24,19,18,18,16,17,17,17,13,17,16,14,12,10,4,8,10,7,10,12,11,9,11,8,8,9,12,9,12,15,15,30,41,50,45,48,43,20,10,9,6,5,0,-21,-83,-166,-167,209,741,1039,508,-67,-198,-137,-52,-22,-24,-20,-14,-4,3,5,9,10,17,13,12,18,19,22,24,32,38,46,54,68,76,95,105,121,132,132,133,114,100,75,52,40,24,6,1,5,0,-8,-9,-4,-3,-2,-1,1,1,4,4,-1,-1,2,0,-3,-4,-10,-17,-15,-14,-12,-11,-9,-12,-17,-14,-11,-19,-21,-22
2019-05-15,15:45:48.722,-17,-14,-17,-16,-18,-18,-14,-6,-13,-20,-23,-24,-21,-14,-16,-8,7,14,14,11,6,-10,-18,-21,-20,-23,-20,-42,-92,-153,-127,219,631,700,155,-183,-236,-195,-110,-51,-30,-17,-17,-9,-1,6,12,9,13,18,24,26,33,44,53,64,76,89,100,115,136,160,171,187,191,187,175,146,115,87,55,30,20,11,2,-1,-3,-6,-6,-1,-4,-6,-1,1,4,5,8,-3,-8,-10,-5,-9,-2,-13,-18,-22,-22,-23,-26,-23,-24,-22,-28,-28,-30,-33,-27,-29,-36,-37,-35,-38,-29,-21,-24,-9,0,-9,-19,-13,-13,-32,-32,-32,-41,-69,-129,-162
2019-05-15,15:45:49.750,26,410,696,399,-79,-236,-233,-152,-86,-54,-53,-43,-33,-29,-25,-18,-18,-16,-7,-6,-3,-1,5,16,24,29,38,51,70,81,101,113,122,131,129,119,100,73,48,23,1,-15,-24,-32,-44,-47,-46,-43,-45,-46,-39,-35,-31,-33,-39,-38,-35,-33,-36,-36,-29,-34,-44,-42,-40,-38,-38,-43,-46,-44,-43,-42,-42,-42,-38,-33,-38,-44,-37,-47,-56,-55,-47,-41,-39,-40,-41,-39,-34,-31,-22,-27,-35,-34,-25,-36,-40,-39,-57,-99,-171,-186,92,555,837,490,-74,-221,-154,-68,-42,-41,-35,-26,-21,-18,-11,-12,-19,-20,-22,-17,-11,-9,-7,-3,5,12
2019-05-15,15:45:50.778,2,2,10,25,40,45,62,73,86,97,90,78,47,24,10,-4,-12,-18,-16,-22,-26,-21,-26,-31,-30,-23,-22,-19,-18,-18,-19,-18,-24,-28,-32,-36,-35,-36,-33,-34,-39,-37,-39,-44,-42,-37,-35,-40,-36,-34,-39,-35,-33,-41,-38,-35,-35,-28,-28,-28,-31,-27,-28,-26,-33,-35,-29,-25,-28,-18,-19,-25,-22,-17,-21,-27,-29,-23,-42,-98,-174,-167,209,718,961,461,-72,-178,-105,-33,-18,-20,-22,-15,-10,-9,-15,-7,-6,-1,3,7,7,9,13,18,18,15,19,26,36,46,57,71,81,95,102,111,97,74,60,45,31,19,8,4,6,4
2019-05-15,15:45:51.806,-4,-4,-3,-2,0,-3,-2,-3,-3,0,1,0,3,5,1,3,0,-1,-5,-7,-4,-3,-4,-5,-4,-5,-3,-6,-2,-4,-9,-8,-8,-5,-8,-8,-12,-9,-12,-8,-13,-10,-15,-13,-13,-14,-13,-11,-7,-12,-15,-14,-11,-9,-9,-12,-2,6,2,2,5,6,-5,-11,-11,-8,-21,-66,-155,-192,102,625,1002,651,13,-180,-141,-63,-30,-28,-27,-24,-13,-4,-3,-6,-6,-4,-7,-3,-2,0,5,7,12,18,17,19,26,43,61,72,85,98,107,110,103,83,63,47,31,16,-1,-4,-4,-10,-10,-12,-10,-15,-15,-11,-4,-5,-12,-14,-11,-11
2019-05-15,15:45:52.834,-13,-12,-15,-14,-15,-20,-21,-20,-21,-19,-24,-22,-23,-28,-29,-26,-31,-34,-32,-34,-35,-30,-33,-36,-35,-39,-38,-39,-41,-40,-41,-40,-39,-37,-44,-42,-48,-49,-44,-36,-37,-31,-22,-25,-27,-25,-31,-49,-44,-42,-44,-57,-105,-174,-187,114,565,791,311,-146,-252,-228,-147,-86,-63,-52,-50,-49,-39,-29,-38,-35,-30,-30,-23,-16,-13,-6,-3,1,11,25,38,47,65,85,100,114,122,120,111,94,68,36,12,-6,-20,-33,-40,-41,-39,-41,-39,-31,-36,-42,-41,-34,-37,-38,-40,-36,-38,-39,-44,-41,-44,-48,-49,-47,-51,-55,-56,-50,-50,-60,-58,-59
2019-05-15,15:45:53.862,-59,-57,-57,-60,-59,-58,-65,-60,-57,-55,-61,-60,-58,-60,-66,-69,-65,-65,-59,-53,-56,-53,-52,-51,-52,-37,-38,-48,-40,-38,-43,-58,-55,-58,-62,-96,-170,-222,-98,361,810,774,139,-204,-212,-127,-68,-63,-59,-51,-46,-44,-40,-36,-34,-35,-29,-22,-25,-24,-16,-7,-10,-6,-4,3,11,14,29,44,54,67,75,83,82,69,56,39,20,7,-7,-12,-19,-20,-20,-22,-23,-18,-17,-16,-20,-23,-20,-19,-19,-19,-23,-22,-19,-17,-18,-21,-26,-26,-24,-22,-21,-24,-27,-26,-21,-22,-27,-30,-29,-20,-19,-24,-24,-26,-27,-30,-29,-26,-23,-24,-25,-28
2019-05-15,15:45:54.890,-23,-22,-18,-24,-30,-27,-26,-27,-25,-17,-9,-15,-14,-1,-2,-8,-6,0,-22,-31,-28,-21,-28,-78,-159,-210,-15,485,937,800,108,-185,-159,-77,-42,-35,-39,-35,-33,-28,-22,-19,-20,-23,-11,-3,-10,-10,-10,-7,-3,2,6,8,12,24,35,49,55,65,71,82,83,71,58,45,29,15,6,-4,-13,-15,-14,-20,-18,-17,-13,-12,-21,-16,-13,-10,-12,-13,-13,-10,-11,-10,-13,-11,-11,-16,-18,-19,-22,-23,-18,-19,-21,-21,-24,-21,-21,-22,-24,-24,-27,-21,-23,-23,-23,-25,-28,-28,-25,-24,-29,-34,-25,-23,-24,-25,-25,-28,-25,-25,-22,-16
2019-05-15,15:45:55.918,-15,-10,7,13,7,1,0,-15,-15,-18,-21,-28,-65,-140,-200,-66,419,894,826,151,-182,-193,-113,-49,-42,-33,-28,-26,-24,-21,-16,-12,-6,-3,-4,2,1,9,11,16,14,18,25,36,47,55,69,81,95,100,104,102,90,73,52,31,16,2,-9,-15,-19,-21,-26,-27,-20,-23,-23,-21,-18,-20,-23,-23,-22,-23,-27,-22,-20,-26,-31,-31,-26,-30,-34,-31,-31,-33,-28,-31,-31,-33,-35,-32,-32,-35,-35,-33,-28,-28,-35,-37,-34,-32,-30,-29,-32,-33,-31,-37,-36,-34,-31,-34,-33,-26,-25,-20,-15,-12,3,8,4,-3,-15,-28,-35,-31,-29,-39
2019-05-15,15:45:56.946,-77,-152,-200,-54,414,879,805,134,-197,-195,-109,-50,-49,-48,-41,-38,-40,-37,-32,-24,-23,-22,-20,-12,-6,-9,-12,-9,-3,4,10,10,25,39,45,56,61,69,77,81,72,53,40,19,6,1,-5,-7,-17,-17,-21,-22,-22,-20,-16,-16,-16,-15,-17,-17,-12,-15,-18,-26,-18,-21,-23,-20,-28,-26,-23,-21,-27,-34,-28,-22,-24,-31,-30,-27,-23,-29,-23,-23,-26,-30,-29,-28,-30,-26,-24,-24,-22,-22,-22,-24,-27,-26,-27,-21,-13,-14,-8,-9,2,8,15,14,19,12,-5,-7,-13,-14,-12,-35,-90,-171,-188,148,670,1029,603,-33,-197,-138,-51,-27
2019-05-15,15:45:57.974,-32,-32,-30,-19,-7,-13,-11,-12,-10,-7,-1,5,6,8,12,15,13,16,26,27,31,48,55,63,75,86,95,93,72,60,48,29,16,5,0,-3,-4,-6,-11,-4,2,-2,-11,-6,-8,-8,-11,-9,-3,-5,-12,-9,-10,-14,-12,-12,-14,-18,-17,-13,-16,-19,-13,-12,-17,-12,-15,-18,-18,-12,-4,-11,-11,-14,-13,-13,-16,-10,-11,-17,-17,-12,-15,-20,-6,-1,-6,5,23,25,25,22,14,-9,-14,-13,-7,-8,-11,-46,-119,-188,-122,318,821,894,243,-166,-219,-144,-67,-35,-30,-24,-22,-20,-16,-8,-6,-1,-7,4,8,7,17,19,21,23
2019-05-15,15:45:59.002,31,43,50,61,73,93,102,111,119,123,120,112,84,53,36,21,5,-7,-15,-14,-12,-15,-12,-10,-14,-7,-16,-13,-16,-12,-14,-19,-14,-16,-21,-23,-23,-20,-23,-22,-22,-27,-34,-33,-27,-29,-30,-33,-31,-35,-32,-30,-35,-31,-34,-29,-28,-31,-36,-33,-30,-35,-33,-32,-25,-18,-15,-3,8,12,9,9,-14,-29,-31,-31,-33,-39,-67,-120,-176,-124,269,712,750,157,-195,-245,-188,-109,-59,-51,-36,-33,-32,-29,-18,-18,-18,-7,-7,-4,-1,2,8,16,20,34,39,47,63,85,96,102,116,122,120,112,99,68,43,28,7,-9,-20,-22,-21,-22
2019-05-15,15:46:00.030,-28,-28,-28,-26,-27,-30,-25,-27,-26,-20,-19,-16,-22,-24,-21,-25,-31,-37,-35,-28,-30,-33,-32,-27,-28,-36,-36,-38,-39,-40,-40,-34,-34,-31,-30,-36,-38,-38,-35,-34,-35,-33,-28,-21,-19,-6,13,15,12,14,4,-21,-31,-24,-30,-29,-36,-72,-160,-210,-25,454,878,738,84,-203,-182,-91,-39,-39,-36,-33,-26,-27,-27,-20,-13,-14,-10,-11,-13,-5,0,5,13,14,16,22,28,40,47,57,72,77,89,96,93,78,62,48,35,21,8,5,2,-7,-5,-6,-6,3,4,7,3,-1,0,3,-2,-1,2,1,-1,2,2,-2,-6,-4,1,-1
2019-05-15,15:46:01.058,-2,5,6,5,11,4,-4,-1,7,-4,-2,2,4,9,8,-2,-5,-2,5,7,3,9,13,16,21,36,40,41,43,42,17,3,8,13,4,1,-23,-88,-164,-150,240,764,1028,476,-78,-172,-101,-22,-8,-17,-15,-8,-1,-2,2,10,16,16,14,13,16,19,23,27,35,38,37,45,57,68,72,85,98,115,121,126,119,103,88,69,52,45,36,22,18,22,16,14,20,13,15,21,17,15,16,14,16,18,17,19,21,20,19,18,16,11,6,8,3,6,5,0,5,5,4,7,7,11,4,-1,-1,8,2,3,1,2,2,5
2019-05-15,15:46:02.086,9,5,4,5,11,15,20,31,50,50,48,50,33,12,11,14,11,9,-2,-36,-116,-167,27,503,931,699,66,-178,-175,-92,-36,-10,-6,-3,4,9,12,9,16,26,29,33,31,34,41,46,47,49,66,79,87,96,117,134,145,147,149,147,140,119,96,71,46,31,24,13,1,-1,2,5,1,3,1,-1,-2,2,3,3,9,2,-10,-1,-1,-11,-8,-2,-10,-8,0,-7,-11,-13,-17,-14,-16,-17,-15,-12,-9,-12,-17,-24,-18,-17,-18,-17,-20,-13,-19,-19,-19,-17,-21,-20,-14,-6,-1,1,13,25,27,29,31,20,5,-11,-11,-13
2019-05-15,15:46:03.114,-12,-20,-58,-123,-182,-34,432,891,800,130,-184,-175,-84,-27,-21,-15,-8,-3,-1,9,14,15,13,19,27,30,35,37,45,48,47,53,57,58,71,81,94,106,118,121,132,133,116,95,78,61,53,43,31,26,26,24,26,21,19,24,29,23,28,30,26,26,24,28,29,37,27,28,28,13,8,16,14,8,11,14,28,29,17,20,24,23,33,35,33,42,48,37,34,29,36,45,45,46,50,53,47,49,56,48,59,67,68,76,96,109,106,113,115,98,84,82,85,80,75,68,36,-55,-113,58,559,1049,978,262,-83,-80,1,56
2019-05-15,15:46:04.142,50,52,71,71,66,69,72,75,76,70,69,75,86,87,89,96,94,89,87,99,105,111,123,134,142,153,164,158,148,136,123,104,95,87,71,65,64,61,59,61,62,58,60,64,63,68,65,66,71,64,55,58,55,56,53,57,55,51,53,54,56,44,45,48,48,50,54,46,58,51,50,51,51,49,59,64,57,55,54,55,56,58,57,50,55,58,52,60,59,61,81,95,96,88,95,82,58,55,56,54,50,39,3,-91,-147,89,626,1127,924,179,-106,-89,-6,38,41,50,51,53,60,61,59,61,62,66,68,74,79,81
2019-05-15,15:46:05.170,90,89,88,100,94,93,105,114,126,139,143,155,166,168,150,129,118,107,93,85,75,73,72,80,74,70,71,71,69,73,77,78,76,77,80,79,79,76,75,73,74,74,72,71,76,74,79,78,77,79,83,82,86,84,81,87,86,82,83,89,90,96,94,95,91,88,91,87,87,87,95,96,95,101,107,102,114,127,134,136,142,135,114,104,99,94,95,93,65,-9,-89,-54,396,957,1210,548,-9,-100,-28,57,67,74,80,84,84,90,88,88,92,97,100,106,115,122,118,118,120,122,128,127,135,154,166,175,184,191,198,202
2019-05-15,15:46:06.198,187,176,169,150,133,119,116,111,99,97,98,100,93,93,94,95,97,99,100,94,91,98,98,87,90,90,91,90,79,85,87,84,84,89,88,86,88,89,81,82,78,83,88,89,86,85,92,93,91,88,92,91,89,91,92,92,95,90,97,106,103,106,121,126,129,132,131,124,108,97,103,106,99,83,35,-66,-117,131,680,1186,964,209,-74,-57,29,80,72,73,81,84,92,92,95,102,109,103,100,99,103,97,103,110,113,115,118,125,125,138,156,162,169,180,190,181,174,164,137,132,121,104,96,93,88,97,93,95,97,98
2019-05-15,15:46:07.226,87,88,87,89,83,84,86,84,87,79,74,76,73,79,84,77,76,79,70,63,62,69,75,68,71,68,64,66,65,68,65,69,62,64,65,69,72,60,57,61,64,62,66,68,73,78,96,103,96,93,86,70,64,59,59,62,50,9,-71,-130,32,518,1010,863,173,-115,-144,-73,2,30,35,32,40,43,50,64,58,58,62,68,73,82,86,84,91,96,108,119,129,144,161,174,180,192,197,201,196,178,152,135,107,91,83,72,61,58,57,59,60,64,63,66,59,53,59,64,54,53,58,62,55,54,48,51,55,47,48,50
2019-05-15,15:46:08.254,43,44,44,46,48,45,40,42,45,49,45,48,49,44,43,47,41,42,41,41,43,50,51,57,68,81,95,93,91,77,52,49,53,47,40,37,5,-81,-150,-29,455,959,951,261,-122,-146,-56,14,20,23,25,26,33,37,40,47,47,49,57,59,58,61,65,70,76,75,78,87,99,111,124,136,151,162,160,157,151,132,111,94,82,72,62,59,56,49,50,48,48,49,55,49,44,49,46,47,53,50,45,44,47,55,44,40,39,45,41,35,41,37,36,44,44,39,29,34,38,33,36,36,38,39,38,44,37,34,32,37
2019-05-15,15:46:09.282,39,42,53,65,80,75,72,59,38,29,30,29,29,23,-7,-86,-161,-95,371,925,1100,410,-89,-144,-68,-2,6,10,17,23,27,28,19,22,31,32,32,36,42,50,53,58,59,56,61,62,70,83,97,101,115,125,132,135,120,110,97,85,71,54,50,49,42,29,30,40,33,30,39,41,35,38,38,36,35,34,36,29,33,32,24,20,22,21,16,10,15,23,20,21,23,18,20,19,12,15,21,19,21,22,13,14,9,11,17,23,24,32,40,59,58,57,56,40,19,14,9,16,18,-5,-54,-146,-191,73,619,1113,829,84
2019-05-15,15:46:10.310,-170,-136,-47,-7,-7,-2,4,1,4,10,10,12,19,21,16,22,24,31,30,33,41,46,43,48,57,64,78,87,98,109,112,103,93,79,61,51,33,21,19,21,12,5,7,7,14,15,18,13,8,9,12,6,3,1,10,11,8,10,9,4,-4,-3,-4,-5,-6,-3,-3,-5,-1,-4,-6,-8,-6,-9,-10,-11,-8,-13,-11,-10,-13,-13,-5,2,-1,0,18,29,33,31,21,9,-8,-9,-10,-9,-12,-36,-104,-185,-195,197,759,1114,554,-67,-202,-144,-54,-27,-37,-27,-25,-20,-12,-7,-9,-7,0,5,9,12,10,13,15,20,28,25
2019-05-15,15:46:11.338,31,40,47,52,67,74,81,88,99,96,82,60,49,37,26,13,6,8,6,-3,4,5,4,2,-1,0,5,1,4,8,1,6,7,-2,-5,-4,-3,-5,-3,-1,1,-5,6,-4,-8,-7,-5,-7,-4,-3,-1,6,-3,-5,-6,-8,-5,-6,-11,2,-1,7,8,23,33,39,43,34,21,2,-5,-5,-6,-13,-30,-86,-166,-183,155,687,1040,536,-55,-212,-190,-99,-46,-38,-33,-21,-14,-8,-2,-1,0,10,6,8,14,24,27,26,29,43,51,64,72,89,98,110,126,136,141,135,127,103,67,51,33,16,1,-3,-4,-14,-11,-14,-14,-13
2019-05-15,15:46:12.367,-12,1,-6,-8,-11,-10,-11,-9,-16,-14,-14,-16,-13,-22,-21,-19,-24,-25,-27,-25,-18,-19,-24,-21,-25,-20,-22,-32,-30,-30,-27,-27,-31,-29,-26,-18,-16,-4,9,11,13,16,0,-17,-19,-22,-25,-30,-44,-75,-134,-193,-43,407,821,624,11,-223,-241,-169,-102,-62,-56,-48,-41,-35,-29,-27,-19,-17,-9,-14,-15,-8,0,8,16,19,27,43,60,70,74,98,114,123,123,112,101,71,37,11,-9,-26,-42,-45,-51,-55,-64,-62,-69,-69,-66,-67,-65,-67,-73,-70,-69,-77,-89,-88,-91,-93,-99,-103,-105,-102,-104,-113,-112,-126,-126,-122,-126,-126,-131,-128
2019-05-15,15:46:13.395,-117,-122,-137,-140,-134,-130,-128,-128,-128,-124,-124,-112,-101,-106,-104,-95,-112,-134,-143,-141,-141,-143,-160,-212,-293,-334,-119,371,792,567,-78,-340,-338,-243,-182,-177,-181,-170,-163,-163,-157,-153,-145,-146,-133,-139,-139,-136,-131,-132,-129,-123,-111,-110,-100,-89,-82,-62,-56,-47,-33,-27,-40,-61,-83,-107,-124,-141,-147,-153,-159,-158,-162,-171,-173,-170,-175,-173,-165,-164,-159,-159,-153,-150,-153,-156,-161,-160,-157,-157,-160,-154,-156,-154,-161,-159,-162,-158,-156,-148,-146,-151,-152,-154,-161,-159,-152,-154,-154,-153,-142,-144,-144,-127,-107,-102,-107,-109,-123,-137,-151,-152,-146,-149,-158,-191,-271,-338
2019-05-15,15:46:14.423,-206,294,797,792,91,-296,-308,-210,-158,-160,-148,-145,-141,-132,-138,-135,-132,-126,-125,-124,-120,-120,-109,-108,-103,-101,-100,-96,-87,-79,-65,-54,-36,-24,-14,-3,-4,-10,-19,-45,-72,-100,-114,-117,-112,-105,-93,-86,-81,-83,-83,-90,-82,-84,-70,-65,-71,-66,-54,-62,-63,-57,-60,-58,-64,-57,-48,-42,-52,-48,-42,-48,-42,-49,-41,-46,-47,-40,-42,-29,-3,-15,-41,-53,-44,-30,-35,-38,-26,-15,-27,-21,8,-9,-1,-6,3,5,-13,-28,-30,-32,-31,-37,-56,-121,-221,-250,109,736,1218,784,12,-231,-190,-108,-79,-90,-81,-74,-81,-85,-86,-76,-65,-77,-88,-76
2019-05-15,15:46:15.451,-67,-69,-87,-101,-91,-99,-85,-91,-89,-68,-45,-26,-6,-1,8,19,14,4,-21,-34,-50,-64,-79,-90,-91,-89,-91,-92,-90,-85,-92,-84,-94,-88,-82,-91,-96,-93,-88,-85,-86,-70,-61,-44,-8,43,76,84,76,35,-94,-189,-173,-121,-192,-282,-278,-200,-118,-68,-52,-62,-72,-65,-51,-44,-33,-23,-13,-2,2,22,36,56,71,92,115,144,168,192,213,223,211,202,187,161,120,87,53,12,-17,-38,-53,-74,-82,-85,-87,-90,-96,-95,-94,-90,-98,-107,-112,-109,-111,-112,-115,-119,-123,-123,-123,-116,-115,-113,-115,-117,-121,-122,-120,-123,-121,-125,-125,-122,-121,-123
2019-05-15,15:46:16.479,-133,-129,-132,-136,-141,-145,-141,-142,-148,-146,-155,-152,-150,-153,-158,-153,-152,-151,-143,-148,-151,-149,-152,-146,-149,-151,-157,-154,-151,-147,-161,-155,-149,-156,-153,-151,-153,-158,-145,-150,-143,-128,-118,-116,-112,-117,-136,-151,-163,-165,-168,-172,-184,-236,-293,-240,79,405,353,-129,-372,-406,-350,-276,-224,-210,-198,-195,-194,-186,-188,-186,-180,-175,-172,-176,-177,-176,-175,-172,-166,-152,-148,-140,-123,-117,-109,-100,-99,-103,-102,-109,-116,-140,-158,-177,-190,-199,-212,-217,-221,-225,-230,-225,-233,-235,-237,-235,-234,-239,-243,-247,-248,-248,-256,-259,-263,-267,-258,-215,-151,-64,36,183,345,453,484,504
2019-05-15,15:46:17.507,501,325,-27,-116,-165,-252,-292,-312,-324,-349,-361,-374,-381,-390,-408,-425,-450,-460,-488,-513,-539,-563,-590,-605,-609,-608,-596,-577,-547,-514,-476,-434,-395,-368,-342,-332,-324,-320,-322,-324,-327,-326,-323,-321,-322,-323,-316,-312,-315,-312,-311,-311,-318,-320,-325,-325,-328,-329,-334,-331,-330,-330,-340,-336,-322,-328,-341,-337,-334,-334,-335,-338,-335,-334,-333,-341,-337,-339,-339,-337,-340,-338,-339,-343,-342,-344,-341,-343,-341,-339,-340,-338,-335,-334,-344,-340,-338,-333,-329,-326,-308,-303,-310,-302,-293,-314,-337,-329,-318,-338,-389,-453,-434,-80,361,498,43,-394,-489,-424,-349,-316,-307,-314,-311,-309,-302,-302
2019-05-15,15:46:18.535,-305,-301,-302,-288,-274,-272,-256,-261,-282,-281,-271,-264,-256,-255,-243,-229,-213,-196,-180,-175,-172,-159,-172,-196,-209,-216,-219,-227,-231,-234,-237,-239,-229,-218,-220,-215,-210,-209,-210,-215,-214,-219,-221,-205,-196,-211,-215,-216,-213,-204,-201,-203,-200,-206,-207,-190,-176,-176,-180,-143,-115,-173,-179,-186,-202,-209,-185,-174,-169,-183,-230,-311,-395,-382,11,552,827,324,-236,-370,-301,-233,-214,-208,-200,-192,-195,-201,-194,-187,-188,-185,-167,-148,-145,-142,-132,-131,-130,-128,-118,-125,-116,-86,-69,-69,-58,-34,-2,-19,-61,-92,-85,-103,-119,-118,-103,-94,-103,-101,-90,-129,-117,-98,-111,-106,-98,-80
2019-05-15,15:46:19.563,-76,-66,-58,-48,-76,-97,-86,-77,-68,-55,-32,1,-2,2,-25,-48,-50,-21,8,21,28,38,46,25,29,21,-16,-24,-19,-59,-181,-246,-11,583,1195,1215,390,-76,-136,-57,-5,-43,-29,-6,1,20,56,49,68,201,17,-76,-76,-37,-17,51,66,77,54,11,-52,-27,9,29,39,61,84,90,86,15,16,-16,-30,-40,-34,-44,-23,-39,-78,-100,-76,-81,-71,-65,-56,-42,-51,-52,-37,-54,-73,-80,-61,-61,-53,-45,-28,-14,-29,-68,-85,-76,-81,-75,-68,-53,-29,-18,-25,-10,2,-10,-33,-73,-79,-63,-79,-71,-117,-221,-288,-98,498,1134,1086,204,-256,-292
2019-05-15,15:46:20.591,-209,-144,-160,-193,-182,-198,-172,-153,-144,-125,-87,-149,-156,-157,-152,-149,-135,-119,-124,-129,-103,-88,-74,-60,-57,-51,-24,2,0,-5,-27,-21,-38,-89,-88,-83,-86,-90,-86,-75,-77,-82,-71,-65,-67,-67,-65,-61,-46,-49,-44,-29,-23,-11,5,-5,-2,4,-3,-1,7,10,16,24,33,52,39,23,23,31,51,63,66,83,86,68,61,58,49,43,37,30,-9,-107,-164,81,635,1199,982,244,-63,-96,-18,40,63,75,84,84,94,110,108,107,116,123,122,118,121,132,144,151,156,166,173,184,207,219,234,252,255,265,258,240,221,192,167,154,142,133
2019-05-15,15:46:21.619,138,137,135,132,127,133,134,129,133,129,134,133,135,128,128,129,131,126,125,125,127,120,120,122,121,122,123,120,121,122,123,123,132,140,145,151,163,171,169,175,173,150,136,141,138,139,131,102,25,-63,-16,458,1067,1338,677,118,-14,41,104,133,135,142,154,159,165,168,178,185,185,187,193,194,198,204,203,213,218,233,244,253,272,284,299,307,314,326,305,283,266,257,238,230,223,219,218,214,212,210,203,204,201,204,210,208,204,209,208,202,201,200,202,204,212,213,210,209,207,209,213,206,205,204,202,196,194,202,200,195
2019-05-15,15:46:22.647,199,202,206,210,218,231,236,239,249,239,213,200,200,203,201,190,160,76,-29,-6,445,1063,1472,903,217,41,88,154,167,163,164,173,177,183,180,178,183,186,188,195,197,191,197,197,199,203,207,217,220,234,245,260,271,280,292,293,279,262,245,232,216,207,205,199,196,188,188,185,176,180,183,184,183,178,185,192,187,184,186,184,184,187,187,182,176,181,204,208,196,204,205,198,190,189,191,195,213,206,171,174,188,190,195,194,197,201,200,210,235,249,245,246,251,230,211,211,216,225,227,206,98,-11,-51,326,982,1543,1109,282
2019-05-15,15:46:23.675,9,20,103,137,146,149,156,158,156,161,159,162,165,170,158,152,163,164,174,177,180,187,194,208,219,230,241,244,257,269,268,257,238,212,195,183,162,159,152,142,139,133,134,135,132,130,131,134,132,135,124,127,138,137,123,122,113,111,111,105,106,102,101,102,100,101,101,102,92,102,108,107,95,77,76,76,87,91,93,107,131,152,157,141,128,77,52,66,69,75,62,26,-77,-144,62,622,1243,1168,339,-83,-139,-54,12,36,42,70,75,79,83,73,67,75,71,75,86,93,100,112,113,110,108,114,125,128,137,154,173,186
2019-05-15,15:46:24.703,191,191,181,160,138,115,94,79,70,66,65,66,62,62,70,50,42,43,44,41,46,41,51,57,44,37,43,49,41,36,33,25,26,24,27,30,28,29,39,42,28,8,22,21,13,23,32,51,63,70,73,60,52,27,20,23,26,20,-1,-65,-185,-238,131,807,1395,1012,140,-168,-167,-81,-27,-18,-16,-10,-3,-9,-17,-16,-15,-6,-7,-1,4,3,6,5,4,2,7,8,16,31,28,33,50,71,78,82,76,55,37,16,-4,-16,-33,-39,-42,-40,-38,-42,-40,-32,-33,-61,-71,-69,-64,-49,-53,-58,-57,-56,-58,-55,-57,-63,-68,-70
2019-05-15,15:46:25.731,-77,-74,-68,-73,-68,-64,-59,-56,-68,-75,-72,-71,-73,-58,-39,-32,-25,-27,-47,-56,-57,-58,-61,-75,-98,-159,-249,-273,89,666,1037,495,-123,-291,-274,-177,-126,-103,-91,-84,-78,-74,-72,-66,-57,-54,-47,-39,-39,-36,-32,-31,-22,-9,-1,16,30,45,69,85,98,115,107,83,47,20,-4,-36,-58,-65,-71,-80,-83,-78,-74,-97,-94,-86,-85,-87,-82,-72,-76,-78,-77,-79,-82,-83,-93,-99,-95,-101,-94,-89,-86,-100,-103,-103,-98,-103,-102,-101,-98,-88,-81,-80,-63,-51,-50,-46,-41,-60,-90,-93,-91,-95,-100,-117,-169,-258,-301,11,553,956,586,-76,-310,-300
2019-05-15,15:46:26.759,-196,-124,-113,-107,-99,-88,-83,-79,-76,-80,-75,-67,-66,-63,-57,-47,-40,-45,-35,-21,-8,3,19,37,52,64,76,77,67,42,15,-14,-32,-46,-57,-62,-73,-78,-80,-82,-89,-89,-96,-94,-92,-86,-79,-83,-77,-71,-80,-83,-80,-79,-81,-87,-92,-83,-82,-91,-95,-89,-87,-90,-88,-86,-85,-92,-97,-91,-89,-87,-79,-75,-74,-57,-51,-48,-43,-45,-56,-76,-91,-85,-83,-87,-95,-134,-221,-309,-219,314,919,1073,321,-210,-286,-202,-128,-119,-121,-109,-102,-103,-102,-96,-91,-89,-91,-88,-80,-81,-82,-75,-71,-66,-64,-57,-47,-40,-19,0,20,33,48,55,49,28
2019-05-15,15:46:27.787,13,-9,-26,-35,-39,-60,-68,-48,-58,-70,-67,-80,-96,-103,-98,-84,-90,-96,-101,-109,-105,-101,-114,-115,-117,-114,-107,-105,-110,-111,-104,-107,-110,-104,-98,-100,-97,-106,-110,-116,-111,-106,-96,-94,-97,-97,-87,-78,-85,-78,-85,-70,-55,-49,-53,-70,-90,-86,-77,-91,-93,-102,-166,-276,-325,-38,580,1139,942,104,-234,-219,-134,-89,-92,-90,-89,-75,-70,-67,-70,-67,-61,-62,-58,-60,-62,-53,-58,-67,-67,-60,-53,-50,-42,-23,-12,2,11,15,34,32,22,7,-9,-12,-14,-19,-25,-17,-23,-30,-23,-30,-27,-19,-18,-21,-11,-12,-12,-9,-4,4,12,0,-7,-15
2019-05-15,15:46:28.815,-7,1,4,-2,6,5,10,11,21,10,9,12,10,9,11,5,3,12,16,15,10,15,16,13,13,12,20,31,35,32,44,61,67,72,77,61,44,45,43,43,44,25,-35,-162,-218,119,802,1426,1176,233,-110,-99,-24,15,12,7,9,10,13,11,12,17,22,25,28,33,38,36,30,24,24,26,27,30,38,49,60,68,81,100,112,111,101,101,82,59,51,45,46,42,39,35,39,32,24,24,24,23,25,24,23,16,9,9,15,17,8,11,2,5,9,-1,-2,-10,-2,-5,-5,-3,-5,-6,-4,-10,-9,-8,-9,-15,-22,-15
2019-05-15,15:46:29.843,-12,-12,-18,-22,-20,-17,-15,-16,-11,-6,3,14,14,18,12,-9,-31,-30,-23,-37,-42,-70,-139,-222,-192,254,835,1059,375,-138,-256,-213,-137,-82,-66,-59,-55,-52,-44,-41,-40,-37,-36,-28,-31,-23,-24,-25,-15,-13,-8,5,21,34,51,61,70,80,88,90,79,58,30,6,-7,-23,-39,-55,-65,-71,-76,-73,-69,-74,-79,-76,-79,-77,-80,-84,-85,-86,-93,-95,-93,-100,-109,-106,-108,-114,-115,-111,-112,-107,-106,-115,-120,-123,-121,-121,-127,-129,-127,-127,-127,-123,-125,-124,-120,-119,-125,-117,-102,-90,-95,-98,-101,-126,-131,-133,-134,-145,-153,-177,-239,-294,-227,169
2019-05-15,15:46:30.871,601,554,-39,-338,-376,-324,-238,-183,-177,-166,-154,-155,-151,-145,-142,-135,-135,-138,-132,-128,-121,-116,-106,-93,-85,-71,-55,-41,-30,-8,3,4,14,3,-8,-38,-68,-96,-122,-143,-150,-158,-166,-177,-177,-171,-177,-172,-170,-176,-178,-176,-179,-177,-178,-186,-189,-189,-195,-193,-201,-200,-204,-207,-210,-208,-211,-213,-218,-226,-220,-218,-220,-226,-224,-222,-218,-213,-219,-220,-211,-207,-201,-192,-187,-194,-228,-236,-238,-232,-235,-238,-268,-316,-367,-298,56,425,346,-165,-422,-448,-389,-315,-268,-253,-246,-237,-240,-234,-232,-227,-224,-224,-222,-218,-205,-196,-202,-195,-185,-177,-166,-155,-140,-122,-104,-92
2019-05-15,15:46:31.899,-95,-83,-85,-102,-134,-172,-187,-207,-225,-233,-238,-251,-252,-247,-248,-255,-253,-254,-253,-251,-249,-252,-252,-251,-252,-255,-255,-251,-262,-267,-269,-270,-272,-265,-260,-271,-276,-285,-278,-279,-278,-278,-281,-279,-276,-276,-273,-259,-252,-245,-241,-240,-245,-267,-281,-283,-292,-295,-297,-320,-377,-425,-333,74,487,458,-89,-415,-461,-386,-314,-282,-281,-276,-270,-262,-263,-260,-255,-249,-236,-238,-241,-234,-232,-227,-218,-211,-210,-196,-177,-164,-158,-146,-131,-120,-115,-117,-122,-138,-164,-178,-205,-217,-228,-237,-243,-246,-247,-246,-251,-246,-242,-236,-230,-234,-236,-234,-223,-228,-233,-232,-230,-232,-236,-236,-233,-225
2019-05-15,15:46:32.927,-229,-230,-231,-231,-232,-235,-226,-223,-228,-221,-230,-230,-222,-217,-208,-188,-186,-193,-187,-191,-215,-219,-222,-226,-231,-238,-271,-343,-394,-223,250,652,521,-103,-385,-364,-281,-228,-222,-220,-211,-209,-202,-200,-198,-198,-195,-189,-182,-176,-168,-165,-166,-167,-164,-161,-153,-147,-139,-128,-113,-99,-89,-81,-78,-87,-101,-116,-136,-159,-168,-176,-177,-183,-187,-185,-187,-190,-186,-189,-182,-181,-180,-181,-178,-173,-173,-169,-176,-177,-165,-171,-179,-172,-175,-176,-177,-176,-174,-167,-171,-173,-169,-170,-177,-174,-169,-168,-166,-164,-149,-142,-146,-139,-123,-117,-114,-107,-113,-138,-143,-140,-145,-148,-146,-181,-256,-321
2019-05-15,15:46:33.955,-233,239,756,873,217,-239,-282,-200,-142,-134,-124,-124,-118,-111,-109,-103,-98,-99,-97,-92,-87,-77,-76,-71,-62,-59,-61,-56,-51,-40,-33,-23,-15,-2,12,29,29,14,-4,-16,-28,-36,-39,-43,-45,-45,-45,-43,-48,-46,-49,-47,-43,-41,-41,-40,-36,-32,-39,-40,-35,-37,-43,-39,-39,-42,-40,-34,-33,-34,-36,-40,-34,-31,-35,-33,-27,-30,-31,-30,-27,-28,-22,-28,-30,-24,-26,-20,-11,-4,2,17,21,18,23,16,-4,-15,-19,-28,-25,-26,-54,-130,-216,-180,283,883,1166,505,-80,-191,-122,-59,-46,-46,-44,-38,-30,-32,-29,-25,-17,-22,-16,-11,-6,-8
2019-05-15,15:46:34.983,-12,-6,-4,-2,0,6,11,28,41,56,66,79,83,88,78,57,38,23,9,-8,-15,-14,-14,-18,-19,-20,-15,-16,-22,-23,-24,-27,-32,-29,-31,-24,-30,-30,-31,-33,-35,-30,-36,-31,-34,-37,-39,-35,-35,-33,-31,-37,-34,-31,-39,-45,-46,-46,-42,-46,-44,-39,-44,-42,-41,-41,-38,-36,-26,-11,-9,-5,-13,-31,-39,-43,-42,-51,-56,-73,-125,-197,-209,131,609,825,296,-162,-260,-227,-142,-92,-74,-59,-51,-45,-35,-38,-34,-28,-27,-25,-19,-20,-19,-6,-2,4,15,25,40,52,65,82,92,99,104,99,89,70,38,12,-11,-26,-40,-45,-55,-63
2019-05-15,15:46:36.011,-64,-59,-57,-68,-66,-65,-63,-66,-66,-65,-65,-67,-78,-84,-88,-87,-79,-84,-91,-91,-91,-94,-99,-96,-94,-100,-102,-101,-103,-111,-108,-101,-101,-104,-103,-106,-115,-122,-121,-119,-109,-102,-90,-84,-81,-83,-106,-126,-125,-128,-130,-135,-156,-199,-254,-211,124,484,460,-29,-290,-330,-286,-214,-154,-145,-142,-128,-117,-114,-111,-110,-104,-103,-105,-95,-92,-92,-80,-77,-66,-63,-41,-37,-20,0,12,14,23,24,21,-1,-24,-62,-78,-100,-121,-140,-151,-157,-154,-155,-157,-156,-157,-149,-155,-164,-170,-163,-168,-169,-166,-170,-169,-171,-179,-179,-179,-192,-193,-193,-195,-196,-199,-197,-202,-194
2019-05-15,15:46:37.039,-205,-204,-202,-210,-213,-208,-208,-207,-191,-181,-176,-196,-189,-194,-219,-218,-215,-222,-236,-261,-317,-338,-156,178,382,76,-294,-408,-393,-319,-268,-234,-219,-222,-221,-216,-212,-209,-206,-200,-198,-198,-187,-190,-170,-176,-182,-165,-151,-131,-106,-96,-95,-101,-88,-84,-83,-92,-118,-144,-168,-192,-204,-217,-227,-233,-241,-245,-244,-247,-246,-239,-230,-240,-232,-228,-227,-227,-229,-232,-231,-223,-226,-231,-228,-247,-256,-253,-246,-243,-247,-246,-244,-247,-251,-244,-248,-253,-252,-244,-254,-261,-259,-253,-245,-240,-239,-238,-239,-243,-241,-252,-252,-258,-269,-300,-355,-348,-86,269,394,3,-348,-432,-390,-321,-269,-259
2019-05-15,15:46:38.067,-239,-240,-232,-222,-226,-221,-223,-217,-215,-213,-212,-205,-196,-199,-194,-180,-170,-168,-148,-137,-122,-111,-100,-101,-95,-107,-131,-160,-179,-201,-210,-215,-225,-222,-216,-220,-224,-216,-213,-215,-213,-210,-199,-200,-198,-193,-192,-194,-192,-189,-183,-195,-203,-199,-198,-203,-197,-198,-196,-195,-191,-191,-190,-198,-206,-206,-204,-202,-200,-200,-206,-204,-209,-210,-203,-202,-200,-193,-190,-187,-180,-184,-186,-188,-182,-183,-192,-183,-191,-214,-261,-311,-267,100,499,545,58,-297,-320,-238,-164,-153,-151,-148,-136,-122,-116,-118,-119,-120,-122,-112,-110,-109,-99,-102,-98,-88,-78,-80,-79,-63,-53,-46,-38,-32,-22,-18
2019-05-15,15:46:39.095,-20,-42,-59,-76,-97,-103,-119,-131,-138,-143,-142,-151,-152,-142,-142,-134,-153,-146,-141,-139,-141,-130,-131,-132,-136,-129,-126,-128,-123,-122,-121,-120,-119,-126,-128,-127,-123,-113,-110,-110,-108,-99,-106,-98,-106,-104,-114,-114,-108,-102,-98,-92,-92,-87,-83,-85,-83,-70,-65,-67,-61,-61,-73,-74,-68,-68,-87,-118,-181,-232,-123,308,722,687,96,-219,-204,-123,-72,-70,-71,-62,-63,-62,-53,-47,-42,-37,-35,-31,-36,-31,-30,-24,-13,-9,-7,1,7,14,24,28,42,55,74,90,84,79,68,47,34,36,26,19,25,16,20,28,30,33,36,33,29,32,33,45,48,62
2019-05-15,15:46:40.123,60,59,58,57,51,60,62,62,65,78,80,81,81,78,68,73,76,77,86,90,88,89,88,85,87,95,90,96,100,95,85,98,101,108,114,112,112,132,141,135,136,141,111,110,119,114,111,95,48,-33,-80,200,724,1155,855,165,-55,-6,82,114,115,113,112,117,123,124,127,122,130,134,132,143,147,152,146,143,151,153,151,151,164,172,184,196,202,211,211,211,199,192,178,168,160,146,140,142,132,132,127,128,134,126,122,128,121,119,119,121,115,113,110,109,110,114,112,104,111,108,96,103,95,92,92,90,97,100,97,98
2019-05-15,15:46:41.151,91,81,79,83,89,88,77,80,82,77,78,75,84,90,85,88,98,100,106,105,84,72,74,79,72,72,56,21,-51,-96,161,626,933,530,18,-133,-116,-28,31,57,72,79,71,88,95,95,100,106,105,102,104,114,126,127,134,146,153,170,182,196,208,217,228,233,230,227,208,178,157,132,108,92,88,75,63,57,67,68,68,67,65,65,59,61,58,55,52,45,42,43,41,40,36,34,35,34,20,13,17,14,13,18,15,23,26,19,4,1,7,7,-15,-7,0,20,13,3,17,9,-4,-9,-14,-11,-26,-71,-121,-79,249,589
2019-05-15,15:46:42.179,544,56,-188,-218,-174,-92,-44,-18,-16,-4,1,3,3,15,16,12,13,23,26,29,37,43,52,64,81,91,99,113,127,139,147,146,142,126,101,71,51,28,4,-11,-22,-33,-36,-34,-37,-32,-28,-25,-33,-25,-31,-41,-41,-41,-47,-47,-45,-50,-46,-41,-55,-61,-50,-62,-78,-80,-64,-62,-65,-65,-76,-86,-80,-74,-75,-76,-77,-65,-61,-55,-54,-59,-64,-70,-80,-76,-76,-86,-104,-157,-190,9,343,534,224,-153,-259,-245,-163,-111,-78,-73,-65,-40,-51,-57,-48,-46,-47,-33,-26,-25,-20,-9,-2,1,8,20,32,53,63,81,90,104,105,103,94,73
2019-05-15,15:46:43.207,34,11,-5,-21,-29,-40,-49,-48,-48,-42,-48,-45,-44,-41,-33,-43,-46,-42,-39,-43,-42,-42,-46,-56,-49,-49,-50,-56,-56,-55,-51,-49,-64,-66,-67,-62,-52,-56,-61,-63,-68,-67,-69,-67,-53,-46,-45,-51,-49,-46,-59,-62,-63,-84,-127,-180,-144,175,522,536,92,-187,-240,-189,-116,-79,-65,-64,-57,-50,-43,-44,-42,-45,-38,-33,-30,-34,-31,-19,-13,-6,1,12,22,22,38,58,69,70,72,71,59,45,19,0,-20,-36,-42,-45,-50,-55,-55,-53,-59,-52,-47,-55,-48,-48,-48,-45,-43,-48,-47,-46,-49,-45,-45,-53,-58,-55,-55,-52,-48,-52,-51,-59
2019-05-15,15:46:44.235,-59,-58,-56,-58,-56,-54,-65,-69,-61,-66,-70,-67,-60,-53,-49,-54,-61,-54,-44,-59,-68,-64,-73,-107,-172,-199,-5,391,649,403,-80,-240,-197,-112,-70,-64,-59,-54,-52,-53,-50,-51,-47,-44,-38,-31,-33,-43,-44,-32,-27,-27,-21,-18,-13,1,8,10,26,33,40,41,25,3,-12,-25,-53,-65,-65,-69,-68,-69,-65,-65,-80,-88,-82,-77,-78,-79,-72,-69,-70,-75,-74,-66,-67,-75,-88,-89,-76,-65,-75,-83,-75,-64,-64,-68,-60,-66,-76,-66,-58,-60,-53,-47,-45,-41,-38,-34,-20,-14,-17,-29,-30,-16,-14,-25,-28,-26,-43,-93,-139,-42,342,712,650,107
2019-05-15,15:46:45.263,-158,-133,-41,7,8,16,14,28,34,30,35,33,36,36,33,40,48,55,59,65,75,84,78,81,88,94,104,118,125,132,135,124,106,87,74,60,45,32,26,24,20,21,12,11,17,13,16,8,5,2,10,16,11,10,7,10,9,6,7,14,7,11,14,6,10,9,11,21,20,28,27,20,23,29,22,16,17,23,22,29,34,42,43,37,37,49,47,34,27,34,32,7,-59,-112,-2,404,802,759,189,-106,-81,4,68,65,69,70,81,89,90,90,94,96,102,107,113,119,130,144,137,136,145,154,158,167,181,193,197,198
2019-05-15,15:46:46.291,214,222,208,203,205,191,167,142,135,133,138,145,147,150,148,153,164,159,144,147,151,149,150,151,150,155,155,149,150,150,140,137,141,143,144,147,146,145,144,140,141,141,138,135,134,136,132,134,139,132,130,135,127,130,135,130,139,133,136,139,135,127,130,128,116,79,3,-45,183,634,976,667,89,-85,-32,54,101,109,119,119,121,128,129,134,132,138,136,137,132,138,140,144,146,150,153,159,167,179,189,193,205,205,203,206,192,169,148,136,122,106,99,98,89,87,87,89,89,81,79,79,78,75,72,63,63,67,76,68
2019-05-15,15:46:47.319,68,62,61,55,52,44,47,49,52,43,46,49,50,46,39,34,29,35,30,28,25,27,33,27,29,36,30,32,31,21,11,10,16,-1,-42,-93,-91,203,566,633,161,-146,-202,-161,-82,-18,-4,6,10,12,9,14,25,29,26,30,31,32,35,37,45,64,65,67,74,102,114,110,117,125,127,123,104,78,63,32,10,-3,-20,-21,-26,-32,-39,-30,-28,-28,-37,-33,-33,-33,-36,-37,-40,-52,-48,-51,-57,-58,-60,-67,-70,-69,-70,-70,-72,-72,-76,-80,-90,-82,-83,-91,-93,-88,-76,-75,-74,-73,-73,-82,-94,-96,-86,-117,-163,-196,-113,190
2019-05-15,15:46:48.347,461,331,-95,-267,-289,-229,-160,-112,-93,-91,-79,-71,-70,-68,-68,-67,-62,-59,-55,-50,-40,-32,-18,-17,-12,2,20,27,35,42,46,56,51,40,19,-10,-22,-46,-65,-91,-100,-92,-100,-103,-105,-95,-84,-86,-83,-75,-78,-89,-91,-76,-80,-75,-71,-63,-70,-79,-77,-89,-87,-93,-85,-85,-89,-88,-80,-80,-79,-88,-87,-89,-100,-98,-88,-78,-81,-74,-79,-76,-89,-84,-81,-98,-139,-196,-220,-56,259,484,224,-153,-284,-289,-209,-147,-99,-87,-95,-88,-78,-72,-67,-60,-59,-55,-50,-47,-35,-27,-20,-22,-8,0,9,21,41,47,61,73,67,59,38,17,0,-20
2019-05-15,15:46:49.375,-38,-57,-73,-78,-85,-90,-87,-89,-81,-81,-86,-95,-93,-88,-89,-89,-92,-97,-94,-94,-110,-109,-112,-107,-109,-118,-110,-113,-113,-104,-106,-107,-123,-114,-103,-108,-114,-129,-135,-125,-115,-121,-116,-134,-162,-170,-169,-164,-185,-206,-260,-286,-91,267,475,178,-218,-345,-326,-247,-189,-160,-133,-139,-121,-111,-139,-137,-160,-145,-148,-136,-128,-135,-115,-123,-112,-114,-124,-111,-105,-98,-89,-77,-67,-59,-63,-67,-93,-128,-144,-165,-183,-190,-186,-196,-197,-202,-194,-190,-180,-180,-175,-180,-188,-188,-180,-179,-178,-184,-178,-173,-164,-177,-183,-180,-184,-192,-185,-184,-182,-178,-175,-179,-187,-174,-178,-191
2019-05-15,15:46:50.403,-184,-191,-185,-176,-178,-175,-165,-150,-160,-176,-162,-152,-167,-173,-170,-176,-200,-248,-280,-139,256,551,370,-128,-326,-294,-203,-149,-144,-134,-129,-125,-122,-124,-120,-120,-112,-121,-116,-108,-100,-96,-86,-80,-85,-79,-60,-54,-53,-45,-31,-16,-11,-5,-7,-15,-26,-35,-67,-88,-93,-100,-102,-110,-114,-107,-100,-104,-110,-101,-97,-94,-94,-98,-97,-94,-101,-102,-94,-97,-102,-98,-95,-97,-95,-94,-100,-95,-95,-99,-104,-96,-93,-104,-96,-86,-97,-100,-95,-95,-97,-99,-88,-88,-84,-85,-87,-88,-78,-85,-96,-88,-93,-126,-183,-225,-56,353,663,451,-77,-252,-201,-119,-69,-73,-80,-72
2019-05-15,15:46:51.431,-65,-63,-66,-66,-62,-59,-61,-60,-52,-47,-47,-42,-35,-40,-37,-25,-15,-23,-21,-9,-2,8,11,16,5,-6,-16,-35,-53,-56,-61,-66,-72,-70,-68,-64,-68,-66,-62,-67,-73,-63,-62,-61,-60,-57,-59,-53,-55,-63,-64,-54,-47,-56,-66,-65,-58,-59,-60,-60,-60,-58,-44,-60,-65,-65,-62,-58,-59,-53,-54,-46,-47,-53,-60,-49,-60,-62,-47,-34,-36,-41,-44,-36,-30,-39,-46,-46,-60,-96,-170,-193,93,529,798,407,-105,-208,-136,-67,-45,-46,-34,-33,-34,-24,-19,-26,-22,-19,-20,-13,-7,-9,-7,-7,-8,4,2,-7,-1,11,21,31,34,46,56,63
2019-05-15,15:46:52.459,56,41,26,7,-2,-8,-7,-5,-7,-6,1,4,5,-2,-12,-11,-6,-11,-5,-5,1,3,1,0,6,-9,-4,-4,-9,-3,-1,4,1,12,6,7,6,0,5,10,10,3,9,20,21,20,13,14,14,15,17,12,12,23,24,21,26,43,33,29,43,38,28,18,18,20,0,-50,-105,-67,298,717,763,207,-126,-166,-90,-18,12,18,30,36,36,38,46,51,53,55,54,52,54,60,66,70,68,73,88,100,102,113,119,120,125,133,131,123,104,91,78,55,39,28,23,17,13,16,15,18,20,12,8,15,11,10,8,13,8,6
2019-05-15,15:46:53.487,13,3,7,4,-6,2,-7,-6,-4,2,-6,-6,-5,1,-4,-12,-14,-19,-21,-20,-20,-18,-15,-20,-18,-21,-31,-22,-23,-20,-12,-17,-14,-13,-4,-27,-23,-21,-21,-44,-88,-141,-139,142,509,609,156,-171,-234,-183,-107,-52,-27,-24,-14,-17,-11,-3,-9,-2,2,6,9,14,16,27,34,36,42,51,63,77,91,103,112,110,115,116,104,78,51,33,5,-11,-17,-28,-39,-34,-32,-34,-29,-28,-36,-31,-28,-33,-24,-37,-42,-38,-35,-42,-46,-43,-50,-49,-50,-57,-58,-62,-65,-66,-58,-61,-62,-67,-70,-72,-72,-65,-80,-78,-78,-83,-82,-76,-61,-58
2019-05-15,15:46:54.515,-68,-70,-77,-80,-91,-92,-97,-117,-157,-196,-110,203,497,362,-79,-259,-269,-209,-146,-106,-94,-80,-77,-73,-65,-59,-54,-53,-43,-40,-40,-42,-39,-33,-26,-18,-7,3,16,35,47,50,61,64,56,47,31,8,-12,-37,-57,-65,-75,-82,-84,-84,-87,-88,-86,-83,-84,-79,-76,-82,-77,-77,-82,-86,-88,-91,-91,-91,-93,-99,-104,-97,-101,-114,-116,-109,-108,-110,-116,-116,-115,-112,-122,-115,-115,-116,-122,-124,-120,-110,-103,-104,-102,-100,-98,-111,-123,-123,-128,-146,-197,-237,-107,227,506,337,-105,-274,-291,-219,-157,-124,-117,-107,-101,-96,-94,-86,-88,-93,-81,-84,-82,-75
2019-05-15,15:46:55.543,-69,-59,-53,-45,-40,-33,-22,-8,-3,9,20,29,30,22,9,-17,-45,-65,-75,-84,-96,-98,-104,-109,-102,-97,-97,-104,-101,-96,-97,-91,-90,-101,-94,-92,-105,-100,-108,-113,-111,-112,-112,-117,-119,-113,-122,-122,-119,-124,-122,-121,-133,-130,-125,-117,-115,-123,-119,-126,-123,-125,-126,-127,-126,-123,-121,-116,-103,-106,-113,-113,-106,-112,-119,-116,-116,-137,-180,-232,-202,126,501,552,97,-229,-280,-211,-143,-111,-110,-109,-97,-90,-88,-85,-81,-84,-80,-71,-73,-71,-66,-58,-48,-41,-34,-35,-45,-30,-9,-2,6,20,31,32,22,15,-18,-40,-45,-61,-73,-75,-72,-74,-70,-61
2019-05-15,15:46:56.571,-69,-76,-71,-68,-62,-65,-62,-52,-54,-52,-55,-56,-45,-49,-55,-55,-52,-57,-56,-48,-48,-48,-45,-53,-49,-50,-47,-44,-51,-41,-35,-40,-40,-39,-40,-34,-29,-30,-27,-27,-18,-15,-23,-12,-12,-22,-13,-1,-5,-7,-16,-18,-39,-94,-137,-43,342,697,625,92,-170,-146,-58,-7,-5,5,13,11,11,11,12,13,18,28,27,31,43,48,45,48,50,45,47,53,71,75,76,97,110,123,129,118,106,88,65,50,43,40,41,40,43,42,42,41,47,47,50,51,52,58,61,58,64,65,67,54,58,61,59,64,65,64,66,66,68,70,61,67
2019-05-15,15:46:57.599,72,72,64,63,53,62,64,62,70,76,80,83,81,81,84,78,80,78,78,87,87,88,87,94,101,106,95,92,102,113,105,101,105,93,55,-25,-53,161,597,924,664,113,-62,-3,72,102,95,101,111,118,123,125,119,121,120,123,132,131,126,129,140,141,136,144,148,149,153,166,171,172,184,192,188,187,176,168,155,148,141,123,114,103,103,107,109,113,112,113,111,114,120,115,107,112,104,94,96,99,105,108,118,118,123,131,137,124,110,109,115,126,127,131,135,144,139,134,144,130,125,125,130,139,144,143,143,153,148,129
2019-05-15,15:46:58.627,130,127,125,120,123,123,128,130,135,141,149,152,126,119,111,112,123,105,53,-17,-20,305,761,977,498,17,-77,-13,69,94,94,95,103,110,108,109,114,111,110,101,108,113,116,123,133,136,137,140,146,155,156,167,192,196,206,204,199,192,177,157,133,113,107,101,96,91,88,92,87,80,80,81,77,79,82,82,76,75,68,67,65,58,67,67,61,61,62,60,44,43,45,50,47,44,35,40,28,30,34,30,29,33,23,20,23,24,20,15,14,8,20,25,28,21,21,28,21,14,5,-4,-7,-42,-106,-139,87,475,734,319
2019-05-15,15:46:59.655,-101,-208,-191,-106,-47,-14,-7,-4,9,13,7,18,20,18,17,20,16,21,33,35,53,66,77,83,94,106,107,117,128,133,132,129,107,82,50,38,23,0,-21,-22,-19,-11,-9,-8,-8,4,6,10,1,2,4,5,-1,1,-3,2,-11,-13,-1,9,8,13,21,0,-12,-15,-13,-10,-6,-1,-4,-2,-8,-19,-16,-27,-33,-28,-32,-31,-24,-19,-22,-42,-46,-58,-53,-60,-65,-82,-145,-177,-15,331,581,288,-120,-234,-223,-155,-90,-55,-43,-33,-15,-14,-22,-17,-10,-8,-4,7,6,6,23,21,33,45,62,67,73,97,105,115,117,125,116,100
2019-05-15,15:47:00.683,81,56,19,-4,-16,-30,-38,-47,-49,-56,-59,-57,-45,-42,-47,-46,-48,-45,-41,-34,-41,-46,-44,-50,-51,-56,-58,-57,-26,-65,-71,-72,-66,-81,-89,-103,-105,-105,-107,-113,-114,-117,-116,-112,-118,-116,-112,-123,-117,-112,-116,-130,-132,-129,-147,-172,-220,-229,11,338,485,91,-240,-298,-278,-213,-156,-130,-118,-121,-120,-119,-130,-117,-107,-105,-95,-91,-88,-87,-79,-74,-71,-73,-61,-55,-31,-17,-6,12,29,20,8,-2,-38,-55,-84,-105,-111,-119,-121,-128,-131,-132,-130,-124,-129,-135,-129,-125,-126,-127,-128,-121,-125,-126,-128,-134,-134,-137,-144,-145,-147,-144,-144,-145,-144,-145
2019-05-15,15:47:01.711,-140,-141,-144,-144,-147,-152,-144,-145,-145,-151,-150,-140,-126,-126,-120,-118,-125,-128,-138,-136,-135,-163,-208,-253,-168,182,537,485,-7,-269,-297,-235,-164,-132,-127,-123,-110,-108,-94,-94,-103,-97,-87,-84,-84,-77,-75,-68,-66,-57,-45,-35,-30,-21,-4,2,13,20,23,20,7,-1,-21,-47,-66,-73,-83,-88,-93,-90,-87,-80,-79,-75,-65,-67,-72,-73,-70,-64,-65,-63,-66,-63,-63,-65,-59,-66,-64,-67,-71,-75,-66,-65,-68,-68,-66,-67,-63,-61,-63,-61,-57,-64,-64,-68,-69,-72,-62,-54,-56,-61,-65,-59,-53,-61,-62,-64,-70,-89,-164,-205,6,439,756,514,-18,-213
2019-05-15,15:47:02.739,-170,-85,-53,-53,-52,-45,-33,-34,-35,-33,-29,-20,-19,-18,-15,-16,-11,-12,-2,6,15,17,14,25,41,59,66,71,83,87,75,64,44,29,14,5,5,-4,-11,-8,-10,-15,-9,-14,-9,-10,-11,-21,-8,-6,-11,-8,0,-14,-14,-7,-12,-11,-8,-3,-6,-8,-7,-9,-16,-15,-7,-8,-8,0,4,2,1,3,-1,1,4,-2,3,11,16,25,25,27,26,24,18,3,3,-13,-51,-115,-119,194,649,882,465,-36,-133,-62,-3,11,8,14,25,24,27,31,28,29,26,33,35,41,39,44,47,49,54,57,63,65,75,89,98,113,120,122
2019-05-15,15:47:03.767,123,112,101,87,69,48,47,44,45,43,35,37,38,43,44,42,42,47,47,54,54,48,49,54,53,51,54,58,51,49,54,57,54,58,57,56,54,60,62,55,62,56,54,58,62,61,62,63,60,60,59,62,59,57,54,57,53,67,73,75,72,73,77,77,69,67,62,44,2,-72,-85,226,720,1029,621,67,-67,-12,54,70,69,68,73,74,79,82,79,84,81,86,85,91,98,99,100,105,98,99,105,114,119,128,141,147,159,168,169,164,158,144,131,118,110,97,97,96,94,100,102,92,94,99,95,92,95,94,92,94
2019-05-15,15:47:04.795,95,95,96,93,90,93,90,94,95,91,89,92,94,87,85,86,90,90,88,90,91,86,91,88,81,82,89,81,82,81,81,84,87,86,85,84,89,92,91,94,101,99,95,95,110,98,87,87,92,73,22,-47,-59,273,753,1002,528,35,-76,-34,40,71,75,83,88,87,87,98,103,100,102,106,102,105,106,103,105,108,115,118,117,128,131,146,154,162,164,161,156,142,125,107,84,77,59,50,43,41,36,37,35,33,36,39,39,32,28,34,33,27,29,28,29,28,21,18,21,20,18,19,11,11,13,8,9,12,9,8
2019-05-15,15:47:05.823,13,10,5,7,5,3,6,4,0,0,7,5,7,8,3,-4,0,-3,2,12,1,-1,5,-1,-9,-11,-12,-22,-67,-127,-106,218,617,708,214,-127,-192,-148,-74,-34,-23,-18,-8,-4,-6,-3,1,5,1,3,8,8,11,17,23,26,35,41,54,60,70,81,89,98,106,98,92,76,58,26,-3,-16,-29,-31,-44,-43,-41,-46,-50,-44,-45,-47,-46,-53,-53,-53,-49,-52,-57,-55,-63,-62,-66,-68,-68,-72,-70,-78,-77,-78,-76,-75,-71,-71,-82,-80,-78,-80,-83,-82,-81,-87,-90,-86,-88,-88,-87,-80,-72,-83,-76,-78,-84,-87,-95,-94,-103,-126
2019-05-15,15:47:06.851,-174,-202,-36,322,609,336,-121,-261,-251,-189,-137,-107,-98,-84,-80,-80,-79,-69,-66,-70,-72,-58,-53,-58,-49,-40,-31,-29,-23,-11,4,22,32,40,45,58,58,51,31,10,-22,-44,-58,-68,-76,-78,-81,-82,-83,-83,-85,-84,-82,-73,-76,-73,-74,-76,-78,-77,-84,-80,-81,-81,-88,-88,-87,-88,-87,-88,-88,-87,-86,-89,-89,-91,-92,-93,-92,-89,-92,-95,-91,-91,-92,-91,-88,-91,-94,-91,-93,-96,-88,-81,-73,-76,-80,-75,-72,-84,-88,-84,-95,-131,-195,-215,41,447,674,306,-135,-249,-217,-149,-100,-89,-81,-75,-68,-55,-60,-59,-54,-47,-46,-44,-42,-39
2019-05-15,15:47:07.879,-44,-34,-21,-20,-17,-8,6,16,27,41,48,55,55,50,31,21,-2,-28,-38,-54,-59,-71,-66,-62,-67,-61,-58,-62,-63,-62,-50,-55,-56,-51,-46,-52,-55,-52,-49,-52,-49,-51,-57,-49,-51,-56,-58,-62,-58,-58,-60,-55,-57,-53,-56,-52,-52,-55,-51,-48,-53,-52,-50,-46,-51,-49,-45,-47,-48,-33,-27,-32,-40,-35,-31,-26,-32,-35,-43,-58,-92,-155,-175,89,529,786,453,-60,-203,-145,-74,-34,-35,-31,-24,-22,-22,-21,-14,-17,-10,-7,-3,1,1,-4,4,6,4,17,27,41,49,60,62,74,84,92,94,83,67,53,37,27,15,11,8,7
2019-05-15,15:47:08.907,7,2,4,5,1,3,12,13,11,18,18,17,18,20,21,23,20,26,25,24,20,27,29,29,26,28,29,25,32,28,33,32,28,30,29,24,27,33,31,29,29,32,31,28,30,27,26,30,35,41,46,53,47,38,44,51,50,45,42,40,22,-33,-93,-31,379,815,889,324,-59,-82,-10,44,41,41,46,50,53,57,62,64,71,71,71,72,70,71,76,83,84,84,89,94,105,108,114,133,143,150,160,166,158,137,120,112,90,84,75,71,76,80,70,69,66,65,65,71,70,74,76,77,81,79,78,80,73,69,72,81
2019-05-15,15:47:09.936,82,68,64,74,73,75,83,77,74,79,82,83,76,80,80,77,77,83,79,85,90,92,85,88,87,89,83,91,92,92,86,87,95,106,103,106,97,94,101,110,100,92,97,92,60,-19,-74,61,524,978,940,300,-23,-21,47,86,84,90,95,98,97,97,104,104,100,101,104,105,103,106,112,109,112,114,108,109,116,127,138,149,163,168,179,177,174,155,148,132,115,101,105,98,97,99,102,97,96,103,104,97,90,99,96,91,98,96,92,96,99,94,85,92,90,87,86,89,94,96,98,94,90,88,92,94,86,81,85,87
2019-05-15,15:47:10.964,83,83,81,83,81,82,82,79,79,77,79,83,83,87,95,93,70,65,75,78,81,80,77,88,89,74,77,76,58,10,-67,-73,246,736,1011,541,30,-90,-48,27,67,61,68,74,71,77,81,86,84,88,94,93,101,100,93,96,104,106,112,119,131,139,154,171,174,182,185,185,171,151,128,112,93,89,78,72,64,56,63,55,56,54,55,57,55,61,58,57,54,56,50,43,45,43,35,43,42,42,43,35,36,31,30,28,22,19,23,17,15,11,17,7,1,-12,-8,-3,-9,-8,-9,-10,-17,-13,-15,-22,-21,-17,-14,-8
2019-05-15,15:47:11.992,-19,-20,-15,-19,-23,-31,-32,-41,-75,-139,-168,65,466,730,356,-103,-218,-204,-131,-72,-49,-47,-45,-37,-36,-28,-26,-27,-26,-25,-18,-18,-19,-17,-3,-1,4,13,19,32,47,59,71,82,88,84,74,55,33,9,-29,-46,-61,-70,-74,-79,-80,-79,-80,-81,-87,-88,-87,-94,-93,-90,-87,-83,-90,-92,-92,-98,-100,-108,-108,-117,-112,-110,-112,-121,-115,-114,-120,-118,-124,-125,-128,-125,-130,-132,-136,-132,-130,-139,-134,-132,-131,-125,-124,-126,-123,-124,-132,-134,-130,-138,-152,-192,-241,-228,68,437,521,69,-256,-306,-273,-203,-156,-135,-133,-130,-125,-121,-119,-114,-115,-116
2019-05-15,15:47:13.020,-104,-97,-94,-96,-85,-84,-76,-77,-65,-47,-37,-18,-4,17,25,25,24,12,-21,-56,-73,-86,-99,-111,-126,-132,-131,-126,-116,-118,-123,-131,-124,-123,-127,-119,-121,-121,-119,-121,-124,-126,-125,-122,-133,-135,-127,-132,-138,-140,-136,-141,-141,-140,-139,-134,-138,-141,-143,-143,-148,-147,-142,-148,-147,-148,-142,-132,-129,-127,-132,-128,-135,-146,-148,-151,-165,-203,-254,-183,169,504,469,-24,-288,-320,-259,-194,-164,-152,-146,-147,-142,-136,-129,-124,-124,-129,-125,-117,-114,-112,-104,-101,-97,-86,-76,-64,-49,-35,-22,-9,-1,5,-2,-22,-34,-56,-83,-100,-108,-123,-117,-138,-139,-141,-138,-136
2019-05-15,15:47:14.048,-129,-127,-132,-131,-136,-133,-134,-126,-126,-120,-124,-126,-123,-123,-121,-119,-128,-128,-125,-125,-126,-127,-125,-122,-124,-118,-129,-131,-132,-133,-128,-131,-131,-131,-129,-122,-120,-125,-128,-126,-120,-117,-108,-116,-113,-112,-111,-120,-123,-116,-127,-162,-226,-257,-21,405,673,367,-131,-277,-237,-161,-120,-111,-104,-103,-98,-100,-101,-103,-99,-96,-92,-88,-77,-72,-62,-67,-72,-67,-60,-53,-44,-29,-21,-3,15,22,33,28,5,-16,-37,-49,-55,-65,-75,-79,-73,-65,-71,-80,-79,-77,-82,-79,-71,-83,-82,-70,-63,-70,-70,-67,-64,-58,-57,-60,-57,-59,-66,-61,-60,-59,-42,-48,-51,-53
2019-05-15,15:47:15.076,-56,-57,-51,-44,-39,-35,-34,-37,-33,-27,-30,-32,-29,-21,-15,-18,-15,-17,-9,1,4,2,-1,0,12,7,-6,-4,-13,-60,-126,-124,177,626,849,444,-43,-142,-80,-12,3,11,12,11,15,18,18,17,18,24,27,31,37,38,47,52,45,52,50,51,65,73,85,103,103,118,134,127,117,102,80,62,51,44,40,27,16,17,22,20,14,12,21,30,28,13,10,15,20,21,25,27,36,30,24,16,13,7,3,10,12,14,17,5,6,12,2,0,0,2,-1,2,3,5,1,-5,-4,-7,-1,-4,-6,-5,0,-1,-6,-7,-2,10
2019-05-15,15:47:16.104,13,14,16,17,14,6,6,6,-37,-116,-144,149,618,924,546,-4,-143,-77,3,28,22,21,30,35,35,36,44,53,60,61,50,56,71,59,58,66,74,77,73,78,84,95,106,119,136,145,149,140,124,110,87,67,57,51,47,47,48,52,49,64,68,53,60,58,52,62,78,72,69,71,76,80,80,76,88,96,103,96,98,92,96,107,112,115,116,110,114,124,133,125,114,124,126,127,125,127,130,120,117,117,105,110,106,113,121,117,124,130,128,120,120,125,113,105,108,113,99,47,-41,-65,261,797,1149,677,62,-90,-27,60
2019-05-15,15:47:17.132,88,90,101,92,93,96,104,111,98,98,107,109,113,114,117,123,122,123,120,121,128,140,150,158,167,175,186,184,175,169,164,122,91,89,75,69,79,82,73,74,81,75,69,65,69,69,69,68,65,74,77,71,69,70,75,67,63,65,64,60,58,61,73,66,60,55,45,48,50,54,59,54,51,53,60,47,45,36,35,37,40,38,43,58,52,54,53,51,43,31,31,31,12,-36,-99,-44,342,784,808,230,-104,-164,-102,-26,20,14,21,26,32,39,42,34,30,37,51,55,56,57,63,66,73,71,76,94,117,123,141,157
2019-05-15,15:47:18.160,174,172,145,136,129,103,77,53,40,46,42,48,41,33,30,25,28,34,38,40,44,46,45,44,53,48,44,56,45,36,34,40,34,40,41,48,38,31,23,22,25,20,18,13,14,14,15,20,17,18,23,25,36,48,24,11,13,14,1,-35,-94,-105,168,532,700,274,-85,-160,-140,-66,-17,9,16,37,40,39,48,49,41,40,54,62,72,86,85,83,111,124,117,145,164,189,198,214,233,232,224,205,178,152,120,104,94,84,75,71,70,75,74,71,78,75,62,69,71,62,63,68,57,48,41,47,50,42,42,44,42,40
2019-05-15,15:47:19.188,39,40,44,43,31,41,46,55,49,49,38,30,34,44,46,54,57,54,56,53,29,32,26,18,-20,-67,-57,209,534,597,177,-108,-154,-120,-49,6,25,28,30,28,33,39,40,40,47,59,60,58,63,68,76,77,82,89,104,118,136,155,165,173,175,165,142,116,84,50,27,11,-1,-10,-5,-12,-11,-3,-7,-16,-16,-19,-13,-16,-11,-7,-4,-9,-11,-9,-10,-22,-31,-37,-34,-36,-31,-32,-34,-26,-21,-26,-20,-19,-27,-39,-35,-34,-33,-26,-24,-23,-4,-5,-4,-9,-18,-32,-26,-24,-39,-74,-131,-131,126,483,654,263,-115,-202,-166,-98
2019-05-15,15:47:20.216,-49,-37,-32,-32,-28,-25,-20,-17,-15,-3,-3,2,5,2,10,15,18,28,33,45,63,80,97,100,108,115,121,104,85,53,22,5,-7,-7,-19,-26,-31,-31,-33,-32,-31,-28,-34,-33,-24,-28,-33,-26,-26,-32,-31,-28,-24,-28,-27,-32,-38,-36,-40,-36,-39,-34,-32,-33,-40,-43,-40,-39,-46,-40,-39,-47,-48,-54,-47,-42,-37,-34,-40,-46,-40,-39,-50,-43,-44,-66,-122,-174,-123,221,605,632,142,-183,-235,-177,-106,-74,-76,-67,-67,-67,-60,-60,-58,-56,-56,-55,-51,-50,-52,-53,-50,-26,-16,-20,-29,-19,0,15,33,45,51,54,47,32,-6,-32
2019-05-15,15:47:21.244,-46,-59,-77,-84,-81,-85,-89,-89,-96,-91,-93,-95,-101,-103,-109,-108,-104,-101,-95,-95,-83,-93,-105,-101,-104,-110,-112,-104,-110,-113,-112,-108,-111,-112,-112,-113,-122,-125,-123,-128,-127,-124,-121,-104,-96,-124,-123,-116,-127,-134,-142,-118,-119,-136,-137,-143,-179,-242,-281,-192,216,612,616,54,-291,-299,-212,-156,-141,-122,-118,-126,-121,-125,-121,-118,-116,-109,-107,-100,-94,-89,-81,-78,-72,-77,-75,-78,-61,-44,-26,-13,-1,6,13,12,-8,-35,-62,-71,-81,-88,-94,-98,-95,-98,-99,-95,-92,-86,-83,-96,-96,-93,-88,-82,-83,-87,-89,-85,-90,-91,-86,-81,-87,-63,-73,-123
2019-05-15,15:47:22.272,-141,-131,-125,-120,-115,-114,-121,-123,-129,-104,-78,-108,-151,-156,-144,-135,-131,-126,-128,-122,-118,-111,-108,-101,-93,-90,-91,-86,-86,-103,-108,-106,-103,-105,-128,-193,-266,-226,183,676,843,291,-188,-269,-185,-120,-106,-109,-107,-103,-98,-86,-81,-73,-70,-64,-56,-51,-39,-37,-28,-20,-20,-21,-23,-16,-6,0,16,35,47,65,66,65,52,35,24,12,2,-9,-12,-13,-13,-6,-7,-9,-3,0,6,13,5,1,4,6,9,11,12,14,17,32,34,23,10,8,6,5,9,17,22,24,27,28,32,33,36,37,39,44,42,45,40,45,46,46,48,48,47,51
2019-05-15,15:47:23.300,55,61,68,76,84,87,89,83,64,48,50,48,47,46,12,-57,-142,-108,327,874,1142,555,-11,-113,-45,20,21,18,24,27,27,35,30,33,12,-1,3,11,51,53,43,40,37,30,26,27,33,38,48,55,69,84,94,100,95,83,62,42,35,21,15,13,9,9,4,3,-1,-1,2,-1,-5,-3,-9,-9,-7,-8,-6,-6,-12,-13,-14,-15,-17,-17,-18,-19,-19,-17,-20,-21,-23,-20,-19,-22,-25,-24,-26,-33,-35,-34,-36,-36,-40,-37,-34,-33,-31,-23,-7,-8,-4,-10,-29,-33,-32,-44,-50,-55,-75,-123,-197,-200,152,667,923,400,-118,-248
2019-05-15,15:47:24.328,-212,-140,-89,-68,-49,-39,-27,-30,-39,-32,-30,-24,-17,-14,-7,1,15,15,24,31,40,52,71,72,79,86,100,111,121,121,85,60,47,28,17,16,1,-25,-39,-32,-30,-30,-26,-20,-19,-18,-15,-21,-19,-16,-19,-27,-28,-28,-21,-26,-27,-26,-26,-31,-34,-36,-32,-32,-36,-40,-40,-43,-51,-48,-45,-50,-47,-48,-49,-50,-44,-46,-43,-33,-26,-15,-17,-14,-29,-53,-59,-66,-69,-67,-77,-97,-155,-202,-95,289,649,526,0,-227,-254,-188,-118,-75,-69,-67,-59,-51,-45,-42,-43,-39,-37,-30,-28,-24,-17,-5,5,12,26,25,38,56,75,88,101,108
2019-05-15,15:47:25.356,102,97,73,50,24,-2,-22,-35,-37,-49,-59,-59,-54,-55,-49,-53,-53,-63,-57,-58,-53,-48,-50,-58,-60,-65,-62,-64,-71,-69,-75,-72,-75,-78,-79,-80,-76,-85,-79,-87,-82,-87,-92,-90,-90,-89,-82,-82,-77,-83,-84,-96,-101,-99,-97,-111,-148,-193,-187,87,431,548,96,-233,-289,-247,-163,-112,-93,-81,-53,-42,-56,-65,-66,-72,-64,-60,-48,-43,-36,-31,-16,-1,-4,3,18,36,57,77,93,100,102,91,78,45,19,-4,-16,-37,-49,-56,-46,-54,-60,-52,-55,-52,-59,-54,-57,-59,-60,-62,-57,-64,-66,-79,-67,-75,-76,-78,-84,-87,-83,-77,-77,-79
2019-05-15,15:47:26.384,-80,-79,-82,-75,-78,-75,-76,-81,-78,-80,-76,-67,-61,-58,-60,-59,-64,-70,-75,-70,-76,-112,-159,-172,62,412,574,211,-158,-245,-211,-136,-83,-67,-62,-56,-55,-52,-47,-46,-43,-48,-45,-44,-39,-39,-38,-30,-28,-21,-14,-2,8,14,30,39,49,49,52,41,17,-8,-28,-46,-56,-63,-72,-70,-74,-73,-74,-67,-68,-66,-66,-68,-66,-62,-62,-60,-60,-58,-59,-64,-65,-63,-67,-68,-70,-68,-71,-72,-71,-70,-69,-71,-68,-68,-69,-70,-69,-67,-67,-69,-64,-64,-65,-72,-67,-63,-50,-47,-50,-48,-50,-51,-58,-60,-61,-77,-132,-180,-109,250,618,598,99,-195
2019-05-15,15:47:27.412,-222,-152,-85,-57,-52,-43,-38,-36,-32,-32,-33,-25,-24,-17,-15,-13,-11,-9,-5,-1,2,13,25,34,56,67,77,87,95,89,77,58,37,18,-1,-15,-19,-27,-29,-28,-37,-35,-34,-32,-33,-33,-29,-31,-29,-26,-26,-27,-25,-27,-29,-27,-28,-29,-30,-30,-33,-32,-26,-25,-24,-22,-26,-24,-21,-22,-22,-24,-23,-24,-24,-24,-23,-19,-25,-21,-17,-11,-5,-5,-12,-12,-6,-9,-17,-18,-16,-42,-97,-147,-68,321,709,705,161,-157,-151,-68,-12,-10,-9,-1,2,4,10,13,14,16,21,19,19,20,25,28,28,33,38,40,50,61,74,81,88,99
2019-05-15,15:47:28.440,108,113,105,93,73,52,35,26,15,11,9,11,8,7,11,10,9,10,12,12,11,8,9,15,15,16,16,18,19,16,18,18,20,17,18,18,18,22,22,21,22,21,21,22,24,24,26,29,29,32,34,30,31,34,32,33,30,33,38,41,44,39,35,45,44,33,36,37,29,-4,-81,-115,113,569,914,673,84,-97,-43,35,57,51,53,56,62,63,67,68,70,76,79,79,78,82,80,88,91,91,93,92,99,108,117,129,140,154,165,174,170,155,140,126,114,106,98,96,98,92,93,92,91,89,91,87,85,85,83,82
2019-05-15,15:47:29.468,85,85,89,86,88,88,86,87,86,85,86,83,81,80,82,83,83,85,86,85,87,88,89,85,88,88,82,84,84,83,79,82,81,78,79,78,87,89,87,87,97,107,99,97,99,92,76,77,75,73,47,-18,-84,-44,364,854,998,402,-32,-99,-34,35,52,50,61,67,69,67,66,72,76,76,80,79,84,86,89,88,93,99,105,114,123,137,148,164,174,178,181,179,166,147,124,110,94,83,76,72,68,68,67,65,66,63,64,65,60,62,60,62,60,61,62,61,60,60,59,53,52,48,46,49,43,46,44,46,46,44
2019-05-15,15:47:30.496,39,36,40,35,34,38,35,36,40,34,37,35,33,31,32,34,45,42,37,34,40,32,24,28,31,7,-37,-97,-76,251,643,726,212,-111,-172,-132,-56,-5,14,18,29,28,31,34,36,37,42,41,46,50,53,57,59,64,70,89,99,119,130,138,151,158,165,156,144,114,88,64,45,27,16,4,-6,-5,-3,-5,-5,-6,-7,-5,-7,-2,-10,-8,-10,-12,-10,-15,-14,-17,-19,-25,-25,-21,-29,-29,-36,-32,-30,-34,-31,-41,-42,-42,-42,-45,-47,-50,-56,-53,-41,-44,-40,-37,-41,-51,-60,-59,-61,-76,-118,-162,-138,155,491,517,65,-211
2019-05-15,15:47:31.524,-253,-213,-139,-93,-83,-77,-66,-68,-68,-66,-60,-59,-56,-55,-55,-53,-50,-39,-35,-32,-18,-9,1,12,29,39,55,54,57,52,29,3,-30,-49,-70,-89,-95,-102,-114,-116,-116,-115,-118,-111,-113,-117,-116,-113,-116,-115,-116,-113,-116,-124,-127,-132,-135,-134,-135,-140,-142,-143,-141,-148,-145,-149,-147,-154,-155,-157,-162,-161,-163,-162,-165,-162,-164,-161,-155,-150,-151,-152,-150,-162,-169,-166,-171,-189,-242,-281,-197,140,457,364,-104,-322,-340,-277,-218,-181,-178,-167,-161,-158,-159,-154,-151,-148,-145,-145,-139,-135,-126,-124,-116,-113,-107,-96,-84,-71,-58,-46,-30,-32,-22,-27,-45,-68
2019-05-15,15:47:32.552,-86,-107,-125,-140,-147,-150,-156,-157,-150,-151,-150,-149,-145,-141,-143,-139,-136,-141,-138,-135,-136,-137,-141,-141,-140,-145,-143,-145,-145,-142,-139,-139,-139,-144,-139,-141,-143,-141,-140,-142,-140,-138,-139,-136,-138,-137,-136,-141,-136,-133,-120,-118,-130,-122,-118,-125,-136,-135,-138,-159,-208,-253,-167,201,564,507,3,-272,-291,-218,-153,-131,-125,-115,-111,-107,-105,-104,-101,-97,-92,-90,-87,-78,-77,-74,-71,-66,-62,-47,-36,-30,-17,-3,12,20,27,30,21,4,-18,-39,-49,-65,-73,-72,-78,-81,-80,-78,-78,-76,-75,-73,-75,-71,-69,-66,-63,-63,-60,-60,-63,-60,-61,-61,-63,-63
2019-05-15,15:47:33.580,-66,-68,-67,-69,-64,-65,-64,-60,-57,-62,-63,-62,-59,-57,-60,-58,-55,-61,-59,-54,-46,-39,-41,-43,-42,-33,-38,-48,-50,-55,-78,-142,-184,-61,341,711,625,74,-196,-172,-89,-44,-45,-39,-33,-28,-25,-24,-24,-23,-18,-17,-14,-12,-10,-6,-5,0,3,10,17,22,32,43,58,71,81,89,94,88,72,53,37,20,9,4,-5,-5,-8,-5,-6,-1,-4,-3,-1,1,1,1,3,8,7,3,8,7,10,11,11,12,12,13,14,14,10,10,13,16,17,16,14,17,18,17,15,17,18,21,18,25,28,37,35,37,43,49,52,46,41,56
2019-05-15,15:47:34.608,52,44,41,41,25,-26,-96,-82,269,721,920,444,-27,-94,-25,38,42,44,43,52,54,56,62,64,58,60,62,68,67,70,71,76,76,77,83,83,90,101,109,120,131,143,154,159,145,132,117,105,95,84,78,77,76,79,77,75,76,79,78,76,78,76,77,76,74,76,74,72,72,71,71,74,68,67,66,72,73,71,73,74,70,73,71,69,68,71,72,69,71,74,72,71,72,73,77,76,80,81,79,77,83,95,95,91,95,98,90,83,85,85,60,-3,-78,-27,386,884,1032,423,-16,-67,6,67,71,69,74,79,82,84
2019-05-15,15:47:35.636,84,84,84,84,86,85,93,92,91,89,86,87,90,96,100,110,122,131,138,148,155,151,142,131,115,101,93,85,77,72,72,69,71,70,68,71,68,70,69,64,61,59,60,61,58,57,58,60,56,57,56,53,49,49,46,47,46,48,48,47,46,41,43,47,46,47,40,41,41,35,37,38,36,34,33,29,32,31,41,39,33,35,38,27,19,22,22,0,-47,-117,-102,251,705,854,333,-67,-144,-122,-55,-24,-15,-7,-1,0,1,5,7,8,13,16,16,21,28,33,31,35,45,45,53,69,87,97,103,115,119,118,113,94
2019-05-15,15:47:36.664,70,50,27,11,-3,-11,-14,-14,-22,-23,-18,-16,-19,-23,-18,-19,-24,-30,-32,-32,-29,-36,-40,-39,-42,-45,-48,-51,-52,-55,-60,-58,-61,-64,-58,-69,-70,-68,-71,-76,-72,-75,-80,-82,-82,-82,-86,-87,-86,-90,-83,-79,-77,-78,-81,-83,-90,-100,-100,-98,-115,-152,-207,-213,74,454,590,138,-219,-294,-260,-178,-136,-122,-117,-109,-103,-97,-92,-92,-88,-85,-81,-78,-80,-75,-67,-65,-59,-47,-37,-26,-9,4,15,23,31,39,31,17,-10,-35,-58,-87,-98,-108,-117,-125,-120,-125,-126,-134,-135,-135,-130,-128,-131,-132,-137,-139,-141,-136,-137,-137,-140,-143,-146,-151
2019-05-15,15:47:37.692,-156,-157,-156,-158,-161,-161,-162,-164,-165,-166,-168,-166,-164,-167,-173,-167,-173,-169,-155,-162,-157,-162,-163,-171,-173,-176,-179,-205,-251,-293,-152,177,445,233,-196,-350,-348,-284,-221,-185,-177,-171,-167,-162,-157,-151,-153,-154,-153,-148,-141,-135,-129,-126,-118,-108,-93,-80,-74,-54,-40,-28,-14,-11,-16,-30,-60,-86,-109,-130,-153,-164,-177,-180,-181,-180,-180,-185,-182,-182,-184,-182,-179,-177,-176,-184,-181,-171,-176,-180,-175,-176,-183,-181,-182,-187,-185,-186,-188,-183,-184,-186,-185,-184,-183,-186,-185,-186,-184,-181,-185,-185,-182,-176,-171,-165,-167,-170,-172,-184,-184,-186,-197,-233,-280,-275,-1,356
2019-05-15,15:47:38.720,466,52,-278,-348,-306,-231,-182,-172,-164,-157,-155,-149,-142,-141,-133,-138,-129,-123,-121,-113,-109,-104,-93,-92,-80,-69,-58,-39,-28,-18,-10,-5,-7,-16,-36,-57,-81,-96,-110,-117,-122,-127,-127,-125,-132,-130,-131,-128,-126,-123,-117,-117,-114,-111,-111,-109,-113,-111,-108,-109,-109,-110,-105,-110,-108,-109,-109,-110,-110,-112,-113,-109,-109,-113,-111,-109,-108,-106,-105,-105,-106,-105,-105,-106,-104,-103,-97,-94,-85,-87,-92,-93,-83,-86,-92,-93,-99,-117,-167,-215,-131,240,606,562,57,-229,-252,-179,-113,-91,-93,-80,-70,-69,-70,-67,-65,-63,-57,-51,-46,-42,-39,-36,-36,-31,-22,-14
2019-05-15,15:47:39.748,-6,6,21,33,47,52,57,56,48,33,14,-5,-22,-36,-46,-50,-53,-56,-59,-61,-59,-60,-57,-58,-60,-53,-52,-52,-49,-51,-52,-48,-49,-53,-51,-51,-51,-52,-49,-55,-52,-47,-47,-45,-47,-48,-49,-47,-50,-55,-53,-54,-52,-51,-53,-52,-49,-48,-46,-47,-48,-45,-40,-31,-32,-37,-34,-25,-31,-41,-38,-40,-65,-123,-169,-95,292,684,679,140,-180,-186,-106,-44,-34,-29,-20,-19,-17,-18,-17,-13,-13,-13,-9,-7,-2,-2,2,4,5,9,15,23,36,51,65,75,83,90,98,92,75,56,38,20,9,-2,-6,-10,-11,-12,-10,-11,-13,-13,-8,-7
2019-05-15,15:47:40.776,-1,0,-1,2,7,9,9,10,11,16,15,13,11,8,8,9,10,10,13,13,11,14,11,10,14,16,13,13,15,14,13,15,16,15,15,20,19,19,17,28,30,27,36,44,40,36,37,44,35,25,27,26,15,-32,-103,-109,199,665,923,514,-9,-119,-56,12,25,23,32,37,36,39,40,36,40,41,42,47,52,56,55,57,59,65,63,69,74,87,97,109,120,131,138,146,137,122,106,95,75,68,58,54,53,52,49,52,51,48,48,53,54,54,55,56,55,56,59,57,57,55,54,51,50,48,50,47,50,47,46,44
2019-05-15,15:47:41.804,48,46,45,46,45,42,43,46,46,47,48,46,48,44,42,44,45,39,37,42,44,48,50,51,55,65,73,70,68,64,48,44,42,45,41,37,7,-65,-120,-5,425,861,802,199,-106,-126,-56,-1,17,25,25,27,31,31,32,37,39,42,41,43,46,48,51,56,58,62,69,82,95,107,114,129,140,151,151,143,123,102,80,56,44,36,26,20,18,19,19,20,15,19,15,15,12,13,12,11,9,11,9,11,9,6,8,7,6,1,-2,-4,-9,-10,-4,-6,-14,-9,-12,-17,-18,-15,-19,-22,-24,-29,-28,-26,-27,-28,-29,-32
2019-05-15,15:47:42.832,-25,-21,-20,-11,-4,1,3,-1,-13,-29,-35,-32,-33,-42,-47,-75,-139,-181,-30,360,691,471,-31,-215,-218,-152,-88,-60,-51,-45,-38,-35,-34,-30,-23,-19,-16,-9,-7,0,2,11,14,18,24,37,53,66,77,90,102,106,110,105,87,64,40,17,0,-21,-27,-32,-39,-39,-41,-38,-34,-32,-31,-34,-28,-30,-32,-27,-30,-29,-32,-34,-37,-40,-44,-44,-47,-48,-50,-49,-47,-53,-50,-52,-56,-58,-55,-57,-57,-62,-62,-59,-60,-62,-65,-66,-65,-65,-63,-61,-59,-55,-47,-40,-40,-44,-43,-55,-67,-67,-66,-67,-75,-94,-147,-194,-88,259,590,455,-28,-227
2019-05-15,15:47:43.860,-247,-184,-125,-84,-76,-67,-68,-61,-56,-49,-43,-45,-42,-39,-38,-32,-29,-24,-13,-8,3,16,24,38,56,71,82,84,86,82,64,39,15,-10,-31,-42,-54,-63,-65,-62,-68,-69,-73,-71,-70,-72,-72,-69,-68,-67,-72,-76,-78,-81,-79,-82,-82,-85,-91,-87,-92,-95,-94,-96,-96,-99,-95,-100,-100,-102,-100,-107,-108,-109,-107,-107,-105,-108,-111,-109,-105,-105,-104,-94,-89,-92,-88,-92,-107,-110,-104,-108,-130,-183,-220,-98,249,551,382,-72,-261,-265,-204,-140,-104,-97,-86,-80,-79,-77,-72,-71,-68,-65,-57,-55,-50,-49,-42,-32,-26,-14,-4,3,19,28,45,55
2019-05-15,15:47:44.888,60,65,60,46,22,2,-20,-39,-56,-62,-68,-74,-70,-70,-73,-72,-67,-68,-61,-66,-64,-60,-59,-60,-58,-60,-60,-63,-64,-68,-68,-63,-66,-66,-67,-67,-72,-73,-75,-74,-72,-69,-69,-71,-69,-75,-67,-70,-69,-72,-69,-67,-69,-71,-68,-71,-68,-65,-58,-53,-42,-46,-50,-48,-44,-50,-56,-55,-64,-89,-148,-186,-6,391,688,461,-38,-222,-201,-120,-72,-57,-52,-50,-44,-39,-35,-34,-30,-29,-24,-23,-20,-18,-13,-6,-3,3,9,19,27,39,55,71,83,94,100,94,85,64,42,24,11,-3,-13,-16,-23,-26,-27,-23,-21,-26,-25,-17,-19,-18,-13,-10
2019-05-15,15:47:45.916,-9,-10,-10,-10,-11,-6,-9,-9,-13,-15,-13,-11,-10,-9,-11,-9,-8,-10,-9,-7,-8,-12,-11,-10,-9,-10,-8,-6,-5,-6,-4,-6,-4,-2,-4,1,4,5,6,21,20,14,17,24,12,0,2,-1,-3,-30,-93,-140,-30,376,757,703,143,-154,-140,-55,-2,1,2,9,14,18,15,17,23,24,26,25,30,31,38,39,40,44,49,57,60,70,79,91,104,119,127,136,130,118,97,78,59,44,37,32,26,23,25,22,22,22,22,23,24,25,26,26,30,34,31,35,35,32,32,33,31,34,34,32,32,29,29,31,33,29,28,31
2019-05-15,15:47:46.944,30,29,31,28,24,25,29,32,31,30,28,32,29,32,34,38,33,28,32,44,43,47,59,71,67,65,63,48,39,39,37,37,29,3,-55,-115,-49,360,803,884,310,-84,-104,-31,28,26,32,33,35,42,43,43,40,44,48,51,54,57,58,59,57,63,63,70,76,81,90,100,115,130,140,153,153,145,132,115,98,80,71,68,64,59,58,58,56,59,58,63,63,58,61,64,66,66,68,66,67,70,68,66,68,65,66,65,63,63,60,65,64,60,60,60,64,65,62,60,61,65,67,70,69,70,66,68,67,67,69,70
2019-05-15,15:47:47.972,72,70,72,80,84,85,92,100,112,109,103,90,77,74,73,69,73,63,29,-51,-100,83,539,958,805,174,-92,-70,3,48,50,51,54,55,58,64,67,63,62,65,70,69,74,75,73,75,77,83,87,95,103,114,130,140,153,163,165,163,147,127,110,95,81,74,68,67,61,60,58,59,55,57,57,55,56,54,49,54,49,50,50,47,47,45,46,47,42,44,43,40,40,42,41,41,39,38,40,40,39,41,37,35,35,36,35,34,29,32,35,34,32,28,30,30,28,28,36,38,44,58,62,63,65,53,33,28,26,28
2019-05-15,15:47:49.000,28,17,-15,-80,-132,-24,371,772,682,117,-141,-171,-106,-40,-8,-3,4,5,7,10,9,16,19,17,24,26,28,33,37,40,42,50,57,65,77,89,102,115,117,126,121,114,93,73,48,28,12,0,-7,-8,-10,-9,-11,-10,-10,-14,-17,-16,-14,-12,-15,-18,-23,-23,-21,-19,-25,-28,-30,-31,-34,-36,-39,-41,-36,-35,-36,-40,-42,-46,-48,-48,-49,-51,-52,-53,-52,-55,-57,-58,-57,-59,-60,-57,-62,-58,-54,-54,-46,-38,-32,-31,-30,-39,-55,-64,-64,-62,-65,-76,-101,-157,-204,-110,241,592,489,-10,-234,-257,-198,-134,-96,-84,-73,-71,-69,-62
2019-05-15,15:47:50.028,-69,-66,-65,-61,-56,-50,-46,-46,-35,-31,-26,-21,-9,4,16,32,48,55,65,70,65,48,22,0,-27,-48,-55,-74,-83,-84,-85,-88,-83,-83,-83,-87,-84,-91,-85,-88,-87,-85,-89,-86,-89,-86,-93,-95,-96,-96,-95,-97,-100,-100,-108,-103,-102,-99,-100,-103,-105,-107,-103,-106,-108,-105,-107,-102,-108,-110,-104,-101,-102,-94,-87,-89,-90,-92,-100,-107,-112,-110,-133,-184,-226,-160,179,532,498,6,-252,-278,-225,-162,-118,-112,-106,-100,-94,-90,-88,-88,-85,-84,-79,-74,-69,-62,-59,-52,-47,-39,-28,-17,0,15,29,40,48,53,48,32,11,-9,-35,-54,-73,-83
2019-05-15,15:47:51.056,-88,-90,-93,-96,-95,-94,-93,-86,-86,-86,-88,-87,-84,-81,-83,-83,-87,-84,-90,-89,-91,-90,-92,-93,-92,-88,-93,-88,-86,-87,-86,-89,-86,-88,-88,-90,-89,-90,-87,-87,-88,-89,-83,-90,-87,-82,-75,-60,-62,-68,-66,-65,-74,-83,-81,-89,-120,-187,-209,20,428,694,391,-95,-245,-208,-125,-79,-78,-70,-62,-60,-62,-55,-54,-52,-49,-38,-40,-37,-31,-34,-28,-25,-18,-12,-7,3,17,31,41,57,66,73,75,61,40,19,-2,-18,-32,-40,-46,-47,-46,-49,-50,-48,-52,-49,-47,-46,-41,-42,-36,-36,-38,-35,-38,-39,-40,-41,-40,-41,-41,-48,-44,-38
2019-05-15,15:47:52.084,-44,-36,-37,-41,-43,-44,-46,-48,-46,-48,-47,-52,-54,-52,-53,-53,-53,-54,-51,-48,-49,-47,-45,-46,-41,-27,-32,-37,-31,-23,-33,-39,-39,-39,-55,-100,-165,-163,149,595,800,372,-115,-212,-133,-52,-40,-41,-31,-22,-15,-14,-14,-9,-9,-1,-4,3,6,6,13,18,19,18,21,26,39,49,64,80,92,104,112,114,105,87,68,49,38,23,13,8,5,3,5,7,9,10,11,9,7,9,10,9,10,10,17,15,16,14,12,13,14,16,15,15,16,11,12,13,17,16,15,12,13,13,16,19,17,18,18,15,13,15,19,20,19,18
2019-05-15,15:47:53.112,19,21,22,27,31,35,40,49,57,50,53,45,33,29,28,30,32,22,-15,-96,-135,74,533,917,712,94,-130,-91,-12,22,19,22,26,32,33,38,39,44,47,45,48,49,52,55,56,56,57,60,66,73,81,94,108,120,134,145,146,144,129,115,100,80,69,61,57,56,53,49,50,45,42,44,43,44,45,45,44,42,49,48,49,47,44,44,48,47,42,45,45,47,46,41,43,44,40,39,40,35,38,37,37,36,40,41,39,36,38,34,30,31,31,31,32,31,31,38,44,42,57,69,73,68,69,61,39,34,31,29
2019-05-15,15:47:54.140,23,17,-12,-77,-139,-65,357,815,844,238,-114,-149,-79,-19,-1,4,10,10,16,18,20,23,25,27,33,35,39,37,37,44,46,44,57,69,81,91,106,118,129,139,146,138,119,100,75,55,41,29,20,14,10,11,9,7,3,4,8,5,5,8,4,3,1,0,1,-1,-2,-6,-4,-8,-12,-12,-12,-13,-13,-14,-14,-12,-16,-17,-23,-24,-27,-24,-24,-31,-28,-30,-29,-30,-30,-31,-31,-30,-32,-29,-32,-35,-35,-28,-27,-22,-9,3,3,-4,-3,-26,-38,-42,-41,-43,-46,-62,-104,-167,-165,136,546,708,247,-148,-229,-191,-118,-69,-57,-46
2019-05-15,15:47:55.168,-45,-41,-42,-34,-32,-31,-26,-27,-24,-17,-17,-11,-5,3,8,14,30,38,57,75,89,99,109,108,103,85,61,33,12,-9,-17,-28,-38,-39,-41,-44,-45,-45,-45,-47,-47,-46,-45,-43,-40,-37,-39,-41,-44,-48,-47,-51,-54,-53,-57,-62,-57,-62,-62,-62,-60,-64,-63,-65,-66,-68,-69,-69,-67,-65,-67,-73,-68,-71,-71,-74,-71,-74,-69,-67,-60,-57,-49,-45,-34,-36,-39,-55,-65,-73,-69,-67,-71,-89,-122,-184,-192,59,444,639,247,-158,-256,-227,-160,-105,-85,-84,-77,-74,-65,-66,-59,-54,-54,-47,-43,-40,-34,-33,-28,-24,-14,-4,6,18,33,52
2019-05-15,15:47:56.196,59,68,74,73,72,53,29,4,-14,-38,-52,-61,-65,-68,-74,-72,-72,-67,-65,-68,-67,-61,-63,-64,-63,-58,-63,-66,-63,-66,-67,-68,-72,-73,-74,-78,-76,-69,-72,-73,-77,-78,-79,-79,-79,-77,-76,-77,-75,-74,-75,-77,-79,-75,-77,-78,-73,-70,-63,-64,-57,-46,-51,-54,-51,-53,-65,-65,-69,-75,-107,-166,-194,-6,378,661,387,-85,-236,-222,-149,-97,-77,-69,-58,-56,-55,-54,-47,-42,-38,-40,-39,-34,-26,-23,-20,-14,-7,1,12,23,39,52,68,79,89,95,92,75,54,28,6,-13,-27,-35,-44,-44,-43,-44,-46,-48,-51,-52,-50,-51,-46,-47
2019-05-15,15:47:57.224,-49,-47,-45,-41,-42,-41,-45,-48,-45,-49,-53,-47,-47,-55,-60,-60,-54,-53,-51,-50,-50,-52,-51,-54,-54,-56,-54,-52,-50,-52,-52,-53,-52,-47,-50,-43,-42,-36,-41,-36,-23,-19,-28,-26,-19,-27,-35,-36,-38,-58,-112,-167,-107,259,666,708,193,-153,-193,-123,-57,-34,-37,-30,-29,-22,-18,-15,-13,-10,-7,-3,-2,-1,1,4,7,13,17,25,32,45,55,70,80,95,106,111,111,100,81,60,40,21,5,-1,-4,-10,-9,-7,-5,-4,-8,-7,-7,-3,-4,-5,-5,-2,0,2,-3,-3,-2,-4,-3,-2,-4,-5,-8,-6,-9,-6,-7,-6,-3,-3
2019-05-15,15:47:58.252,-7,-13,-11,-9,-10,-11,-12,-13,-12,-11,-13,-15,-14,-12,-13,-10,-8,-10,-12,-9,-1,-2,-1,12,11,8,7,18,11,-3,-1,1,-6,-39,-114,-149,40,490,847,657,65,-165,-125,-42,-5,-8,-1,4,6,7,8,8,10,11,14,17,20,23,26,28,28,33,32,35,40,52,65,77,96,109,120,132,129,114,98,79,65,50,38,34,31,29,29,26,24,23,22,26,27,26,27,27,28,27,29,34,31,29,31,32,33,35,31,29,29,27,27,23,27,25,26,27,24,25,27,28,25,24,23,27,22,25,24,24,23,25,25,24
2019-05-15,15:47:59.280,28,26,26,27,38,41,41,44,54,66,63,59,60,43,37,37,38,36,34,3,-57,-125,-73,331,810,943,367,-72,-124,-51,12,20,22,28,34,33,33,38,43,46,48,51,52,52,51,50,57,57,54,55,61,63,73,87,103,118,130,143,146,140,126,107,95,73,65,59,55,54,51,49,49,45,45,46,50,48,45,47,46,45,43,43,45,41,38,36,39,41,38,36,35,36,38,39,38,37,32,33,34,33,30,32,29,29,27,27,27,27,26,28,26,24,29,23,21,24,26,21,24,27,27,30,36,42,54,51,50,44
2019-05-15,15:48:00.308,20,15,15,14,10,5,-32,-100,-155,-14,430,863,745,130,-148,-168,-96,-40,-24,-18,-10,-8,-5,2,-1,1,6,12,13,10,15,13,15,22,22,30,35,45,58,76,86,96,111,119,120,112,89,70,47,29,9,-1,-12,-16,-18,-21,-21,-24,-24,-27,-26,-27,-24,-23,-27,-30,-28,-27,-28,-29,-31,-34,-32,-30,-32,-34,-33,-38,-38,-35,-40,-34,-40,-43,-43,-42,-45,-49,-47,-48,-50,-49,-51,-51,-50,-52,-54,-57,-55,-54,-48,-49,-38,-35,-41,-41,-40,-47,-53,-60,-55,-63,-91,-148,-196,-109,255,620,546,25,-230,-255,-192,-129,-87,-79,-75,-72
