2019-05-15,16:50:40.816,97,81,39,19,23,24,24,19,21,84,187,275,152,-107,-239,-123,2,61,76,86,88,93,99,100,104,106,134,140,146,154,158,175,181,196,219,232,248,278,293,307,322,330,331,325,316,300,264,214,192,157,119,102,92,68,67,64,67,68,68,77,73,69,76,82,86,87,82,79,72,79,80,75,62,61,64,44,49,57,50,45,41,37,44,44,38,35,30,42,46,39,28,44,50,49,95,94,69,63,49,17,2,3,9,4,11,90,188,266,105,-164,-272,-134,-41,19,30,31,21,29,46,50,49,56,63,64,73,90,99,107
2019-05-15,16:50:41.844,111,124,140,163,181,201,222,229,229,240,233,222,224,201,157,128,92,57,28,1,-4,-18,-28,-30,-37,-27,-30,-36,-33,-32,-30,-39,-20,-17,-19,-25,-32,-30,-33,-41,-47,-44,-39,-42,-56,-50,-53,-65,-58,-65,-74,-63,-63,-65,-51,-43,-16,-9,5,9,-26,-54,-66,-74,-66,-65,-69,-37,71,150,125,-101,-309,-287,-123,-52,-13,4,2,12,26,30,42,47,47,60,78,73,85,103,111,112,142,166,190,203,230,250,260,253,263,267,258,242,198,159,145,112,74,60,40,23,18,3,16,12,2,9,9,14,30,31,18,30,45,47,40,39
2019-05-15,16:50:42.872,32,29,12,23,31,25,19,8,12,9,15,17,21,15,15,11,4,5,11,7,14,25,22,15,27,67,99,81,58,46,19,4,4,6,9,0,15,117,239,269,22,-222,-238,-80,-12,35,45,60,60,58,65,83,92,103,99,106,129,136,147,155,170,196,213,232,249,278,296,314,322,323,322,312,318,289,248,204,162,133,109,86,53,60,66,51,55,55,52,56,60,65,55,54,58,64,71,72,65,56,58,55,46,38,35,34,31,48,45,40,37,36,35,37,32,29,26,25,19,34,42,35,72,108,79,51,40,15,-2,-19
2019-05-15,16:50:43.900,-19,-11,-8,7,102,231,272,22,-223,-255,-90,-20,-3,6,23,30,33,26,45,63,76,82,86,100,112,124,140,153,175,194,219,243,262,294,300,310,329,334,315,296,270,233,189,149,115,90,70,57,54,46,29,33,45,51,56,53,54,60,62,57,54,52,57,52,44,44,46,50,55,49,56,43,38,34,34,28,25,30,15,17,28,34,57,79,72,85,73,31,6,4,3,2,5,3,67,175,293,190,-103,-274,-154,-48,-9,18,36,49,54,50,56,60,66,64,72,84,94,101,110,129,143,159,179,193,209,229,253,267,267,265
2019-05-15,16:50:44.928,255,238,206,164,121,91,49,20,2,-17,-33,-41,-41,-43,-44,-36,-39,-36,-41,-43,-35,-32,-31,-25,-32,-32,-39,-44,-41,-40,-39,-55,-58,-54,-57,-58,-73,-76,-75,-74,-63,-44,-16,-13,-17,-16,-57,-85,-93,-93,-86,-102,-100,-79,37,129,108,-112,-339,-345,-187,-107,-66,-46,-38,-34,-32,-30,-17,-13,-10,-2,11,18,26,45,63,80,100,114,135,152,178,203,219,233,238,237,220,196,170,136,96,61,35,16,8,4,-4,-11,-16,-16,-13,-1,8,2,6,10,17,28,35,30,29,30,24,26,24,19,21,10,6,4,8,12,4,-1,4,0
2019-05-15,16:50:45.956,-2,-2,3,34,48,63,79,55,23,-4,-12,-10,-11,-17,-13,41,151,252,150,-110,-261,-151,-42,4,28,32,42,43,54,59,66,60,66,74,87,91,102,120,127,139,154,170,186,217,232,235,249,272,278,271,253,232,194,153,107,71,61,45,29,12,10,12,10,12,8,11,16,8,20,23,20,21,26,28,26,18,11,27,20,23,12,6,6,4,3,3,-11,-5,2,-3,-6,-9,-12,-12,-18,-15,-16,-12,-4,11,18,50,50,49,35,2,-25,-38,-42,-40,-43,-41,6,107,224,140,-121,-292,-210,-82,-26,-4,-4,9,9,14,29,37
2019-05-15,16:50:46.984,46,54,53,67,74,87,103,110,127,139,163,183,207,228,247,263,265,262,261,270,240,207,165,125,86,63,37,7,-3,-12,-3,-4,-3,-9,-10,-9,-4,-6,-6,4,11,11,5,8,3,2,0,2,-4,-11,-16,-23,-25,-22,-18,-17,-16,-23,-25,-27,-32,-31,-26,-35,-35,-29,-29,-31,-35,-34,-17,-13,-9,35,45,24,13,0,-30,-49,-47,-48,-54,-55,4,114,220,125,-151,-306,-196,-84,-36,-15,-4,1,3,6,12,9,14,32,33,40,53,59,69,86,96,109,127,145,161,184,197,211,211,208,206,197,170,137,93,49,15,-16,-43,-63
2019-05-15,16:50:48.012,-78,-85,-87,-92,-87,-98,-99,-87,-86,-89,-90,-88,-84,-87,-87,-87,-91,-87,-94,-95,-97,-103,-116,-117,-122,-116,-117,-124,-132,-131,-125,-127,-130,-134,-135,-142,-149,-136,-147,-142,-137,-134,-138,-132,-126,-119,-84,-63,-81,-98,-122,-156,-161,-161,-150,-152,-160,-146,-62,39,64,-131,-388,-436,-277,-186,-142,-119,-109,-103,-100,-104,-94,-86,-78,-71,-66,-57,-46,-41,-35,-23,-4,19,38,59,76,98,117,132,131,130,132,120,97,62,28,-2,-37,-59,-70,-81,-85,-93,-98,-91,-89,-89,-96,-82,-76,-73,-68,-64,-69,-65,-58,-57,-54,-57,-57,-66,-59,-57,-57,-63,-66,-71
2019-05-15,16:50:49.040,-60,-51,-64,-59,-59,-66,-58,-57,-62,-53,-56,-50,-51,-48,-40,-35,-37,-33,-23,-19,-8,8,32,56,36,21,17,-4,-21,-28,-26,-24,-29,-2,95,206,209,-31,-256,-256,-94,-25,18,26,33,43,51,56,62,60,63,79,91,99,109,118,129,148,170,184,207,234,257,279,287,302,307,309,305,279,243,217,183,146,108,80,62,51,39,27,24,25,25,30,42,46,46,50,52,59,53,58,64,72,71,69,63,55,63,61,52,50,50,49,45,48,48,49,51,47,37,45,41,38,35,37,37,34,39,31,32,35,32,33,36,32,31,37
2019-05-15,16:50:50.068,35,45,50,58,87,115,101,90,68,25,7,0,-1,-8,-8,-12,57,164,251,111,-149,-278,-146,-54,-6,11,14,24,27,29,29,35,42,38,50,61,64,69,77,89,108,124,136,153,176,193,215,234,235,234,236,229,218,185,145,103,68,42,20,-2,-22,-27,-25,-32,-26,-26,-22,-27,-25,-20,-13,-13,-13,-17,-21,-26,-15,-21,-27,-33,-36,-41,-44,-41,-39,-43,-45,-52,-58,-53,-63,-62,-54,-58,-59,-63,-57,-55,-61,-61,-51,-58,-59,-55,-57,-61,-62,-54,-59,-57,-46,-20,14,1,-8,-21,-39,-67,-79,-83,-82,-85,-87,-37,60,135,70,-182
2019-05-15,16:50:51.096,-357,-297,-148,-85,-52,-44,-31,-18,-14,-14,-6,-4,-3,6,15,18,29,43,54,71,83,101,121,134,152,171,191,204,194,197,190,180,164,134,91,63,27,9,-5,-18,-27,-26,-23,-26,-27,-29,-29,-22,-12,-9,1,0,1,8,6,4,8,14,13,12,10,12,14,9,13,-1,3,5,0,6,6,4,9,11,12,7,15,10,14,14,8,15,14,7,22,24,17,8,23,48,78,80,84,88,57,24,12,8,13,7,6,53,150,243,172,-84,-252,-188,-45,15,48,54,57,67,69,72,74,78,86,90,91,113,125,132,136,157,163,184
2019-05-15,16:50:52.124,214,233,241,267,283,290,297,296,288,272,246,207,174,137,105,75,58,45,39,40,33,31,31,36,34,28,35,41,41,41,46,51,48,50,40,41,43,35,39,35,23,22,24,25,24,20,15,16,13,8,9,7,4,9,9,11,9,5,5,3,8,6,7,12,13,9,4,10,12,13,13,14,1,20,39,39,48,80,106,95,88,70,32,11,6,7,5,-5,5,75,180,258,106,-153,-269,-124,-29,9,23,28,36,49,55,58,60,68,74,80,84,94,111,121,124,145,166,182,204,224,241,254,270,272,269,267,256,245,211,165
2019-05-15,16:50:53.152,128,89,58,27,7,-9,-23,-33,-38,-38,-46,-43,-38,-41,-44,-40,-38,-46,-46,-37,-38,-45,-48,-50,-56,-65,-71,-68,-65,-72,-71,-74,-72,-77,-84,-88,-83,-84,-92,-98,-102,-100,-94,-93,-91,-96,-94,-89,-94,-92,-97,-101,-103,-93,-99,-93,-92,-85,-82,-69,-38,-21,-28,-30,-56,-97,-118,-113,-115,-104,-109,-102,-8,72,79,-100,-336,-369,-221,-131,-84,-72,-70,-65,-55,-54,-37,-39,-38,-27,-19,-14,-7,2,16,27,42,54,64,87,104,128,145,157,158,166,162,153,134,102,72,41,11,-10,-30,-50,-52,-59,-65,-60,-61,-58,-61,-52,-52,-51,-45,-44
2019-05-15,16:50:54.180,-43,-40,-41,-34,-32,-34,-36,-36,-34,-44,-47,-45,-50,-44,-43,-48,-45,-46,-48,-45,-49,-37,-36,-42,-44,-31,-31,-32,-29,-26,-33,-28,-32,-21,-13,-20,-1,7,28,53,55,43,32,12,-14,-31,-36,-30,-36,-33,17,123,218,130,-141,-294,-201,-74,-19,20,21,21,26,31,37,40,51,52,60,78,88,97,111,112,123,149,164,187,207,223,252,275,277,272,267,271,258,227,191,156,114,80,53,41,39,25,19,15,10,12,14,20,23,20,20,18,22,29,27,24,24,31,21,14,26,35,20,18,17,10,8,4,-2,-6,-5,-1,4,0
2019-05-15,16:50:55.208,-1,-1,0,-5,-9,-8,-5,-13,-20,-13,-7,-4,-10,-12,-22,-21,-11,-3,1,12,20,35,78,69,57,45,11,-21,-28,-25,-30,-26,-27,25,124,212,112,-119,-263,-173,-52,-1,15,20,23,29,29,32,46,63,73,81,83,88,94,104,113,130,138,174,200,208,233,266,277,283,275,286,287,273,245,202,161,121,90,65,47,28,15,3,9,18,15,8,15,21,20,22,19,19,29,27,22,23,22,25,23,20,17,19,4,2,10,5,-3,-12,-10,-11,-15,-13,-14,-19,-18,-22,-25,-25,-14,-20,-24,-16,-16,-22,-25,-22,-29,-31,-18,-13
2019-05-15,16:50:56.236,-28,-28,-18,-14,0,41,58,43,35,15,-24,-40,-43,-43,-41,-52,-44,38,143,204,12,-239,-307,-159,-85,-50,-37,-37,-33,-28,-31,-29,-26,-16,-11,-1,1,6,16,25,39,61,77,87,113,130,148,169,178,186,183,186,173,144,106,72,40,5,-32,-53,-72,-83,-84,-92,-96,-102,-103,-102,-98,-97,-99,-96,-86,-87,-80,-95,-93,-84,-87,-86,-92,-99,-102,-100,-101,-102,-101,-107,-111,-118,-122,-123,-111,-118,-119,-115,-110,-114,-118,-119,-121,-119,-113,-115,-116,-121,-119,-124,-112,-105,-102,-101,-85,-50,-36,-57,-63,-82,-118,-129,-128,-130,-137,-129,-118,-25,71,65
2019-05-15,16:50:57.264,-133,-350,-379,-231,-144,-100,-84,-73,-71,-67,-67,-56,-54,-43,-43,-35,-33,-22,-7,9,19,30,50,74,92,112,129,157,177,180,185,186,177,156,118,79,61,31,12,-12,-24,-30,-33,-32,-41,-36,-30,-24,-19,-21,-13,-1,-7,4,9,9,9,6,0,2,10,0,-1,4,1,-7,-12,-6,-12,-15,-16,-15,-18,-13,-15,-20,-15,-21,-23,-25,-25,-23,-30,-30,-33,-29,-23,-19,-32,-25,-17,-14,-8,9,43,53,40,25,13,-11,-38,-46,-48,-45,-49,-38,44,150,206,43,-189,-284,-143,-50,-9,-4,-4,19,27,36,45,40,42,49,59,67,77,89
2019-05-15,16:50:58.292,91,95,118,136,153,181,195,219,239,249,262,263,263,252,242,217,170,127,91,63,35,21,5,-8,-9,-9,-8,-10,-14,-15,-4,3,4,5,7,10,12,8,12,13,14,5,5,-3,6,2,-10,-10,-7,-2,-10,-12,-4,-13,-21,-14,-13,-12,-12,-16,-22,-18,-18,-19,-18,-20,-19,-20,-23,-29,-28,-19,-14,-14,-16,-2,11,12,37,63,52,45,32,-8,-23,-30,-33,-29,-30,-33,40,153,241,111,-143,-270,-142,-47,3,22,33,39,48,53,60,67,77,82,87,103,113,120,130,141,157,176,195,221,244,268,287,296,316,321,323,324,303,268
2019-05-15,16:50:59.320,230,201,162,129,103,79,71,65,60,59,60,63,60,67,77,79,78,83,90,91,92,93,94,94,92,87,89,90,86,83,80,76,74,69,70,64,58,53,50,49,45,43,41,39,44,43,41,37,36,34,35,40,35,36,35,34,31,32,35,30,32,42,47,49,79,114,110,99,82,53,25,24,28,27,27,29,78,178,275,203,-56,-221,-127,1,56,76,79,85,95,99,105,113,116,125,131,142,153,159,171,182,195,211,229,251,266,290,314,324,334,342,343,339,321,299,263,224,191,163,142,121,105,102,97,96,91,91,95,96
2019-05-15,16:51:00.348,94,94,98,104,106,112,111,108,118,118,117,112,111,112,106,103,103,99,96,95,97,96,94,96,91,93,92,90,91,90,92,90,91,93,87,89,87,89,86,88,99,108,119,143,172,171,157,143,109,88,86,86,87,85,84,143,246,314,227,-31,-175,-84,46,102,132,140,146,156,161,165,173,179,187,194,197,211,218,232,248,260,276,295,316,340,360,381,395,408,415,417,414,398,370,338,303,267,237,211,192,186,179,172,173,168,167,166,167,174,175,172,175,175,178,180,181,185,189,187,186,189,182,180,178,172,173,175,170,173
2019-05-15,16:51:01.376,160,152,151,156,166,169,166,163,162,163,161,157,159,160,159,161,154,156,172,177,170,167,167,160,161,169,176,181,194,232,234,223,216,188,149,138,139,141,139,143,174,259,367,350,105,-89,-52,85,143,173,175,172,173,198,211,214,216,221,226,234,241,251,265,277,292,307,325,350,366,389,406,419,437,448,450,444,436,411,376,337,297,258,229,209,198,187,183,180,173,173,173,176,175,169,174,180,176,172,188,190,196,193,196,191,191,185,182,183,177,178,180,180,176,175,180,178,177,171,169,169,170,178,179,178,181,175,177,177
2019-05-15,16:51:02.404,171,174,177,182,181,182,182,184,183,185,196,206,214,249,262,245,240,216,181,161,160,154,153,155,165,250,356,424,242,-15,-93,60,137,185,191,198,207,209,217,220,222,230,231,239,244,254,267,275,287,302,317,335,356,377,397,416,427,434,439,437,431,411,373,330,289,254,228,202,182,173,164,156,151,152,154,159,162,157,158,153,157,160,155,161,160,163,161,153,154,152,154,147,147,140,137,133,134,126,125,123,122,118,118,114,111,115,116,113,109,111,114,109,108,108,103,108,109,101,101,103,109,109,119,156,170,153,143,119
2019-05-15,16:51:03.432,85,68,66,63,64,59,72,163,245,235,40,-176,-202,-60,28,70,82,96,98,106,114,116,118,121,129,134,140,149,157,165,173,190,205,216,235,256,275,295,305,308,314,310,298,278,250,215,182,152,122,99,83,73,75,69,67,65,67,72,73,77,79,80,92,92,98,98,101,102,102,102,97,96,97,99,95,96,93,93,95,97,93,91,94,97,96,93,99,98,95,97,96,92,96,101,98,100,112,118,131,169,180,165,158,135,102,82,80,83,81,74,83,160,258,298,131,-122,-197,-44,51,94,108,117,127,126,132,141,148,159
2019-05-15,16:51:04.460,163,170,176,188,195,199,208,219,232,253,274,297,321,342,354,362,362,361,356,332,300,263,221,188,154,130,115,100,90,84,81,83,82,79,85,88,89,90,93,98,90,90,96,101,98,92,92,95,94,85,82,83,75,71,65,64,65,64,63,63,56,59,56,52,51,52,50,46,52,52,53,51,45,44,45,47,49,57,60,62,83,125,121,114,96,64,35,20,18,17,18,19,58,156,261,213,-37,-224,-158,-22,32,57,63,74,77,85,89,92,98,105,113,121,126,142,153,163,170,187,207,225,245,270,290,312,318,323,326,320
2019-05-15,16:51:05.488,315,287,252,209,170,135,109,88,73,59,61,54,44,47,44,47,49,53,55,52,57,58,61,61,62,63,63,61,59,61,58,50,46,47,40,40,39,35,32,36,32,30,30,28,29,28,27,24,24,25,20,16,20,20,17,21,19,20,15,19,31,36,55,91,88,75,62,32,2,-11,-12,-9,-6,-11,23,116,226,203,-53,-251,-204,-63,-11,20,27,36,45,50,53,60,67,69,77,83,89,101,108,117,133,143,159,176,193,218,241,255,265,273,279,273,259,231,192,151,108,69,38,17,-3,-17,-23,-25,-28,-26,-25,-27,-27,-27
2019-05-15,16:51:06.516,-26,-24,-22,-23,-19,-21,-21,-25,-24,-22,-25,-28,-28,-31,-36,-48,-49,-49,-53,-50,-54,-61,-63,-60,-58,-66,-65,-59,-61,-63,-68,-62,-54,-62,-64,-66,-69,-69,-64,-55,-51,-46,-22,11,10,-6,-20,-54,-79,-85,-90,-90,-87,-89,-36,64,118,26,-220,-365,-288,-149,-86,-55,-44,-44,-35,-30,-30,-23,-16,-5,-3,0,7,18,30,43,52,68,86,107,126,146,164,181,196,209,205,200,189,166,135,103,69,37,15,-2,-13,-21,-25,-24,-27,-24,-24,-25,-21,-16,-10,-3,2,6,7,7,6,6,11,6,4,5,-1,-3,-4,-8,-4,-6,-14,-16
2019-05-15,16:51:07.544,-17,-22,-29,-24,-20,-27,-34,-35,-32,-33,-33,-30,-28,-29,-32,-29,-28,-16,-11,3,38,40,28,16,-12,-40,-53,-60,-58,-61,-64,-36,52,160,147,-92,-302,-288,-138,-72,-37,-34,-28,-18,-17,-7,0,3,8,15,21,33,40,48,60,75,96,106,129,148,171,194,209,220,228,231,229,218,189,149,111,73,39,13,-13,-25,-32,-46,-44,-47,-52,-51,-53,-51,-53,-51,-51,-49,-44,-45,-37,-37,-40,-41,-47,-45,-46,-48,-53,-56,-56,-61,-64,-60,-66,-66,-66,-63,-64,-69,-68,-73,-74,-74,-73,-70,-75,-74,-72,-74,-78,-85,-86,-83,-71,-63,-58,-39
2019-05-15,16:51:08.572,-2,-13,-29,-43,-66,-96,-104,-103,-103,-104,-104,-46,65,160,37,-222,-361,-229,-131,-85,-65,-61,-63,-58,-46,-44,-38,-28,-29,-21,-12,-10,3,10,27,38,57,77,101,122,146,163,184,197,202,202,193,175,139,105,58,14,-17,-41,-63,-75,-80,-83,-87,-92,-92,-93,-89,-89,-91,-89,-86,-81,-83,-80,-77,-83,-85,-85,-86,-89,-94,-93,-96,-100,-100,-104,-107,-110,-111,-114,-113,-114,-119,-122,-124,-126,-123,-128,-131,-132,-134,-133,-139,-142,-145,-142,-141,-140,-134,-131,-97,-74,-92,-105,-130,-163,-184,-186,-187,-192,-198,-191,-113,1,66,-104,-352,-449,-306,-224,-187,-174
2019-05-15,16:51:09.600,-168,-155,-151,-145,-137,-132,-124,-118,-110,-103,-92,-85,-72,-58,-44,-29,-12,11,31,50,67,83,94,101,98,91,75,45,10,-30,-68,-100,-121,-135,-141,-151,-157,-157,-159,-154,-158,-154,-150,-152,-148,-143,-137,-136,-131,-136,-136,-134,-135,-140,-139,-142,-146,-145,-148,-151,-158,-160,-157,-163,-164,-166,-164,-163,-162,-167,-164,-162,-165,-161,-157,-151,-143,-126,-94,-89,-100,-109,-142,-172,-181,-179,-182,-180,-184,-159,-58,20,-8,-225,-422,-416,-266,-196,-155,-137,-126,-125,-120,-114,-106,-104,-97,-92,-79,-72,-61,-50,-41,-22,-5,7,33,58,77,101,123,141,143,144,143,130,104,70
2019-05-15,16:51:10.628,36,0,-36,-57,-72,-82,-90,-93,-91,-89,-89,-91,-89,-87,-80,-80,-78,-71,-65,-63,-61,-62,-65,-65,-68,-66,-64,-70,-75,-76,-78,-84,-83,-85,-84,-85,-88,-89,-93,-92,-92,-97,-92,-95,-92,-90,-93,-90,-94,-88,-78,-75,-66,-31,-25,-35,-49,-76,-112,-127,-127,-128,-121,-128,-108,-20,90,105,-125,-349,-356,-200,-133,-103,-91,-86,-81,-79,-71,-62,-54,-49,-38,-32,-28,-19,-12,3,18,33,48,67,95,120,140,161,177,186,184,183,173,144,109,67,27,-4,-36,-56,-71,-80,-84,-86,-87,-90,-90,-87,-88,-87,-82,-81,-81,-82,-77,-80,-75,-73,-74,-75
2019-05-15,16:51:11.656,-82,-84,-89,-88,-87,-90,-92,-95,-98,-100,-101,-102,-100,-97,-99,-104,-103,-103,-100,-101,-102,-103,-102,-104,-108,-109,-106,-105,-103,-90,-87,-74,-33,-31,-37,-47,-76,-112,-121,-123,-126,-120,-130,-110,-23,95,138,-70,-302,-346,-200,-130,-95,-86,-82,-75,-65,-65,-57,-50,-41,-37,-28,-19,-8,-1,16,27,42,62,78,99,122,149,169,180,191,196,194,182,158,121,82,39,5,-30,-50,-69,-80,-88,-98,-103,-99,-108,-111,-112,-112,-118,-117,-113,-117,-116,-118,-117,-117,-120,-124,-125,-127,-133,-138,-139,-145,-145,-149,-154,-156,-155,-159,-158,-157,-164,-164,-164,-161,-167,-166,-165
2019-05-15,16:51:12.684,-166,-172,-177,-176,-177,-176,-171,-169,-164,-158,-150,-138,-102,-90,-103,-113,-136,-166,-176,-179,-178,-178,-183,-167,-83,12,33,-148,-390,-442,-303,-203,-158,-140,-135,-125,-118,-110,-108,-106,-98,-95,-88,-75,-66,-54,-46,-39,-25,-10,6,23,45,66,81,99,107,113,110,97,79,54,27,-10,-45,-64,-89,-108,-116,-124,-129,-128,-133,-133,-131,-127,-129,-131,-121,-120,-113,-110,-111,-110,-109,-106,-111,-111,-113,-114,-117,-118,-120,-125,-129,-127,-130,-134,-130,-132,-132,-132,-128,-129,-124,-123,-130,-123,-118,-118,-113,-105,-93,-86,-61,-27,-35,-37,-46,-81,-108,-115,-112,-114,-117,-115,-75,27
2019-05-15,16:51:13.712,117,64,-187,-359,-311,-162,-105,-74,-66,-62,-54,-48,-38,-30,-18,-12,-4,4,6,14,29,43,58,78,95,113,137,157,176,198,212,222,224,219,207,179,145,103,62,31,2,-17,-31,-40,-46,-48,-52,-53,-53,-55,-53,-54,-50,-52,-48,-45,-43,-45,-42,-39,-42,-40,-40,-46,-49,-54,-51,-53,-59,-56,-55,-60,-61,-66,-68,-66,-63,-61,-63,-64,-66,-63,-67,-64,-65,-64,-61,-63,-60,-57,-59,-65,-53,-42,-40,-25,11,16,-2,-11,-37,-70,-84,-89,-83,-86,-94,-67,16,138,149,-96,-307,-296,-146,-87,-56,-42,-36,-33,-25,-20,-14,-11,-5,-1,8,17
2019-05-15,16:51:14.740,31,43,56,69,85,95,124,143,165,183,203,229,235,234,228,218,197,161,123,81,47,20,-6,-20,-32,-42,-44,-44,-41,-39,-42,-39,-40,-37,-40,-29,-31,-33,-30,-28,-27,-30,-35,-29,-34,-39,-40,-41,-40,-41,-45,-47,-52,-54,-55,-62,-56,-57,-56,-61,-60,-61,-59,-61,-64,-64,-62,-66,-63,-69,-70,-66,-59,-56,-50,-38,-1,15,5,-8,-24,-61,-85,-85,-85,-89,-87,-83,-9,101,176,10,-241,-332,-189,-100,-59,-47,-41,-37,-29,-24,-17,-6,0,6,15,22,34,44,56,71,82,95,114,139,156,179,196,206,217,215,213,203,179,146,107,65
2019-05-15,16:51:15.768,25,-15,-38,-59,-69,-85,-94,-97,-102,-101,-97,-101,-101,-102,-97,-95,-101,-94,-92,-95,-93,-95,-99,-107,-110,-111,-116,-118,-124,-121,-124,-124,-123,-130,-127,-129,-136,-136,-134,-130,-130,-137,-137,-134,-137,-136,-134,-135,-139,-133,-137,-132,-124,-118,-101,-67,-59,-71,-81,-109,-139,-155,-151,-154,-156,-157,-140,-45,41,27,-173,-392,-409,-263,-176,-128,-114,-102,-99,-97,-95,-87,-78,-74,-71,-63,-54,-42,-29,-17,-11,0,16,33,47,64,85,105,115,125,124,120,114,91,66,31,-9,-34,-63,-86,-103,-113,-115,-123,-122,-128,-130,-123,-125,-125,-122,-119,-116,-122,-117,-115,-113,-111
2019-05-15,16:51:16.796,-114,-115,-120,-123,-126,-130,-132,-128,-135,-135,-137,-144,-144,-145,-149,-147,-152,-153,-152,-148,-146,-145,-147,-153,-139,-130,-116,-88,-68,-73,-76,-93,-129,-151,-149,-145,-148,-154,-141,-57,42,67,-123,-361,-410,-261,-163,-114,-98,-91,-87,-82,-78,-73,-64,-65,-54,-43,-37,-27,-15,-5,9,26,36,57,77,101,122,143,159,167,169,170,166,141,111,76,42,5,-24,-45,-67,-79,-84,-87,-90,-89,-92,-97,-94,-89,-86,-84,-77,-73,-69,-66,-64,-67,-67,-69,-74,-82,-85,-91,-93,-93,-93,-94,-98,-102,-104,-105,-109,-111,-105,-102,-103,-106,-105,-107,-106,-107,-104,-105,-104,-105
2019-05-15,16:51:17.824,-106,-108,-98,-86,-85,-64,-30,-29,-43,-56,-84,-116,-124,-125,-127,-124,-132,-90,5,118,68,-195,-378,-309,-169,-117,-100,-85,-76,-74,-68,-60,-55,-49,-44,-33,-28,-21,-9,-2,10,23,39,58,76,95,116,137,153,162,176,179,173,164,137,98,56,18,-15,-41,-65,-79,-86,-88,-94,-92,-95,-94,-95,-91,-86,-88,-83,-81,-82,-74,-78,-75,-78,-79,-81,-81,-75,-77,-82,-89,-94,-92,-95,-98,-95,-105,-112,-109,-104,-108,-110,-107,-108,-112,-110,-113,-113,-112,-112,-117,-114,-100,-91,-87,-52,-40,-47,-61,-78,-112,-134,-139,-134,-136,-139,-125,-31,85,96,-145,-366,-375
2019-05-15,16:51:18.852,-229,-169,-140,-134,-131,-129,-125,-118,-111,-110,-99,-96,-93,-90,-76,-63,-53,-47,-28,-12,2,24,44,62,78,91,99,104,96,85,60,29,-10,-51,-80,-109,-131,-144,-155,-161,-170,-167,-171,-166,-170,-167,-168,-167,-162,-157,-157,-154,-156,-159,-155,-153,-155,-155,-157,-162,-163,-162,-168,-174,-175,-176,-178,-182,-183,-178,-185,-183,-188,-180,-185,-184,-182,-183,-176,-172,-154,-122,-110,-122,-131,-167,-193,-201,-207,-203,-210,-213,-183,-75,-8,-59,-281,-465,-441,-286,-212,-174,-161,-159,-150,-143,-136,-136,-129,-121,-119,-113,-105,-98,-81,-73,-56,-47,-32,-10,9,33,53,65,73,79,84,80
2019-05-15,16:51:19.880,74,54,21,-10,-43,-74,-101,-118,-127,-138,-141,-140,-145,-141,-144,-143,-139,-138,-132,-132,-127,-125,-125,-123,-121,-123,-127,-129,-135,-140,-140,-142,-141,-139,-140,-140,-138,-143,-139,-144,-142,-144,-143,-136,-137,-143,-145,-139,-127,-102,-76,-73,-66,-79,-117,-140,-143,-140,-141,-146,-143,-74,25,89,-36,-289,-404,-289,-171,-126,-100,-93,-91,-85,-81,-69,-69,-64,-58,-48,-40,-32,-20,-9,0,14,28,43,64,84,107,129,139,148,156,157,146,129,99,62,21,-16,-42,-65,-85,-92,-98,-108,-109,-111,-112,-110,-113,-117,-118,-113,-106,-105,-98,-101,-103,-106,-107,-109,-106,-110,-113,-112
2019-05-15,16:51:20.908,-105,-110,-111,-112,-113,-114,-120,-120,-117,-114,-116,-124,-122,-119,-120,-121,-123,-124,-126,-129,-126,-129,-123,-113,-102,-82,-48,-58,-78,-83,-103,-127,-129,-131,-132,-133,-113,-27,80,107,-113,-336,-359,-207,-137,-102,-94,-88,-80,-76,-70,-66,-58,-49,-43,-38,-26,-18,-6,5,20,35,48,68,88,111,133,154,168,176,181,179,167,146,114,71,35,0,-32,-55,-72,-82,-86,-92,-89,-95,-93,-90,-91,-89,-88,-89,-84,-84,-83,-80,-76,-78,-81,-81,-84,-85,-91,-94,-93,-99,-106,-100,-102,-105,-105,-105,-105,-109,-113,-109,-114,-114,-116,-114,-109,-112,-113,-116,-108,-110,-112,-104
2019-05-15,16:51:21.936,-92,-90,-69,-32,-48,-65,-69,-94,-121,-119,-121,-124,-129,-109,-21,92,117,-110,-337,-361,-209,-143,-112,-105,-98,-94,-93,-88,-85,-83,-78,-72,-68,-59,-51,-39,-24,-14,-3,7,26,47,66,87,103,112,119,125,120,112,91,53,12,-17,-53,-78,-104,-118,-121,-128,-132,-133,-131,-125,-130,-125,-125,-126,-125,-121,-119,-118,-119,-116,-117,-119,-121,-125,-119,-120,-129,-127,-131,-132,-133,-131,-134,-140,-138,-139,-141,-145,-140,-139,-143,-140,-139,-141,-142,-145,-143,-130,-122,-110,-75,-52,-63,-73,-93,-125,-143,-143,-145,-139,-143,-139,-69,28,58,-85,-327,-414,-302,-175,-129,-100,-96,-93
2019-05-15,16:51:22.964,-82,-80,-74,-62,-60,-55,-49,-38,-33,-22,-10,3,22,29,42,68,87,111,134,147,154,156,159,147,133,109,73,36,1,-23,-43,-58,-69,-70,-75,-72,-75,-72,-68,-72,-70,-63,-55,-56,-51,-43,-39,-41,-39,-36,-37,-39,-41,-43,-41,-41,-45,-46,-38,-41,-45,-43,-45,-50,-54,-51,-48,-49,-50,-51,-47,-49,-49,-49,-51,-50,-46,-39,-31,-26,6,26,16,3,-12,-41,-67,-66,-68,-67,-70,-69,4,99,169,26,-227,-339,-210,-101,-49,-37,-33,-30,-24,-15,-9,-4,-3,4,11,16,26,34,49,63,72,87,101,124,149,168,189,201,213,220,215,211
2019-05-15,16:51:23.992,191,164,123,83,48,16,-9,-22,-35,-42,-43,-48,-53,-53,-52,-51,-46,-49,-46,-42,-42,-37,-38,-39,-37,-40,-40,-41,-45,-46,-46,-50,-55,-53,-54,-56,-55,-56,-61,-62,-64,-59,-67,-63,-66,-60,-61,-64,-67,-57,-60,-65,-63,-65,-65,-65,-63,-51,-40,-35,-5,14,-3,-17,-31,-63,-82,-87,-81,-83,-85,-56,39,152,120,-136,-330,-277,-138,-77,-49,-43,-39,-37,-34,-28,-19,-16,-9,-4,0,16,26,34,48,60,77,97,121,140,161,181,201,216,223,223,222,205,182,142,102,70,38,9,-16,-29,-39,-47,-47,-48,-47,-45,-41,-38,-39,-40,-36,-32
2019-05-15,16:51:25.020,-31,-29,-28,-26,-26,-33,-38,-35,-38,-41,-43,-46,-43,-45,-50,-56,-49,-53,-53,-50,-50,-58,-53,-51,-55,-57,-56,-59,-62,-61,-65,-68,-69,-68,-70,-74,-77,-70,-67,-60,-38,-8,-25,-36,-52,-84,-113,-116,-116,-120,-122,-111,-25,87,133,-70,-316,-368,-222,-151,-109,-94,-91,-85,-84,-80,-67,-61,-60,-57,-53,-46,-35,-24,-16,-2,12,37,53,64,89,109,129,141,147,152,147,139,119,84,53,15,-17,-44,-70,-81,-91,-94,-94,-96,-97,-98,-96,-95,-93,-88,-83,-81,-79,-81,-81,-81,-84,-84,-84,-84,-86,-89,-91,-89,-91,-93,-98,-104,-102,-99,-102,-101
2019-05-15,16:51:26.048,-101,-103,-101,-103,-101,-102,-103,-98,-100,-95,-88,-81,-79,-60,-28,-25,-41,-56,-90,-115,-125,-126,-126,-126,-126,-78,23,76,-6,-245,-398,-330,-185,-123,-82,-75,-69,-65,-60,-53,-44,-38,-31,-26,-16,-2,4,15,28,44,54,72,96,115,142,159,174,186,192,193,185,168,146,115,77,40,14,-12,-29,-36,-47,-49,-57,-68,-58,-56,-53,-48,-48,-41,-40,-38,-37,-31,-32,-33,-32,-34,-33,-35,-42,-45,-51,-53,-49,-50,-52,-54,-58,-53,-55,-55,-53,-53,-50,-54,-52,-54,-59,-61,-60,-59,-57,-62,-62,-60,-56,-49,-42,-34,4,19,3,-11,-29,-58,-75,-80
2019-05-15,16:51:27.076,-86,-84,-91,-62,19,128,147,-82,-300,-313,-155,-87,-52,-41,-34,-29,-24,-17,-10,-8,2,10,16,26,35,45,56,67,83,98,117,139,155,179,200,210,214,217,218,204,183,149,109,75,41,11,-12,-31,-39,-47,-50,-49,-48,-45,-47,-47,-44,-42,-35,-37,-37,-32,-34,-35,-37,-32,-41,-43,-39,-47,-41,-44,-46,-53,-56,-56,-56,-60,-57,-58,-66,-67,-69,-68,-69,-69,-73,-75,-75,-82,-84,-83,-88,-88,-90,-86,-81,-76,-64,-30,-40,-54,-67,-94,-123,-128,-132,-131,-133,-137,-67,38,111,-25,-285,-398,-272,-171,-126,-112,-109,-106,-100,-92,-88,-78,-75,-77
2019-05-15,16:51:28.104,-64,-50,-42,-38,-31,-16,-2,15,29,48,69,88,108,118,127,130,128,122,104,76,43,4,-26,-59,-80,-101,-111,-117,-121,-127,-129,-131,-123,-123,-125,-119,-122,-114,-111,-105,-100,-106,-108,-109,-110,-111,-112,-116,-118,-120,-125,-124,-125,-131,-130,-132,-130,-133,-136,-138,-136,-135,-138,-138,-138,-137,-142,-137,-130,-127,-117,-79,-65,-77,-85,-110,-142,-154,-155,-157,-153,-149,-142,-53,44,51,-135,-368,-413,-261,-158,-111,-96,-88,-82,-74,-67,-60,-53,-47,-42,-34,-26,-21,-7,3,20,39,54,74,96,116,137,154,166,175,180,177,170,150,113,78,40,6,-21,-40,-55,-66
2019-05-15,16:51:29.132,-77,-80,-79,-79,-76,-74,-72,-73,-70,-63,-60,-54,-55,-49,-47,-52,-55,-57,-59,-62,-63,-63,-67,-68,-72,-71,-76,-80,-77,-74,-79,-79,-82,-83,-79,-83,-82,-82,-90,-87,-84,-85,-90,-90,-93,-90,-75,-67,-64,-28,-16,-33,-42,-60,-92,-104,-104,-108,-109,-111,-81,9,122,105,-146,-344,-309,-167,-108,-80,-72,-67,-55,-54,-52,-42,-32,-34,-20,-12,-6,7,12,27,44,53,67,86,107,134,150,170,182,195,198,195,179,148,115,71,33,-2,-31,-51,-68,-78,-85,-89,-92,-93,-92,-86,-88,-84,-85,-82,-81,-79,-75,-76,-74,-75,-74,-72,-75,-80,-86,-90
2019-05-15,16:51:30.160,-87,-90,-87,-90,-88,-83,-90,-96,-95,-102,-99,-102,-97,-96,-104,-104,-104,-103,-102,-102,-107,-101,-99,-102,-89,-85,-82,-53,-21,-36,-51,-66,-89,-115,-116,-117,-120,-123,-116,-37,75,132,-56,-299,-367,-214,-132,-89,-79,-74,-71,-69,-63,-56,-47,-41,-33,-26,-16,-5,0,12,27,43,60,80,97,122,146,166,179,186,189,187,177,157,118,80,36,0,-33,-59,-76,-90,-98,-103,-109,-109,-112,-111,-115,-112,-114,-110,-115,-113,-112,-117,-111,-112,-116,-121,-121,-119,-127,-136,-139,-141,-144,-144,-142,-147,-144,-149,-150,-154,-149,-151,-151,-148,-151,-149,-148,-153,-152,-153,-154,-156
2019-05-15,16:51:31.188,-159,-149,-146,-140,-110,-76,-83,-96,-111,-145,-169,-168,-167,-172,-169,-172,-127,-20,40,-35,-281,-447,-387,-238,-174,-141,-128,-127,-113,-108,-105,-102,-103,-100,-88,-82,-72,-64,-56,-41,-29,-13,-1,18,35,53,76,94,107,112,113,107,92,67,33,-1,-29,-64,-85,-99,-118,-123,-130,-133,-127,-128,-125,-126,-125,-118,-114,-110,-111,-109,-107,-106,-109,-108,-106,-113,-117,-119,-122,-123,-122,-125,-129,-132,-127,-130,-137,-135,-143,-146,-138,-143,-143,-146,-145,-142,-142,-137,-136,-124,-117,-110,-78,-51,-61,-70,-85,-119,-144,-147,-140,-138,-141,-143,-80,20,80,-31,-289,-412,-304,-176,-123,-97
2019-05-15,16:51:32.216,-85,-82,-78,-69,-60,-57,-49,-43,-36,-26,-12,-4,3,14,30,46,63,83,102,125,147,166,178,187,185,174,154,129,94,54,20,-13,-37,-50,-62,-69,-77,-75,-78,-82,-80,-82,-75,-74,-71,-66,-60,-58,-51,-50,-50,-52,-49,-52,-60,-62,-62,-66,-65,-68,-69,-72,-78,-78,-83,-84,-84,-81,-82,-85,-85,-84,-82,-81,-84,-82,-85,-82,-81,-84,-82,-81,-74,-66,-65,-48,-12,-8,-19,-32,-53,-88,-103,-102,-102,-106,-109,-75,14,123,99,-148,-341,-307,-159,-103,-80,-67,-57,-56,-48,-47,-37,-34,-29,-21,-8,-3,7,23,33,43,58,76,96,113,136,159
2019-05-15,16:51:33.244,174,190,200,202,201,188,160,122,81,46,11,-22,-41,-53,-61,-68,-71,-74,-71,-66,-65,-68,-65,-63,-60,-58,-56,-59,-53,-44,-47,-47,-52,-55,-53,-56,-57,-60,-65,-67,-66,-70,-66,-70,-70,-72,-75,-75,-70,-69,-76,-77,-76,-75,-77,-79,-79,-79,-80,-78,-74,-73,-65,-60,-49,-13,2,-12,-26,-40,-72,-89,-90,-92,-92,-95,-64,31,141,130,-118,-318,-291,-146,-87,-61,-51,-52,-51,-42,-40,-33,-29,-28,-21,-20,-13,-8,4,14,24,41,57,74,91,111,128,144,155,164,159,155,146,116,85,40,0,-37,-65,-84,-101,-111,-115,-120,-118,-120,-119,-118
2019-05-15,16:51:34.272,-120,-117,-116,-112,-113,-113,-105,-108,-108,-103,-106,-105,-104,-107,-108,-116,-121,-120,-121,-123,-127,-124,-128,-127,-127,-122,-120,-124,-123,-122,-123,-124,-126,-128,-122,-120,-113,-111,-104,-88,-53,-42,-51,-54,-90,-120,-126,-131,-126,-128,-132,-99,-4,69,33,-184,-383,-377,-222,-140,-98,-85,-77,-76,-75,-64,-58,-54,-46,-44,-36,-27,-20,-8,-2,13,32,49,67,82,101,122,140,152,158,166,168,154,127,91,58,25,-11,-37,-56,-67,-73,-80,-84,-82,-81,-84,-85,-78,-71,-68,-69,-66,-56,-53,-52,-49,-49,-48,-53,-53,-61,-65,-63,-68,-71,-70,-72,-74,-77,-76,-74,-74
2019-05-15,16:51:35.300,-66,-73,-70,-68,-70,-65,-63,-59,-61,-59,-60,-64,-49,-42,-38,-11,18,14,8,-11,-40,-63,-65,-63,-67,-71,-67,-1,101,172,32,-228,-327,-187,-85,-41,-26,-18,-13,-7,1,6,11,19,26,38,39,52,64,72,79,95,115,131,151,173,190,217,231,243,249,249,241,224,188,152,109,72,41,17,-2,-9,-10,-19,-26,-23,-21,-22,-25,-28,-17,-14,-13,-13,-7,-2,-3,-4,-6,-9,-8,-10,-16,-19,-17,-19,-20,-18,-21,-21,-23,-23,-20,-26,-25,-23,-28,-25,-29,-25,-26,-29,-23,-23,-23,-24,-27,-26,-19,-6,1,15,53,48,31,24,6,-21
2019-05-15,16:51:36.328,-38,-39,-41,-47,-44,14,116,208,115,-141,-291,-180,-69,-21,4,11,14,20,23,31,36,42,50,56,65,71,83,94,102,117,132,150,165,188,217,236,254,261,267,270,259,243,214,175,137,95,65,46,17,1,-9,-14,-13,-14,-13,-14,-7,-4,-7,-1,-3,0,1,4,5,7,5,7,2,-2,-3,-4,-8,-13,-14,-21,-18,-19,-25,-22,-29,-30,-37,-35,-29,-31,-26,-24,-29,-30,-33,-36,-35,-34,-34,-40,-38,-27,-17,-13,8,47,35,22,16,-15,-44,-46,-48,-49,-49,-47,26,129,194,35,-209,-309,-161,-65,-20,-5,1,5,6,9,13,12
2019-05-15,16:51:37.356,21,26,31,36,37,54,66,73,82,95,111,128,149,168,187,200,212,214,211,197,181,149,110,70,33,2,-24,-41,-54,-61,-64,-63,-66,-69,-67,-63,-62,-61,-58,-58,-56,-55,-53,-54,-57,-59,-63,-63,-64,-69,-64,-69,-76,-74,-77,-78,-83,-89,-92,-90,-89,-88,-89,-84,-90,-84,-84,-82,-84,-84,-81,-82,-72,-65,-54,-16,1,-14,-21,-53,-83,-96,-94,-93,-94,-99,-85,3,86,78,-113,-337,-366,-219,-124,-76,-58,-53,-46,-42,-32,-31,-23,-15,-11,-5,1,14,20,28,42,55,75,94,112,132,152,171,184,192,195,193,186,166,132,98,59,26
2019-05-15,16:51:38.384,-1,-26,-40,-50,-50,-53,-56,-51,-52,-53,-47,-44,-50,-47,-37,-36,-33,-35,-36,-32,-37,-43,-45,-47,-47,-51,-57,-55,-62,-63,-67,-67,-65,-65,-66,-67,-68,-68,-71,-68,-65,-70,-66,-69,-68,-61,-50,-45,-36,-5,12,4,-8,-26,-57,-76,-75,-76,-79,-77,-63,26,126,143,-64,-301,-336,-173,-92,-45,-30,-23,-14,-17,-9,-2,7,13,18,25,33,45,56,68,78,95,114,130,150,174,197,220,231,237,246,246,235,212,174,138,103,68,36,14,4,-7,-14,-20,-17,-20,-19,-18,-15,-12,-3,-5,-4,-5,-1,0,-2,0,-5,-12,-12,-14,-12,-19
2019-05-15,16:51:39.412,-24,-27,-32,-24,-30,-34,-37,-39,-33,-38,-37,-35,-35,-36,-32,-31,-32,-35,-31,-31,-37,-38,-37,-29,-22,-17,-1,34,36,23,11,-13,-45,-54,-53,-52,-48,-55,-3,95,193,112,-147,-306,-214,-88,-33,-17,-10,-5,-1,2,13,19,18,34,41,50,61,72,81,91,109,123,137,156,179,204,223,235,246,255,252,250,233,206,171,131,88,57,34,13,0,-9,-14,-11,-9,-15,-17,-16,-14,-10,-13,-14,-12,-6,-5,-11,-5,-5,-7,-6,-9,-15,-20,-20,-25,-32,-27,-32,-36,-40,-41,-48,-53,-55,-62,-64,-63,-66,-73,-79,-82,-84,-89,-88,-87,-92
2019-05-15,16:51:40.440,-94,-96,-88,-82,-82,-58,-25,-33,-52,-65,-92,-123,-126,-124,-125,-129,-119,-28,74,106,-87,-322,-367,-207,-141,-97,-87,-78,-71,-65,-58,-51,-43,-41,-30,-21,-23,-9,2,8,22,35,53,70,95,111,129,149,161,165,164,167,158,137,105,70,32,3,-27,-47,-60,-67,-75,-82,-82,-84,-84,-85,-78,-76,-70,-72,-70,-67,-68,-62,-61,-59,-60,-62,-69,-71,-71,-73,-78,-79,-81,-79,-84,-88,-91,-85,-83,-83,-86,-90,-87,-81,-78,-81,-86,-78,-63,-56,-34,-5,-3,-10,-24,-55,-84,-90,-90,-91,-94,-95,-69,30,100,54,-166,-357,-332,-175,-101,-63,-51,-48
2019-05-15,16:51:41.468,-41,-30,-31,-23,-13,-10,1,9,17,32,40,50,62,73,91,110,133,158,176,192,200,206,214,212,200,169,139,99,63,38,12,-9,-23,-28,-36,-36,-38,-35,-30,-27,-27,-26,-19,-18,-14,-11,-6,-10,-6,-5,-4,-3,-6,-12,-12,-17,-19,-21,-19,-20,-21,-20,-26,-27,-30,-34,-27,-25,-24,-23,-24,-21,-23,-27,-29,-30,-27,-27,-16,-5,-1,20,54,55,44,25,0,-28,-36,-34,-34,-31,-34,12,104,198,117,-147,-302,-200,-75,-19,-1,5,9,13,22,30,40,38,40,51,61,68,77,89,104,118,134,152,167,189,211,226,243,256,261,262
2019-05-15,16:51:42.496,251,240,208,175,134,92,62,39,20,8,-7,-11,-12,-12,-17,-16,-15,-12,-10,-11,-6,-4,-2,5,0,-3,-2,-2,-4,-8,-9,-10,-15,-18,-18,-18,-22,-28,-26,-27,-28,-27,-30,-26,-25,-21,-21,-22,-23,-26,-23,-27,-26,-30,-29,-26,-25,-17,-4,0,37,48,30,19,0,-31,-50,-49,-42,-47,-53,-19,81,187,152,-94,-285,-241,-97,-37,-10,-1,3,9,13,19,25,32,38,42,53,58,71,83,92,114,127,142,164,186,209,232,251,263,266,273,268,257,235,196,153,110,73,49,23,13,3,-6,-9,-9,-6,-13,-8,-10,-2,4,3,7
2019-05-15,16:51:43.524,6,5,6,7,2,-6,-7,-8,-12,-19,-21,-24,-29,-38,-37,-44,-51,-48,-54,-56,-60,-67,-67,-69,-67,-69,-72,-73,-71,-72,-78,-83,-86,-87,-86,-88,-82,-73,-70,-61,-25,-6,-21,-38,-61,-89,-104,-100,-99,-94,-98,-73,28,118,115,-110,-331,-336,-177,-102,-67,-59,-51,-44,-37,-29,-23,-18,-13,-5,4,14,23,35,48,62,74,90,106,126,145,166,181,192,200,204,203,191,167,139,104,73,39,10,-1,-17,-23,-30,-39,-39,-42,-45,-41,-40,-34,-31,-33,-24,-24,-19,-19,-23,-21,-22,-23,-26,-29,-31,-34,-33,-38,-44,-46,-45,-45,-46,-52,-52
2019-05-15,16:51:44.552,-49,-54,-59,-56,-55,-56,-59,-60,-64,-57,-42,-22,12,21,14,4,-24,-60,-69,-70,-71,-68,-69,-41,50,118,78,-141,-322,-304,-151,-74,-36,-25,-22,-14,-4,1,5,13,19,27,28,46,49,65,81,90,109,123,138,160,177,202,214,225,233,234,229,217,201,163,129,95,60,38,21,4,-4,-5,-9,-10,-11,-4,-8,-4,3,8,15,11,16,16,17,19,14,11,8,3,1,-4,-7,-7,-13,-11,-14,-12,-16,-14,-21,-19,-18,-20,-24,-19,-19,-18,-13,-15,-17,-17,-15,-15,-17,-12,-14,-15,-10,0,11,14,42,62,46,33,24,-4,-28,-28
2019-05-15,16:51:45.580,-29,-33,-35,5,95,202,172,-78,-267,-216,-74,-11,17,23,22,33,38,42,50,54,67,72,82,87,99,112,123,136,147,171,191,206,226,248,263,274,280,281,284,275,248,213,178,138,101,77,56,41,33,26,22,20,22,21,23,23,22,22,24,28,33,34,35,35,31,36,32,29,25,23,16,13,15,8,6,3,2,0,-4,-3,-5,-7,-7,-7,-8,-3,-1,-2,-5,-2,1,0,6,3,4,0,1,0,7,18,20,55,81,65,46,38,7,-12,-17,-14,-14,-22,8,102,207,190,-56,-259,-231,-83,-23,6,11,18,22,27,26,29
2019-05-15,16:51:46.608,36,36,41,48,58,60,72,84,96,111,123,141,161,176,200,211,222,229,232,228,216,194,156,117,83,49,17,-5,-21,-35,-42,-42,-44,-49,-43,-44,-43,-37,-37,-32,-33,-31,-29,-31,-30,-27,-29,-31,-33,-30,-34,-35,-40,-45,-46,-44,-44,-43,-48,-48,-47,-49,-52,-49,-51,-54,-53,-49,-54,-50,-51,-48,-44,-50,-46,-43,-34,-22,8,24,10,6,-22,-52,-62,-64,-63,-59,-67,-48,44,127,112,-83,-299,-323,-169,-76,-32,-16,-9,-1,2,5,11,14,19,25,28,40,48,58,69,81,96,112,126,143,164,186,200,214,219,227,223,215,197,161
2019-05-15,16:51:47.636,132,95,63,35,15,1,-11,-19,-21,-23,-23,-17,-23,-18,-22,-16,-9,-7,-7,-6,3,0,-2,-2,0,-2,-5,-8,-12,-17,-14,-20,-23,-23,-27,-29,-26,-26,-27,-30,-27,-30,-36,-32,-34,-35,-31,-33,-29,-34,-35,-32,-27,-19,-9,24,49,37,34,13,-24,-45,-49,-47,-48,-45,-43,27,127,185,45,-208,-314,-182,-72,-20,-2,2,4,9,20,27,27,33,42,49,59,72,75,93,112,121,133,153,174,203,220,242,261,265,276,274,273,255,225,190,153,117,83,55,42,35,23,24,19,13,15,21,24,24,30,32,33,39,37,44,43,42
2019-05-15,16:51:48.664,39,37,35,34,33,28,29,26,22,19,18,18,14,9,10,11,12,10,8,5,0,2,0,2,4,3,8,8,6,7,9,6,12,25,30,71,74,54,43,27,-3,-19,-19,-14,-16,-21,43,147,222,104,-149,-278,-150,-45,-3,9,19,26,29,35,40,47,53,62,69,83,90,95,104,117,124,141,160,177,195,212,226,244,252,254,251,238,220,189,148,107,69,35,6,-17,-25,-38,-44,-45,-44,-45,-47,-50,-53,-52,-49,-46,-40,-39,-40,-42,-45,-46,-45,-44,-49,-57,-60,-57,-58,-63,-64,-65,-69,-70,-70,-73,-72,-81,-83,-76,-77,-79
2019-05-15,16:51:49.692,-82,-80,-81,-82,-81,-81,-83,-84,-84,-77,-77,-64,-60,-33,-4,-11,-22,-39,-74,-93,-101,-97,-92,-95,-93,-36,65,106,-14,-259,-379,-279,-145,-87,-57,-52,-46,-43,-36,-29,-30,-20,-17,-12,1,9,13,24,36,52,69,84,99,115,137,152,166,179,178,186,182,165,135,106,69,31,3,-23,-37,-53,-62,-62,-65,-67,-62,-66,-63,-63,-60,-57,-50,-51,-53,-52,-51,-50,-46,-45,-48,-50,-52,-53,-60,-63,-60,-64,-62,-67,-63,-62,-70,-70,-73,-73,-75,-75,-70,-68,-66,-64,-67,-63,-64,-67,-68,-61,-51,-43,-27,3,15,5,-3,-30,-63,-80,-78,-78
2019-05-15,16:51:50.720,-84,-86,-69,18,107,124,-88,-310,-339,-177,-93,-48,-38,-30,-26,-22,-14,-9,-9,-2,12,15,18,30,38,54,69,84,105,121,143,162,181,198,214,224,226,228,223,195,165,127,88,55,30,5,-13,-20,-26,-28,-34,-39,-40,-33,-34,-33,-23,-22,-15,-17,-15,-21,-19,-14,-17,-16,-20,-22,-25,-30,-32,-34,-40,-41,-42,-45,-47,-46,-46,-51,-51,-50,-55,-54,-52,-54,-57,-53,-54,-56,-55,-56,-57,-58,-57,-56,-55,-59,-47,-40,-36,-5,19,4,-4,-21,-50,-70,-76,-81,-75,-79,-62,21,123,144,-69,-285,-317,-163,-83,-45,-33,-27,-23,-18,-12,-2
2019-05-15,16:51:51.748,4,5,11,17,25,37,44,61,71,87,104,119,139,158,181,201,217,223,225,229,225,206,165,124,90,54,19,-4,-21,-34,-36,-41,-44,-48,-49,-43,-45,-48,-49,-44,-36,-40,-40,-39,-35,-36,-42,-43,-48,-41,-44,-52,-55,-57,-58,-61,-67,-69,-75,-78,-72,-77,-82,-88,-90,-93,-100,-102,-106,-106,-111,-107,-108,-113,-111,-115,-119,-117,-125,-130,-124,-116,-113,-88,-55,-58,-66,-81,-119,-144,-153,-154,-148,-149,-150,-98,1,71,-29,-277,-412,-321,-196,-147,-119,-113,-106,-99,-96,-89,-84,-75,-72,-67,-55,-49,-44,-25,-13,2,10,29,48,69,91,107,124,140
2019-05-15,16:51:52.776,143,148,141,128,103,64,31,-4,-38,-55,-82,-94,-102,-109,-114,-114,-108,-110,-112,-102,-100,-99,-91,-91,-89,-92,-88,-96,-97,-94,-94,-97,-103,-102,-104,-106,-109,-109,-111,-106,-111,-112,-114,-116,-114,-116,-113,-114,-114,-111,-112,-109,-111,-108,-107,-111,-102,-92,-80,-44,-25,-37,-44,-62,-94,-111,-117,-114,-116,-119,-118,-49,42,67,-73,-310,-394,-279,-154,-102,-82,-70,-70,-61,-52,-44,-39,-40,-29,-26,-18,-7,3,15,26,38,58,68,88,108,130,150,164,174,179,178,173,154,123,91,58,17,-13,-31,-47,-59,-64,-66,-72,-69,-70,-70,-72,-61,-59,-56,-49,-51
2019-05-15,16:51:53.804,-43,-40,-45,-43,-46,-42,-49,-54,-50,-55,-52,-59,-64,-56,-57,-57,-64,-67,-65,-70,-67,-67,-67,-62,-57,-58,-61,-61,-56,-55,-56,-58,-58,-53,-58,-57,-52,-41,-33,-28,10,18,-1,-6,-21,-53,-64,-65,-60,-62,-66,-40,51,147,135,-102,-301,-285,-127,-63,-35,-27,-20,-11,0,5,10,16,26,29,41,46,57,66,76,95,110,122,144,164,184,205,225,236,245,250,247,241,217,185,148,109,73,44,24,9,-1,-10,-13,-19,-21,-20,-18,-14,-14,-12,-11,-4,-8,-9,-9,-8,-3,-9,-10,-10,-17,-20,-23,-20,-21,-30,-28,-29,-35,-30,-28,-29
2019-05-15,16:51:54.832,-32,-36,-37,-40,-36,-35,-34,-34,-31,-33,-34,-32,-29,-31,-32,-29,-31,-34,-32,-22,-15,4,24,8,9,0,-24,-46,-48,-46,-49,-52,-31,63,169,175,-52,-273,-283,-121,-43,-5,-1,4,10,15,19,24,29,29,34,44,48,51,63,72,83,93,104,118,140,159,182,195,204,214,215,209,201,182,146,107,62,26,-5,-29,-47,-58,-62,-67,-76,-75,-74,-72,-69,-68,-59,-58,-60,-59,-60,-58,-56,-58,-57,-58,-57,-57,-63,-64,-68,-70,-72,-75,-71,-76,-74,-80,-77,-77,-82,-79,-80,-75,-76,-79,-78,-82,-78,-78,-81,-84,-91,-85,-70,-70,-43,-44
2019-05-15,16:51:55.860,-45,-52,-67,-86,-95,-93,-90,-86,-85,-18,83,117,-26,-268,-366,-255,-129,-73,-48,-36,-26,-24,-23,-16,-13,-7,-3,2,11,24,34,43,58,70,80,99,117,134,158,179,193,199,197,199,196,176,152,115,81,45,15,-5,-24,-31,-36,-46,-45,-44,-45,-44,-42,-36,-35,-34,-27,-28,-29,-25,-22,-24,-21,-22,-25,-23,-27,-32,-29,-34,-34,-41,-40,-45,-39,-36,-37,-39,-34,-35,-36,-41,-40,-38,-36,-38,-39,-41,-48,-45,-38,-28,0,1,7,4,-18,-35,-34,-39,-36,-38,-21,69,164,182,-27,-260,-293,-133,-45,5,22,29,28,35,38,44,48,49
2019-05-15,16:51:56.888,60,67,72,78,89,99,114,127,145,158,181,198,228,242,248,259,264,266,258,232,198,164,125,83,51,37,18,6,1,-4,-4,-9,-9,-7,-8,5,3,5,10,13,17,17,19,20,15,14,14,17,15,10,8,5,4,1,-3,-1,-7,-11,-10,-11,-7,-10,-13,-13,-15,-12,-12,-11,-13,-14,-20,-28,-33,-28,-26,4,20,18,24,20,-2,-31,-24,-20,-26,-29,6,107,203,164,-82,-272,-221,-69,-12,13,21,26,30,42,48,53,63,62,66,70,80,90,98,118,127,141,157,176,200,220,240,258,269,274,283,283,274,246,206,161,125,93
2019-05-15,16:51:57.916,64,44,33,25,18,17,14,19,17,21,26,21,30,19,28,31,35,36,39,42,39,37,40,39,41,39,38,37,37,41,33,33,33,35,33,27,29,28,26,30,26,27,25,32,38,36,19,18,22,20,52,54,64,69,52,23,5,8,5,8,7,66,171,261,155,-119,-265,-155,-36,14,29,29,36,35,37,40,42,51,51,55,58,60,75,86,98,106,118,134,150,167,185,205,217,219,224,228,219,197,163,131,92,54,17,-11,-33,-52,-58,-66,-72,-70,-68,-73,-68,-66,-66,-65,-64,-64,-61,-57,-58,-55,-55,-58,-57,-64,-66,-68
2019-05-15,16:51:58.944,-67,-70,-79,-77,-78,-76,-73,-81,-82,-81,-83,-80,-82,-81,-83,-79,-81,-86,-95,-94,-84,-74,-43,-42,-33,-39,-57,-75,-79,-78,-75,-74,-71,10,118,138,-35,-277,-355,-228,-114,-61,-40,-30,-23,-16,-13,-12,-10,-4,2,13,15,25,35,41,56,71,88,102,119,145,161,183,190,197,198,195,191,168,137,102,62,33,5,-18,-33,-44,-47,-54,-61,-60,-59,-55,-59,-53,-48,-49,-43,-41,-44,-40,-36,-34,-34,-37,-35,-34,-37,-40,-43,-41,-48,-49,-47,-44,-47,-48,-52,-55,-54,-55,-51,-57,-60,-53,-58,-68,-75,-66,-55,-21,-17,-13,-7,-21,-44,-54
2019-05-15,16:51:59.972,-56,-56,-58,-58,0,110,184,84,-181,-326,-230,-100,-45,-18,-9,2,8,16,16,25,31,37,45,53,57,69,82,89,103,122,138,157,179,202,223,238,252,260,256,246,231,206,167,127,91,64,35,18,6,-5,-7,-10,-7,-9,-7,-9,-6,0,5,4,5,6,9,14,9,13,7,11,8,6,1,-8,-7,-8,-8,-9,-10,-16,-21,-23,-23,-23,-21,-21,-21,-21,-24,-26,-25,-28,-29,-30,-31,-41,-48,-50,-42,-31,-2,-4,4,6,-17,-41,-51,-49,-46,-48,-41,35,142,211,51,-196,-292,-141,-53,-5,5,9,12,16,18,28,33,40,44,51
2019-05-15,16:52:01.000,57,63,73,85,95,114,130,145,164,185,206,229,244,251,259,258,250,229,193,154,116,77,48,19,1,-10,-15,-24,-23,-22,-29,-24,-20,-21,-23,-19,-13,-14,-14,-12,-9,-10,-11,-13,-15,-19,-21,-27,-31,-32,-34,-37,-41,-46,-49,-48,-46,-48,-50,-50,-55,-56,-57,-65,-67,-68,-71,-73,-75,-81,-82,-83,-105,-112,-111,-108,-76,-71,-73,-65,-77,-109,-127,-125,-129,-134,-132,-96,6,116,80,-173,-361,-314,-176,-122,-98,-92,-86,-78,-68,-65,-67,-63,-51,-47,-35,-27,-19,-7,6,21,33,48,67,87,109,128,138,153,161,167,162,151,124,90,49,14
2019-05-15,16:52:02.028,-24,-46,-63,-73,-86,-86,-90,-95,-96,-97,-94,-88,-84,-83,-78,-81,-83,-79,-77,-74,-76,-74,-78,-80,-79,-82,-85,-91,-91,-95,-95,-101,-103,-97,-96,-94,-93,-96,-91,-91,-94,-94,-91,-91,-94,-105,-112,-102,-95,-73,-66,-56,-54,-70,-100,-103,-97,-95,-96,-96,-47,54,105,21,-220,-360,-288,-149,-88,-52,-40,-34,-27,-26,-17,-6,-6,2,17,22,29,39,46,60,71,92,103,128,156,172,193,209,219,225,225,223,206,178,148,105,73,43,22,1,-8,-15,-21,-31,-27,-22,-23,-21,-18,-21,-21,-15,-20,-20,-10,-21,-16,-19,-25,-20,-29,-32,-38,-40
2019-05-15,16:52:03.056,-43,-40,-33,-36,-33,-23,-18,-17,-12,-8,-7,-5,2,1,-4,0,-2,-7,-15,-19,-20,-21,1,23,23,33,23,2,-22,-19,-11,-12,-14,4,88,197,194,-48,-260,-250,-105,-37,-4,-5,-2,2,7,19,20,28,31,31,35,42,50,58,64,77,81,91,102,119,136,153,173,189,191,190,180,167,146,111,68,27,-10,-41,-63,-83,-92,-101,-109,-110,-111,-116,-115,-113,-110,-109,-113,-110,-106,-106,-110,-107,-107,-114,-115,-118,-123,-118,-123,-127,-130,-130,-131,-136,-133,-134,-140,-141,-136,-142,-146,-142,-141,-141,-149,-157,-155,-147,-136,-108,-106,-99,-105,-129,-147,-138
2019-05-15,16:52:04.084,-141,-143,-148,-130,-40,53,58,-141,-364,-391,-249,-161,-111,-98,-90,-84,-75,-72,-64,-55,-52,-46,-45,-41,-27,-18,-3,5,20,41,58,77,96,114,129,144,154,163,165,157,137,105,67,34,5,-22,-37,-57,-62,-66,-67,-65,-64,-62,-64,-63,-55,-56,-49,-37,-35,-34,-33,-33,-38,-40,-37,-37,-35,-35,-41,-38,-46,-46,-46,-40,-42,-46,-46,-43,-44,-49,-48,-47,-57,-66,-59,-49,-12,-7,2,9,-8,-26,-36,-33,-30,-28,-33,0,103,204,160,-92,-269,-213,-71,-13,17,27,33,41,43,47,56,62,68,72,79,97,103,115,120,136,148,165,188,209
2019-05-15,16:52:05.112,226,246,263,278,282,288,284,266,243,200,164,129,98,72,48,37,29,26,25,20,17,19,23,24,26,31,27,33,35,36,36,35,36,34,31,31,28,21,24,19,12,9,12,9,2,3,-2,1,-2,-20,-19,-12,4,28,27,40,31,-1,-18,-22,-25,-22,-23,-21,30,134,231,135,-134,-289,-168,-57,-10,7,12,17,19,21,25,32,36,43,49,55,59,70,80,92,108,122,136,157,183,207,232,245,248,251,254,242,225,190,152,111,71,43,19,1,-9,-19,-19,-17,-13,-15,-12,-6,-4,2,3,5,7,4,7,11,9,10,8,8
2019-05-15,16:52:06.140,6,4,1,0,2,-4,-8,-8,-10,-6,-5,-11,-25,-27,-21,1,24,19,32,28,-4,-23,-27,-29,-31,-35,-37,28,137,221,100,-176,-301,-168,-61,-11,1,6,10,14,19,21,26,28,38,42,49,52,62,74,83,95,106,126,150,169,188,205,216,222,227,224,209,188,155,116,79,42,18,-1,-20,-28,-32,-34,-40,-38,-33,-35,-35,-28,-28,-25,-23,-23,-15,-15,-16,-18,-18,-20,-23,-28,-26,-31,-33,-39,-41,-42,-49,-53,-43,-37,0,-3,-1,10,-15,-36,-44,-46,-46,-39,-42,-20,102,187,149,-86,-290,-269,-116,-43,-2,9,17,23,23,35
2019-05-15,16:52:07.168,37,42,44,52,61,65,73,80,95,107,125,142,156,184,209,221,238,242,247,254,250,230,196,167,129,97,66,46,34,23,14,8,7,6,5,7,12,15,16,20,26,26,27,30,30,29,26,25,28,22,20,20,16,19,15,13,16,18,15,5,2,5,31,59,47,53,48,21,2,2,-1,4,1,7,78,186,249,105,-156,-256,-120,-17,30,44,55,62,64,69,72,79,90,100,103,108,118,130,139,153,167,184,204,223,244,265,287,299,304,306,303,294,267,230,191,154,121,97,83,68,60,55,54,56,56,57,62,61,64,67
2019-05-15,16:52:08.196,68,71,76,81,85,88,86,83,84,83,84,79,72,68,71,65,63,64,62,59,55,57,55,54,50,44,45,51,79,100,98,107,102,74,51,48,51,50,46,45,114,219,300,161,-100,-202,-54,38,80,94,96,101,111,117,123,122,133,137,140,145,155,169,181,191,203,224,239,260,280,300,322,333,345,351,348,338,314,277,236,200,169,137,117,102,90,85,77,82,78,75,76,79,84,87,84,89,92,94,94,94,95,89,85,83,82,71,62,56,48,49,44,34,35,33,28,27,22,20,12,12,6,1,3,2,-10,-12,-9,-2
2019-05-15,16:52:09.224,7,35,37,40,33,0,-16,-18,-20,-22,-26,-12,73,181,228,50,-197,-267,-124,-37,4,17,29,31,37,41,46,48,57,65,71,78,93,100,115,125,137,153,168,187,209,226,239,250,260,265,261,245,224,188,151,117,87,62,44,31,19,11,9,9,10,17,18,22,18,18,20,24,23,33,28,33,34,31,31,31,26,27,23,18,13,15,15,11,7,6,7,5,5,6,1,4,7,-4,-14,-17,1,11,39,40,46,44,19,-6,-9,-10,-5,-7,-4,76,177,217,47,-206,-274,-130,-25,19,38,46,49,60,67,70,76,83,86,88
2019-05-15,16:52:10.252,98,108,116,131,146,154,167,183,204,221,242,262,269,275,279,275,261,240,212,175,131,102,78,60,50,39,35,30,29,25,29,35,38,41,45,48,50,52,53,55,56,55,52,52,51,48,44,46,45,44,39,42,38,38,41,43,41,35,31,33,34,35,35,35,33,37,34,28,22,15,18,25,44,59,60,69,62,36,12,11,16,18,14,39,126,235,247,14,-198,-195,-34,32,64,71,73,82,86,92,94,99,102,112,114,122,133,143,153,165,178,194,210,226,245,270,286,299,304,306,303,289,260,222,184,144,107,82,59,42
2019-05-15,16:52:11.280,42,31,29,30,27,28,25,27,30,33,38,39,45,46,44,44,38,43,40,36,32,30,33,30,33,29,25,27,22,17,26,19,17,16,21,17,19,18,15,14,18,17,18,19,21,23,7,3,11,14,48,52,60,62,46,14,1,2,0,-5,-1,45,146,252,171,-105,-267,-168,-44,3,27,31,34,36,40,41,46,45,48,54,56,60,72,78,86,97,109,126,139,157,183,192,204,216,214,216,211,193,164,127,90,51,19,-5,-21,-36,-44,-44,-50,-51,-49,-48,-47,-46,-43,-40,-39,-34,-42,-38,-35,-33,-35,-37,-38,-38,-44,-39
2019-05-15,16:52:12.308,-45,-47,-51,-50,-50,-56,-57,-61,-59,-57,-60,-55,-56,-61,-62,-62,-61,-61,-61,-59,-65,-76,-84,-75,-69,-48,-22,-23,-20,-29,-54,-69,-70,-65,-62,-67,-33,81,153,103,-150,-332,-285,-127,-54,-15,4,8,14,16,23,26,37,43,46,56,61,69,80,96,105,121,136,151,171,192,212,220,235,240,241,236,222,199,165,128,89,61,39,24,11,-1,-4,-6,-8,-8,-1,2,10,12,11,16,21,28,26,27,26,24,21,21,16,15,7,5,4,2,4,4,-3,-3,-8,-7,-6,-8,-5,-7,-4,-5,-4,-5,-7,-5,-6,-4,-6,-2,-7,-23
2019-05-15,16:52:13.336,-26,-20,-17,12,18,25,30,14,-12,-25,-26,-20,-22,-19,47,150,227,94,-165,-284,-145,-35,8,29,37,43,50,52,61,59,66,73,78,87,96,106,110,120,136,152,167,186,204,226,244,258,263,264,266,256,239,211,173,134,102,70,40,23,17,7,0,-3,-6,-2,3,6,5,7,13,12,15,17,14,15,15,13,12,6,5,-2,0,-5,-8,-11,-14,-14,-20,-24,-20,-23,-19,-22,-27,-24,-24,-17,-22,-24,-20,-24,-16,-18,-17,-17,-21,-30,-38,-28,-25,11,14,20,24,6,-23,-29,-25,-19,-21,-21,53,161,225,68,-192,-282,-133,-38
2019-05-15,16:52:14.364,5,13,21,28,34,40,40,47,53,62,71,78,89,94,107,115,125,143,159,171,191,206,221,239,239,241,240,229,206,174,139,98,60,22,-6,-25,-38,-48,-58,-62,-61,-63,-60,-58,-57,-57,-60,-53,-55,-52,-50,-51,-54,-60,-62,-65,-72,-76,-81,-85,-84,-92,-94,-95,-98,-103,-105,-107,-108,-107,-105,-104,-105,-106,-105,-106,-105,-107,-109,-110,-120,-121,-126,-120,-105,-77,-74,-67,-74,-96,-109,-115,-108,-109,-107,-84,20,105,68,-149,-361,-359,-204,-119,-77,-63,-56,-45,-43,-40,-36,-35,-26,-24,-16,-6,-2,8,20,37,49,59,74,89,110,126,136,151
2019-05-15,16:52:15.392,155,160,155,146,126,92,57,29,-2,-29,-49,-63,-75,-80,-80,-83,-84,-78,-80,-71,-67,-66,-68,-60,-55,-63,-55,-54,-56,-55,-54,-53,-57,-55,-56,-58,-60,-59,-59,-56,-59,-65,-63,-60,-54,-55,-59,-56,-53,-51,-54,-60,-70,-76,-66,-59,-25,-23,-16,-14,-31,-50,-60,-59,-60,-62,-49,29,137,184,17,-233,-310,-168,-62,-14,6,13,20,29,34,41,44,49,57,63,71,76,83,97,111,123,141,158,173,196,222,231,238,249,255,253,243,228,193,151,116,83,53,37,21,14,3,0,-5,1,2,2,0,9,15,19,18,18,22,23,24,20
2019-05-15,16:52:16.420,20,23,20,21,13,10,5,4,2,6,1,-2,-1,3,-2,-8,-7,-4,-6,-6,-6,-11,-6,-6,-6,-8,-19,-29,-21,-17,-1,21,25,32,23,0,-22,-26,-25,-24,-26,0,93,203,196,-40,-255,-226,-74,-15,22,28,36,42,42,46,56,63,65,66,80,85,96,108,115,130,146,162,179,195,225,244,258,273,278,280,272,263,239,198,159,116,87,63,42,27,16,11,8,7,6,-1,8,5,2,9,14,16,19,17,20,17,14,22,16,15,9,11,9,0,3,-3,-3,2,-2,0,-8,-14,-9,-13,-14,-13,-14,-17,-13,-10,-10,-7
2019-05-15,16:52:17.448,-7,-6,-4,-9,-18,-23,-12,-7,26,26,32,35,16,-9,-16,-15,-14,-13,-12,58,162,245,99,-167,-274,-133,-41,5,15,18,24,26,28,28,32,31,37,44,49,57,63,71,82,96,110,127,142,164,185,204,220,222,226,227,219,195,164,125,87,47,14,-6,-27,-43,-46,-55,-58,-55,-50,-55,-54,-47,-43,-43,-42,-39,-42,-37,-32,-28,-28,-28,-30,-35,-36,-38,-42,-46,-43,-45,-49,-51,-52,-53,-53,-59,-62,-59,-61,-58,-62,-64,-67,-63,-54,-60,-75,-84,-79,-70,-59,-30,-27,-30,-36,-61,-77,-76,-75,-73,-76,-51,54,130,92,-138,-326,-306
2019-05-15,16:52:18.476,-154,-76,-34,-19,-11,-9,1,1,7,9,16,22,28,39,45,55,65,76,90,112,131,147,162,183,197,205,207,214,209,195,170,142,101,65,31,5,-5,-15,-26,-28,-32,-30,-33,-28,-29,-30,-23,-15,-10,-7,-2,1,-2,-1,-3,-5,-4,-6,-9,-15,-20,-18,-18,-21,-25,-21,-22,-19,-22,-28,-26,-24,-27,-26,-30,-26,-19,-22,-20,-26,-39,-40,-30,-26,3,11,20,22,10,-16,-24,-20,-24,-25,-25,27,132,215,119,-139,-285,-184,-58,-2,21,28,33,39,47,48,52,59,61,73,80,88,98,108,117,133,147,166,183,209,231,252,266,279
2019-05-15,16:52:19.504,289,291,284,267,232,198,159,119,93,66,49,37,31,29,23,22,21,15,20,25,22,29,31,35,34,40,34,35,39,40,38,29,30,23,20,24,24,24,20,23,23,16,15,14,12,14,12,17,17,15,16,17,15,17,11,11,11,11,1,-9,-10,-4,9,38,37,39,40,19,-9,-11,-6,-10,-13,5,91,206,243,32,-198,-233,-75,-10,31,39,45,52,58,63,72,78,88,91,98,106,113,124,135,145,157,168,186,203,227,243,257,267,282,281,275,257,232,189,148,107,67,34,12,-1,-15,-22,-28,-30,-33,-34,-37,-33,-36,-34
2019-05-15,16:52:20.532,-30,-29,-27,-23,-18,-19,-20,-23,-22,-27,-32,-27,-33,-35,-36,-37,-44,-46,-49,-50,-49,-53,-54,-51,-53,-54,-55,-57,-55,-53,-52,-55,-56,-55,-56,-58,-52,-53,-68,-77,-68,-64,-35,-31,-19,-15,-29,-57,-67,-61,-65,-64,-59,-11,88,147,51,-190,-328,-247,-115,-52,-18,-9,3,4,4,7,11,19,21,32,39,44,54,62,75,82,94,114,127,147,165,185,206,215,218,222,216,203,174,144,106,68,44,19,5,-5,-12,-13,-18,-17,-16,-19,-17,-14,-9,-8,-2,0,3,3,5,8,9,7,4,5,0,0,-1,-3,-2,-10,-9,-10,-15,-20
2019-05-15,16:52:21.560,-30,-31,-30,-30,-30,-25,-27,-27,-21,-23,-26,-26,-23,-22,-28,-41,-43,-34,-26,10,15,18,18,5,-22,-33,-30,-28,-29,-28,30,135,220,116,-151,-286,-178,-59,-2,22,28,33,34,39,45,51,54,63,73,77,88,99,103,114,138,148,158,181,201,224,241,252,264,273,273,267,252,220,185,143,107,77,52,36,30,20,18,11,10,10,9,9,7,14,18,21,23,23,25,22,31,29,23,22,21,21,19,12,11,7,2,9,6,3,2,3,1,1,0,-1,1,-2,-4,-6,-3,-3,-3,-6,-3,0,-6,-5,-9,-4,-7,-19,-25,-14
2019-05-15,16:52:22.588,-7,22,28,32,38,24,-7,-15,-17,-20,-19,-20,33,136,231,132,-130,-283,-174,-66,-19,-1,1,3,6,8,13,15,16,18,29,34,38,47,54,64,79,96,107,123,147,164,181,195,203,207,211,207,193,158,120,79,47,15,-8,-27,-45,-52,-58,-62,-58,-60,-58,-60,-59,-58,-53,-51,-46,-47,-50,-52,-50,-51,-52,-55,-58,-57,-60,-64,-63,-66,-63,-66,-72,-69,-69,-72,-74,-80,-76,-76,-72,-73,-75,-69,-71,-67,-70,-73,-72,-73,-69,-70,-78,-82,-84,-76,-69,-37,-36,-34,-32,-50,-69,-77,-76,-74,-79,-76,-8,88,117,-28,-262,-344,-228,-108
2019-05-15,16:52:23.616,-56,-33,-23,-15,-13,-9,-3,3,4,7,14,24,36,45,57,65,76,92,109,125,147,165,183,199,208,210,212,205,187,160,125,87,53,21,2,-14,-20,-32,-39,-36,-38,-36,-36,-35,-29,-31,-26,-24,-26,-15,-18,-17,-17,-10,-13,-17,-19,-22,-19,-21,-24,-24,-27,-32,-29,-31,-33,-34,-35,-35,-36,-34,-36,-38,-39,-36,-31,-29,-31,-32,-35,-33,-34,-41,-48,-47,-39,-26,2,3,5,1,-22,-42,-42,-39,-39,-39,-28,56,168,211,11,-229,-270,-117,-41,0,10,20,26,29,34,40,46,47,53,61,68,73,83,92,106,123,133,149,173,194
2019-05-15,16:52:24.644,211,231,242,252,253,256,248,224,196,152,111,79,43,24,7,-4,-11,-13,-13,-15,-14,-11,-7,-5,-2,0,4,7,13,14,15,17,16,14,11,12,8,6,5,3,-2,-3,-7,-4,-9,-12,-9,-11,-10,-11,-10,-5,-11,-11,-14,-14,-19,-18,-16,-21,-24,-21,-22,-23,-21,-27,-38,-36,-29,-15,11,11,20,18,-10,-29,-29,-29,-31,-39,-21,70,195,242,20,-234,-275,-115,-42,-16,-10,-7,6,9,7,15,20,21,27,30,37,46,54,68,80,96,107,127,145,160,183,203,215,223,227,227,214,194,165,125,82,49,18,-2,-23,-28,-40,-44
2019-05-15,16:52:25.672,-39,-42,-40,-35,-32,-27,-27,-27,-27,-22,-24,-26,-26,-31,-29,-26,-27,-28,-32,-38,-36,-38,-38,-41,-43,-47,-49,-49,-50,-53,-50,-47,-53,-56,-51,-50,-53,-51,-53,-55,-59,-52,-48,-57,-62,-65,-55,-51,-24,-20,-9,-9,-28,-49,-57,-51,-52,-50,-49,14,125,171,45,-208,-321,-211,-88,-36,-7,6,8,15,16,23,23,27,32,35,44,52,60,70,79,90,101,121,140,161,181,201,218,223,229,230,225,208,177,147,110,73,41,14,-3,-15,-22,-28,-29,-32,-32,-30,-27,-28,-25,-19,-9,-8,-11,-6,-5,-7,-7,-8,-7,-15,-15,-15,-20,-21
2019-05-15,16:52:26.700,-32,-31,-35,-39,-41,-36,-36,-39,-43,-37,-38,-38,-37,-40,-39,-43,-39,-42,-39,-38,-40,-51,-54,-46,-44,-19,-4,-3,2,-5,-33,-46,-45,-40,-44,-44,0,99,203,157,-99,-284,-222,-80,-27,-1,10,13,20,26,33,39,42,43,56,62,68,81,94,108,116,132,150,168,187,203,227,244,256,260,259,257,241,216,182,141,105,70,42,26,17,10,4,-5,-7,-8,-4,-4,-4,-1,7,10,11,16,19,16,18,17,17,19,17,15,13,8,7,4,1,1,0,-3,-9,-2,-10,-9,-10,-8,-2,-3,-2,-4,-9,-7,-7,-7,-7,-9,-3,-5
2019-05-15,16:52:27.728,-4,-6,-5,-12,-23,-25,-14,-12,29,30,37,39,24,-5,-20,-12,-14,-13,-13,48,157,256,142,-121,-269,-146,-38,14,33,32,38,50,53,58,57,69,76,79,87,98,104,117,124,139,154,169,193,215,234,253,271,281,288,288,280,265,237,203,162,121,92,66,49,33,23,22,15,13,12,9,12,11,12,19,17,17,21,20,28,24,25,25,20,17,16,17,11,13,8,10,8,5,2,4,3,-1,1,-3,-1,2,1,-6,-4,-10,-12,-8,-11,-13,-14,-16,-10,-12,-9,-6,-12,-10,-13,-14,-13,-25,-32,-25,-21,11,18,25,30,17
2019-05-15,16:52:28.756,-12,-27,-22,-21,-21,-22,25,130,237,172,-89,-271,-190,-62,-7,10,14,23,22,28,31,32,39,44,45,50,56,61,67,78,87,97,110,130,146,166,182,197,205,211,212,207,198,165,133,96,55,22,-7,-31,-43,-48,-61,-66,-61,-59,-62,-62,-58,-58,-51,-53,-53,-51,-47,-49,-46,-45,-47,-48,-50,-51,-51,-56,-59,-58,-64,-61,-63,-61,-63,-66,-65,-70,-67,-64,-66,-66,-67,-66,-66,-67,-69,-72,-73,-74,-75,-73,-74,-70,-72,-73,-83,-95,-79,-82,-54,-36,-34,-31,-50,-70,-80,-77,-74,-75,-78,-34,78,139,58,-180,-335,-280,-132,-72,-33,-22
2019-05-15,16:52:29.784,-18,-14,-11,-6,3,2,6,11,17,23,32,39,47,64,75,90,107,123,143,162,176,188,191,196,196,186,160,124,89,56,24,0,-20,-28,-40,-48,-52,-54,-54,-48,-49,-45,-46,-40,-38,-33,-31,-30,-29,-30,-31,-33,-39,-39,-44,-49,-49,-47,-52,-54,-54,-57,-57,-57,-56,-58,-62,-62,-63,-64,-64,-60,-64,-61,-58,-59,-59,-61,-58,-56,-61,-72,-74,-63,-54,-24,-22,-15,-13,-29,-56,-58,-58,-56,-56,-58,19,125,186,47,-215,-318,-188,-75,-25,-3,5,8,13,19,21,32,33,38,45,50,62,71,79,88,100,118,131,154,174,197,217,230
2019-05-15,16:52:30.812,237,243,242,238,217,189,156,119,77,47,24,5,-5,-12,-20,-20,-21,-21,-16,-13,-11,-10,-4,-1,3,8,8,5,8,7,6,9,5,6,-2,-5,-2,-6,-8,-10,-5,-7,-10,-14,-12,-9,-9,-11,-11,-16,-16,-19,-16,-14,-19,-16,-21,-21,-17,-19,-20,-16,-13,-21,-29,-23,-22,10,18,19,26,14,-8,-19,-17,-17,-22,-20,28,128,225,153,-107,-276,-179,-58,-5,16,22,25,31,36,45,48,51,58,63,66,77,84,93,109,116,133,145,169,190,208,229,240,253,260,263,254,245,220,186,146,101,67,45,21,2,-3,-8,-16,-18,-18
2019-05-15,16:52:31.840,-13,-17,-15,-14,-15,-17,-15,-13,-12,-14,-16,-15,-16,-23,-26,-33,-38,-39,-43,-54,-54,-59,-60,-63,-65,-63,-69,-67,-73,-73,-74,-78,-78,-78,-83,-86,-86,-84,-87,-87,-89,-87,-89,-92,-90,-96,-101,-94,-95,-66,-60,-52,-49,-64,-86,-97,-94,-97,-99,-95,-45,68,147,78,-178,-346,-277,-137,-81,-51,-46,-35,-33,-32,-20,-15,-16,-4,3,9,14,22,31,44,56,64,82,101,122,145,164,181,195,196,198,194,182,160,129,93,59,27,0,-21,-29,-39,-43,-51,-55,-52,-56,-57,-52,-51,-46,-48,-44,-41,-37,-34,-34,-36,-34,-37,-37,-42,-51,-51
2019-05-15,16:52:32.868,-49,-44,-49,-46,-46,-51,-51,-52,-50,-54,-55,-50,-50,-51,-56,-53,-53,-59,-60,-63,-69,-74,-81,-66,-61,-29,-26,-25,-17,-41,-62,-60,-62,-57,-58,-53,23,120,155,-7,-249,-316,-187,-76,-32,-11,0,7,14,19,23,31,31,32,40,48,55,62,72,85,102,120,132,150,174,200,216,232,242,244,242,236,213,186,148,113,80,47,28,9,-5,-9,-15,-17,-20,-21,-24,-18,-16,-15,-9,-5,-6,-5,-4,3,1,0,0,0,-7,-5,-9,-14,-18,-16,-19,-21,-22,-19,-22,-21,-24,-25,-23,-23,-23,-22,-18,-20,-21,-20,-22,-23,-31,-29,-24,-24
2019-05-15,16:52:33.896,-34,-42,-41,-29,-13,10,7,18,16,-9,-30,-32,-27,-23,-29,-6,78,191,213,-8,-230,-246,-88,-17,16,26,30,34,42,54,56,59,65,72,76,87,91,101,115,131,145,159,180,198,212,240,258,270,280,284,283,277,252,219,180,145,105,75,47,34,27,17,14,9,10,14,12,15,18,20,22,25,28,29,29,29,27,28,23,21,25,18,19,16,12,8,7,4,2,-2,4,0,-2,-6,-4,-5,-7,-6,-8,-6,-2,-11,-10,-11,-9,-6,-3,-10,-10,-12,-19,-22,-12,5,29,31,40,36,9,-13,-10,-6,-9,-11,8,96,215,225
2019-05-15,16:52:34.924,-3,-228,-234,-75,-3,23,37,43,49,53,59,61,68,74,85,84,93,105,113,123,135,154,167,177,198,222,242,260,274,288,287,282,274,253,217,175,135,96,67,47,22,19,13,8,9,5,4,5,4,8,9,15,20,18,23,19,20,25,19,18,18,12,10,5,-2,-3,-2,-12,-20,-24,-26,-30,-30,-31,-37,-40,-42,-47,-52,-53,-56,-64,-63,-61,-62,-63,-69,-70,-69,-70,-84,-86,-81,-84,-52,-42,-35,-33,-48,-73,-90,-88,-84,-86,-87,-45,73,163,105,-148,-332,-271,-132,-75,-39,-34,-27,-22,-18,-8,-6,-3,4,7,13,21,28,35
2019-05-15,16:52:35.952,43,51,62,78,93,115,134,147,163,174,179,178,173,171,143,111,77,37,10,-15,-37,-48,-56,-60,-65,-65,-67,-66,-60,-58,-53,-50,-50,-50,-47,-43,-47,-43,-41,-45,-46,-47,-52,-55,-60,-59,-60,-60,-55,-62,-62,-62,-64,-62,-65,-66,-66,-73,-66,-65,-65,-66,-66,-73,-86,-93,-83,-82,-51,-47,-34,-42,-61,-79,-89,-87,-85,-85,-82,-17,85,123,-7,-248,-346,-239,-114,-63,-38,-33,-29,-22,-20,-12,-8,-5,-2,8,14,16,31,40,57,68,83,102,118,139,159,174,191,201,205,207,204,190,160,123,88,55,25,2,-17,-29,-38,-42,-44,-47
2019-05-15,16:52:36.980,-41,-42,-39,-36,-31,-28,-28,-26,-22,-13,-15,-16,-19,-14,-16,-20,-22,-24,-29,-30,-29,-32,-33,-36,-31,-31,-30,-33,-35,-38,-38,-38,-38,-43,-41,-39,-37,-37,-40,-37,-39,-51,-58,-48,-40,-13,-7,-1,7,-8,-27,-45,-40,-40,-46,-45,-1,94,195,131,-131,-293,-200,-74,-23,-4,-5,0,8,15,23,18,23,34,32,42,48,60,71,78,96,115,133,153,175,196,215,239,249,255,256,257,242,213,177,136,97,71,40,15,2,-5,-11,-22,-15,-18,-18,-17,-14,-12,-14,-14,-7,-9,-6,-3,-7,-8,-8,-14,-18,-23,-23,-26,-27,-34,-34,-34
2019-05-15,16:52:38.008,-34,-36,-39,-44,-51,-52,-55,-58,-66,-67,-75,-75,-82,-83,-86,-90,-88,-93,-92,-97,-113,-114,-107,-99,-69,-68,-62,-68,-91,-114,-121,-119,-121,-120,-114,-34,85,130,-40,-289,-365,-226,-134,-97,-78,-79,-71,-62,-59,-56,-56,-45,-46,-39,-26,-25,-13,-2,10,18,26,47,64,83,110,129,139,148,154,153,144,124,98,60,28,-9,-36,-53,-74,-79,-86,-86,-89,-96,-94,-92,-90,-91,-87,-79,-76,-72,-70,-72,-71,-69,-71,-76,-76,-78,-83,-84,-82,-83,-86,-86,-92,-91,-91,-94,-95,-93,-97,-99,-102,-104,-101,-106,-104,-104,-112,-120,-121,-114,-110,-79,-77,-70
2019-05-15,16:52:39.036,-70,-91,-114,-112,-114,-115,-114,-105,-23,78,104,-60,-301,-369,-241,-134,-89,-68,-56,-54,-44,-41,-33,-30,-26,-18,-11,-5,1,12,26,40,49,67,82,101,121,145,169,180,182,187,189,184,162,132,93,61,26,-5,-25,-34,-46,-49,-56,-58,-57,-57,-57,-57,-56,-41,-39,-40,-39,-33,-30,-30,-25,-26,-20,-23,-25,-26,-31,-29,-33,-37,-34,-32,-30,-32,-36,-40,-44,-50,-46,-40,-38,-41,-44,-45,-43,-42,-41,-42,-41,-41,-39,-51,-61,-55,-48,-16,-10,0,2,-5,-33,-51,-53,-50,-47,-45,1,96,203,147,-109,-283,-199,-72,-17,6,13,18,23,24
2019-05-15,16:52:40.064,28,34,40,47,52,55,62,73,77,87,101,111,130,148,172,193,213,228,242,248,250,244,230,203,171,129,86,55,27,1,-10,-18,-24,-28,-32,-29,-34,-31,-35,-28,-23,-23,-21,-16,-8,-13,-16,-13,-16,-26,-27,-27,-27,-27,-31,-33,-38,-36,-33,-39,-45,-43,-43,-42,-41,-44,-49,-48,-50,-50,-52,-53,-53,-54,-52,-55,-55,-55,-63,-70,-76,-72,-66,-34,-27,-20,-17,-30,-56,-69,-67,-70,-71,-73,-17,91,190,106,-162,-330,-222,-96,-44,-28,-20,-14,-11,-5,-6,3,10,18,26,35,40,52,61,70,84,100,116,134,154,177,198,214,223,230
2019-05-15,16:52:41.092,232,225,213,187,155,115,70,33,1,-12,-31,-39,-40,-46,-54,-57,-61,-59,-60,-59,-58,-53,-57,-55,-58,-63,-64,-69,-71,-74,-76,-84,-89,-96,-95,-96,-99,-103,-109,-113,-117,-115,-124,-123,-125,-124,-123,-122,-123,-122,-125,-130,-135,-129,-125,-129,-128,-127,-129,-126,-132,-139,-145,-133,-132,-92,-89,-88,-86,-106,-126,-133,-134,-128,-126,-125,-53,55,98,-39,-287,-392,-279,-155,-103,-79,-71,-64,-59,-54,-47,-42,-41,-35,-29,-27,-19,-6,5,17,26,42,58,78,93,113,130,144,150,149,151,150,135,113,80,42,10,-24,-48,-62,-70,-77,-84,-81,-83,-85,-85,-90
2019-05-15,16:52:42.120,-87,-84,-76,-76,-74,-77,-77,-80,-77,-80,-82,-84,-80,-79,-80,-82,-85,-89,-91,-90,-90,-92,-89,-87,-90,-93,-97,-96,-91,-93,-99,-95,-88,-88,-87,-93,-108,-109,-96,-89,-59,-55,-48,-47,-68,-91,-97,-92,-87,-87,-83,-9,96,145,-10,-265,-360,-228,-116,-69,-44,-40,-31,-25,-22,-12,-4,1,5,9,20,25,33,45,53,69,86,103,129,151,168,187,202,213,216,222,221,202,173,136,97,63,30,7,-10,-16,-22,-35,-39,-34,-29,-34,-35,-28,-25,-19,-19,-16,-16,-17,-14,-12,-13,-23,-24,-21,-30,-31,-30,-33,-32,-36,-34,-33,-33,-34,-39,-38
2019-05-15,16:52:43.148,-36,-38,-35,-38,-41,-36,-35,-36,-43,-42,-40,-41,-43,-42,-41,-41,-53,-56,-49,-42,-5,-5,1,4,-10,-37,-53,-48,-45,-51,-49,20,129,209,74,-179,-298,-163,-64,-12,-1,0,6,11,21,26,29,33,39,49,52,61,67,82,93,104,119,137,155,174,196,216,230,238,246,246,246,226,195,162,125,84,51,23,5,-11,-20,-22,-25,-23,-25,-26,-24,-24,-21,-15,-10,-16,-15,-16,-16,-13,-10,-15,-19,-21,-22,-25,-24,-29,-32,-34,-36,-40,-35,-37,-40,-34,-35,-32,-33,-39,-38,-35,-36,-39,-41,-42,-42,-37,-38,-42,-39,-40,-39,-50,-59,-57
2019-05-15,16:52:44.176,-49,-47,-15,-10,-4,-10,-29,-51,-56,-52,-52,-54,-48,31,141,202,30,-222,-305,-148,-64,-19,-8,-3,3,12,17,19,25,32,33,47,54,58,71,78,94,105,119,134,149,169,189,208,225,230,235,234,222,199,165,130,87,46,12,-22,-40,-58,-68,-78,-83,-81,-86,-78,-81,-79,-77,-78,-76,-77,-80,-76,-78,-79,-82,-85,-89,-92,-93,-99,-102,-103,-108,-107,-112,-114,-109,-113,-118,-116,-115,-113,-112,-112,-115,-113,-114,-113,-112,-113,-111,-109,-106,-106,-109,-124,-126,-119,-118,-86,-70,-64,-66,-79,-104,-110,-107,-107,-107,-106,-52,59,113,5,-246,-380,-295,-161
2019-05-15,16:52:45.204,-95,-65,-62,-50,-43,-39,-38,-30,-26,-27,-25,-16,-10,-1,9,19,29,42,53,72,93,114,130,147,153,161,163,155,143,118,88,50,15,-12,-42,-61,-74,-79,-90,-90,-87,-89,-83,-75,-74,-74,-75,-73,-75,-74,-72,-67,-66,-64,-67,-74,-77,-80,-82,-85,-84,-86,-85,-86,-88,-92,-94,-92,-95,-94,-95,-98,-96,-96,-97,-91,-90,-88,-95,-106,-108,-97,-96,-60,-53,-48,-47,-59,-84,-95,-95,-96,-91,-91,-29,80,144,28,-234,-358,-241,-117,-64,-44,-33,-26,-26,-15,-14,-8,-1,4,12,18,26,32,43,52,65,77,102,122,144,164,180,197,204,215
2019-05-15,16:52:46.232,215,207,190,166,130,95,56,22,-1,-16,-30,-35,-39,-44,-48,-47,-46,-38,-36,-31,-29,-22,-17,-15,-14,-12,-6,-7,-8,-15,-23,-20,-23,-28,-30,-34,-31,-33,-37,-37,-40,-43,-41,-43,-41,-45,-44,-44,-41,-36,-44,-39,-41,-42,-40,-44,-44,-55,-58,-49,-46,-6,-8,2,5,-19,-45,-50,-46,-41,-46,-38,32,138,212,57,-193,-296,-151,-56,-17,-4,3,11,19,20,25,35,40,45,51,54,66,71,78,90,109,128,141,161,182,204,221,238,251,256,260,254,233,204,165,121,88,54,32,9,-5,-10,-17,-23,-25,-22,-23,-22,-25,-20,-14,-11
2019-05-15,16:52:47.260,-10,-13,-10,-7,-9,-9,-15,-21,-23,-24,-26,-23,-25,-29,-32,-31,-32,-40,-37,-40,-47,-46,-44,-40,-46,-45,-45,-51,-50,-54,-54,-51,-57,-54,-51,-61,-75,-73,-62,-50,-23,-23,-11,-12,-41,-64,-69,-69,-66,-65,-50,41,150,191,-24,-261,-300,-140,-65,-28,-20,-12,-6,-5,0,12,12,14,27,33,39,50,55,66,79,89,109,123,139,156,179,191,198,210,212,210,199,174,143,100,58,18,-14,-40,-62,-81,-89,-92,-97,-102,-106,-104,-97,-97,-98,-97,-100,-104,-98,-96,-95,-100,-100,-98,-101,-105,-109,-109,-108,-111,-114,-116,-114,-118,-124,-119,-122,-123
2019-05-15,16:52:48.288,-118,-119,-115,-115,-114,-114,-114,-113,-117,-120,-119,-123,-130,-140,-141,-134,-121,-90,-89,-77,-77,-98,-119,-120,-118,-119,-127,-112,-24,75,89,-85,-327,-389,-249,-150,-102,-82,-76,-69,-63,-58,-53,-42,-40,-36,-33,-23,-18,-9,1,9,22,35,52,69,89,114,126,141,153,153,154,147,126,95,61,23,-9,-38,-64,-79,-90,-93,-95,-97,-100,-99,-101,-98,-97,-91,-88,-91,-86,-84,-86,-81,-84,-85,-86,-91,-88,-94,-91,-94,-95,-91,-95,-99,-102,-97,-95,-104,-101,-101,-107,-101,-106,-106,-108,-107,-103,-103,-105,-118,-126,-119,-111,-96,-78,-76,-67,-74,-97,-113,-117,-114
2019-05-15,16:52:49.316,-117,-120,-100,2,95,77,-145,-352,-350,-194,-121,-83,-74,-62,-50,-48,-43,-36,-34,-31,-27,-16,-8,-2,8,18,33,43,62,83,101,121,145,165,178,187,189,184,173,150,115,87,47,15,-14,-35,-46,-55,-59,-63,-66,-63,-65,-65,-60,-58,-53,-55,-50,-49,-47,-45,-44,-41,-40,-41,-42,-51,-49,-49,-50,-50,-57,-58,-58,-61,-57,-58,-59,-60,-63,-64,-62,-63,-62,-67,-66,-65,-63,-65,-64,-69,-69,-62,-65,-77,-76,-69,-59,-26,-30,-22,-19,-33,-63,-69,-66,-64,-70,-66,-1,103,190,63,-189,-309,-173,-72,-29,-16,-8,-1,2,6,11,13,24,21
2019-05-15,16:52:50.344,28,38,44,60,68,76,84,97,121,141,164,182,204,219,231,236,241,237,225,193,156,117,77,49,20,0,-14,-22,-27,-34,-36,-31,-27,-31,-30,-29,-27,-26,-22,-22,-24,-24,-22,-21,-22,-20,-26,-25,-27,-31,-33,-34,-35,-34,-39,-41,-38,-41,-39,-42,-47,-43,-37,-36,-40,-37,-43,-45,-45,-43,-37,-37,-36,-33,-33,-36,-48,-57,-46,-48,-16,-5,3,5,-9,-34,-49,-53,-50,-52,-54,-7,96,198,123,-137,-306,-212,-85,-33,-11,-3,3,8,10,19,27,30,37,45,52,59,73,81,87,100,110,129,155,166,189,204,223,233,239,242,237,222
2019-05-15,16:52:51.372,189,152,110,66,27,-6,-32,-43,-54,-63,-71,-78,-79,-77,-76,-78,-78,-79,-77,-76,-82,-79,-82,-87,-81,-85,-89,-92,-97,-99,-95,-94,-100,-102,-106,-106,-110,-112,-114,-118,-117,-114,-111,-115,-118,-116,-115,-109,-110,-109,-114,-114,-114,-113,-114,-113,-113,-118,-129,-122,-120,-88,-74,-72,-70,-79,-100,-112,-114,-109,-107,-106,-65,37,100,24,-212,-377,-319,-171,-107,-74,-59,-56,-55,-52,-48,-41,-36,-35,-22,-21,-12,-1,11,20,26,43,64,74,91,111,132,147,161,167,166,163,154,135,103,73,35,2,-21,-40,-52,-67,-73,-79,-84,-79,-73,-77,-72,-72,-68,-62
2019-05-15,16:52:52.400,-66,-59,-55,-54,-55,-58,-60,-65,-71,-66,-69,-68,-74,-75,-78,-82,-78,-80,-79,-78,-74,-79,-79,-76,-73,-74,-73,-73,-78,-75,-74,-76,-89,-88,-79,-67,-38,-40,-30,-32,-48,-73,-79,-77,-81,-86,-71,15,116,141,-42,-277,-329,-182,-87,-43,-27,-21,-11,-6,3,6,6,17,21,23,35,42,47,66,78,82,101,125,141,160,179,198,211,218,229,229,222,204,176,135,102,67,39,13,-4,-12,-17,-17,-23,-21,-19,-20,-13,-10,-11,-6,-3,1,6,4,5,6,5,0,-5,-2,-3,-10,-13,-14,-21,-17,-14,-21,-23,-25,-24,-23,-25,-27,-24,-22
2019-05-15,16:52:53.428,-20,-27,-21,-20,-22,-19,-18,-19,-17,-14,-9,-24,-30,-20,-17,12,20,27,30,25,-4,-23,-18,-15,-17,-22,24,126,231,161,-103,-266,-169,-42,10,30,37,47,52,53,58,63,69,77,79,88,96,107,118,128,141,154,174,188,208,232,256,268,280,287,288,285,271,248,210,171,127,94,61,38,27,16,13,12,14,13,11,12,16,15,16,16,21,24,26,25,23,23,24,20,16,15,20,17,15,9,4,7,4,-2,-5,-6,-5,-3,-3,-6,-9,-9,-4,-6,-8,-10,-7,-7,-9,-6,-11,-15,-14,-14,-26,-35,-24,-16,-3,26,26,32
2019-05-15,16:52:54.456,23,-2,-28,-27,-24,-25,-26,-10,75,189,211,-20,-247,-262,-108,-47,-8,-5,-7,1,3,9,10,15,21,25,28,30,41,51,59,69,79,100,116,133,154,172,191,202,208,213,209,194,174,142,99,67,29,1,-27,-44,-58,-62,-65,-71,-71,-65,-66,-66,-70,-61,-58,-53,-49,-48,-47,-52,-50,-48,-50,-54,-59,-56,-54,-63,-66,-70,-68,-71,-73,-70,-70,-68,-70,-76,-79,-80,-81,-79,-79,-80,-74,-74,-77,-78,-80,-85,-83,-82,-93,-98,-89,-88,-60,-40,-35,-33,-49,-68,-78,-79,-76,-73,-77,-28,89,146,53,-196,-350,-278,-129,-62,-33,-28,-15,-20
2019-05-15,16:52:55.484,-8,-1,4,11,19,24,29,31,40,48,56,80,96,113,124,141,154,166,180,193,198,197,188,180,148,115,83,48,9,-21,-41,-46,-63,-62,-64,-69,-67,-61,-50,-53,-47,-42,-39,-36,-39,-37,-34,-41,-34,-40,-41,-40,-51,-61,-73,-75,-75,-81,-80,-82,-71,-63,-67,-75,-76,-75,-80,-88,-87,-82,-85,-82,-85,-90,-80,-79,-90,-107,-119,-116,-116,-86,-83,-81,-82,-97,-110,-111,-110,-108,-105,-101,-51,50,141,55,-197,-346,-251,-138,-91,-71,-55,-40,-37,-34,-27,-19,-16,-19,-12,0,8,13,27,40,53,67,90,101,121,141,160,179,186,191,192,193
2019-05-15,16:52:56.512,162,133,113,70,14,-34,-22,-49,-94,-99,-76,-38,-35,-45,-55,-59,-65,-62,-59,-67,-61,-62,-59,-52,-53,-60,-54,-62,-101,-87,-70,-83,-147,-56,-26,-51,-69,-72,-75,-89,-159,-158,-111,-110,-42,-65,-61,-68,-77,-82,-85,-88,-86,-86,-89,-92,-89,-91,-102,-103,-105,-110,-68,-55,-47,-42,-57,-95,-112,-98,-86,-92,-100,-69,36,155,118,-151,-355,-279,-138,-87,-53,-32,-36,-46,-37,-29,-26,-21,-22,-11,-8,2,22,9,15,35,73,93,106,122,145,172,182,200,200,196,196,199,165,115,94,56,1,-31,-34,-62,-75,-73,-88,-76,-66,-68,-79,-66,-64,-66
2019-05-15,16:52:57.540,-65,-59,-60,-53,-54,-61,-50,-54,-60,-53,-58,-73,-76,-80,-73,-92,-86,-63,-82,-78,-77,-90,-66,-64,-81,-93,-81,-78,-82,-81,-84,-102,-105,-98,-93,-87,-85,-88,-81,-89,-111,-114,-119,-86,-40,-43,-35,-46,-76,-100,-105,-106,-116,-106,-94,-20,117,222,50,-242,-345,-205,-129,-94,-83,-56,-54,-58,-50,-42,-30,-34,-30,-24,-7,-8,-8,7,22,41,57,65,79,99,109,141,144,154,162,183,178,153,123,85,47,0,-32,-39,-70,-83,-96,-95,-95,-98,-106,-104,-97,-89,-71,-80,-77,-68,-62,-63,-74,-72,-73,-91,-67,-65,-79,-84,-90,-96,-102,-106,-107,-110
2019-05-15,16:52:58.568,-119,-130,-137,-144,-137,-138,-142,-138,-143,-138,-144,-142,-137,-143,-158,-159,-151,-140,-111,-112,-98,-98,-115,-145,-145,-142,-142,-146,-144,-68,58,155,18,-274,-404,-269,-160,-113,-96,-86,-82,-73,-69,-60,-46,-42,-30,-17,-10,0,6,13,23,41,56,72,91,113,145,168,185,202,217,226,225,209,179,139,102,65,31,8,0,-3,-3,-5,-9,-10,-8,-10,-8,-11,-9,-3,-2,-5,-9,-10,-12,-16,-21,-25,-28,-36,-34,-38,-42,-51,-52,-58,-60,-59,-58,-64,-64,-67,-64,-61,-61,-63,-61,-60,-58,-57,-51,-51,-53,-52,-53,-54,-66,-72,-64,-61,-29,-24,-20,-14
2019-05-15,16:52:59.596,-37,-57,-57,-58,-60,-62,-44,34,149,202,51,-218,-322,-193,-76,-26,-1,2,2,14,19,22,30,37,43,45,52,60,61,77,86,97,110,128,149,166,187,204,222,229,234,227,220,212,188,156,123,85,54,30,10,-2,-12,-18,-19,-20,-14,-18,-17,-16,-17,-11,-11,-11,-6,-5,-3,-4,-4,-9,-13,-10,-16,-15,-12,-19,-22,-21,-19,-23,-23,-22,-26,-23,-26,-26,-27,-27,-24,-22,-27,-38,-46,-38,-37,-19,3,5,8,4,-22,-35,-40,-33,-37,-37,-10,91,162,114,-103,-267,-248,-108,-38,-1,9,17,27,29,35,38,42,48,52,56,68,73
2019-05-15,16:53:00.624,85,91,103,118,133,150,158,180,201,213,227,234,230,231,223,201,172,138,106,72,46,27,19,11,6,5,5,5,7,9,11,10,13,19,23,24,25,23,28,26,24,27,23,21,16,12,10,9,7,7,6,9,4,1,7,8,11,7,2,6,3,4,-7,-24,-20,-12,-9,28,29,34,35,17,-4,-11,-10,-6,-7,-1,69,173,222,76,-164,-249,-127,-21,28,49,56,61,65,72,73,82,85,90,91,102,110,118,129,141,149,158,173,195,214,233,253,269,278,284,286,280,256,232,198,163,127,96,76,55,45,34,31,26,29,33
2019-05-15,16:53:01.652,34,40,42,45,48,50,48,49,51,53,52,53,52,50,54,48,42,39,33,27,25,24,26,20,23,18,11,13,11,8,4,9,0,-8,-7,-10,-10,-8,-23,-35,-33,-31,-17,8,13,22,17,-5,-25,-25,-30,-30,-31,-17,77,218,276,73,-180,-229,-81,-21,4,13,22,25,31,38,42,48,50,58,65,76,87,99,107,119,135,154,168,192,216,241,262,275,286,294,297,290,267,234,194,148,109,74,51,40,32,23,24,22,18,16,19,19,22,23,26,29,31,30,32,31,35,33,28,23,24,19,16,11,14,12,14,11,14,10
2019-05-15,16:53:02.680,10,12,10,9,10,10,11,10,15,10,6,4,7,8,12,11,12,10,1,-3,5,13,28,52,45,40,35,10,-5,-9,-4,-5,-7,8,112,276,372,128,-172,-245,-74,-10,25,36,36,31,32,57,63,62,82,103,103,104,111,119,130,140,157,173,194,225,252,276,293,302,309,318,321,310,276,248,200,160,120,79,44,23,21,4,5,15,16,15,20,15,17,21,19,27,43,46,51,37,34,46,53,41,38,32,29,27,24,-3,8,10,-4,1,8,4,-5,-7,-1,-4,-16,-13,-3,-14,-11,-16,-29,-28,-22,-23,-28,-30,-37,-53
2019-05-15,16:53:03.708,-44,-42,-26,3,-13,-18,-35,-61,-67,-75,-82,-84,-78,-62,36,200,288,24,-278,-327,-165,-110,-67,-61,-60,-45,-48,-47,-33,-31,-9,-12,4,14,26,46,53,65,81,89,123,141,159,189,206,209,229,248,243,223,197,146,101,71,25,-19,-47,-61,-67,-72,-80,-85,-77,-87,-95,-72,-58,-58,-43,-36,-40,-48,-46,-48,-42,-41,-50,-29,-32,-33,-34,-38,-36,-47,-51,-45,-43,-41,-50,-46,-48,-66,-56,-60,-71,-64,-53,-62,-66,-67,-67,-72,-67,-66,-75,-74,-63,-69,-46,-24,-47,-59,-81,-102,-107,-110,-102,-108,-124,-86,52,228,235,-107,-401,-342,-179,-121
2019-05-15,16:53:04.736,-97,-92,-79,-73,-67,-65,-60,-54,-54,-42,-37,-30,-21,-15,2,10,30,45,63,93,114,137,154,171,170,170,172,152,119,78,28,-17,-61,-96,-117,-132,-145,-152,-159,-161,-161,-147,-152,-151,-145,-143,-138,-139,-132,-135,-136,-135,-136,-134,-137,-145,-149,-146,-149,-154,-157,-156,-159,-165,-160,-165,-165,-164,-163,-157,-166,-161,-158,-159,-160,-157,-157,-159,-153,-153,-154,-146,-121,-87,-100,-111,-113,-138,-155,-159,-158,-159,-160,-159,-104,24,163,85,-229,-429,-343,-207,-156,-126,-113,-102,-92,-93,-82,-80,-72,-66,-58,-54,-43,-32,-18,-7,13,35,56,77,102,126,149,163,175,181
2019-05-15,16:53:05.764,188,187,169,137,94,51,7,-32,-58,-79,-91,-106,-105,-109,-114,-110,-114,-111,-105,-102,-96,-87,-90,-93,-86,-83,-93,-92,-89,-92,-91,-98,-100,-105,-110,-113,-118,-114,-116,-114,-110,-111,-113,-111,-112,-112,-112,-111,-110,-106,-108,-102,-110,-107,-106,-114,-110,-94,-79,-51,-36,-52,-49,-51,-72,-83,-90,-79,-75,-81,-27,90,242,175,-125,-319,-230,-112,-59,-41,-43,-37,-19,-12,-11,-1,-2,7,16,22,28,36,52,70,85,99,116,137,159,183,206,227,237,249,246,245,226,197,156,106,61,22,-11,-35,-45,-53,-64,-66,-67,-70,-66,-67,-63,-60,-55,-49,-50,-47
2019-05-15,16:53:06.792,-41,-41,-44,-43,-42,-48,-47,-51,-52,-55,-63,-65,-62,-66,-63,-66,-67,-68,-69,-70,-66,-63,-69,-70,-61,-65,-65,-59,-65,-67,-74,-75,-60,-52,-40,-9,-1,-23,-24,-26,-51,-63,-63,-64,-57,-55,-2,111,248,198,-101,-297,-217,-84,-31,-5,12,23,36,40,44,51,55,76,85,89,96,117,138,153,164,182,197,219,251,270,288,308,314,326,330,323,311,280,241,195,153,117,86,62,46,37,30,26,25,26,27,28,28,33,35,41,40,45,48,51,53,56,53,44,35,33,29,24,22,20,17,16,14,14,16,14,12,13,11,5,5,0
2019-05-15,16:53:07.820,0,4,-4,-1,-6,-8,-5,3,2,11,50,44,21,13,-6,-32,-40,-34,-27,-35,-35,44,166,267,118,-174,-307,-171,-68,-19,-1,7,13,14,21,28,31,37,47,54,67,75,84,95,103,123,140,154,178,197,220,239,250,261,263,262,249,231,199,159,121,77,53,28,5,-4,-14,-20,-18,-22,-21,-23,-24,-21,-18,-13,-7,-11,-12,-14,-13,-16,-12,-15,-22,-24,-28,-30,-35,-34,-33,-35,-34,-37,-42,-39,-41,-42,-38,-35,-38,-39,-36,-38,-47,-37,-37,-30,-2,22,8,-7,-14,-39,-49,-45,-48,-55,-54,-27,84,170,150,-71,-282,-275,-129,-60
2019-05-15,16:53:08.848,-32,-18,-10,-5,0,3,3,11,15,23,28,35,45,55,68,80,97,115,129,151,174,190,208,221,229,227,225,218,194,163,123,89,59,31,10,-1,-8,-11,-16,-14,-14,-11,-7,-2,3,8,9,15,15,20,21,21,20,16,18,14,12,10,5,6,6,9,10,6,6,4,6,6,5,8,3,1,6,9,7,8,16,26,33,55,80,65,51,40,17,-4,-2,1,0,-3,22,119,255,279,33,-206,-199,-49,8,36,44,48,54,64,71,76,84,92,99,110,116,122,133,144,157,174,194,214,231,259,279,297,314,323,327,324,309,287
2019-05-15,16:53:09.876,253,209,162,128,98,74,64,52,47,40,43,48,44,52,54,57,58,59,61,60,62,63,64,61,58,60,57,50,45,45,43,41,36,37,34,37,37,38,40,39,33,31,27,29,29,31,29,30,34,26,32,45,54,64,105,94,73,63,39,19,22,26,23,23,34,133,272,400,198,-116,-235,-71,3,45,57,64,66,76,83,91,102,106,112,124,129,139,151,160,179,192,212,235,264,285,307,332,347,355,363,361,353,334,295,248,203,164,126,97,80,67,55,54,50,49,47,49,49,50,57,57,55,57,58,61,58,56,52,50
2019-05-15,16:53:10.904,56,48,42,42,39,38,34,38,36,36,38,35,37,34,38,47,41,47,48,47,47,45,50,48,45,51,60,66,81,113,96,78,65,32,16,12,15,20,13,28,139,309,413,140,-183,-227,-55,5,42,50,58,66,75,83,90,93,99,114,122,129,145,158,176,193,207,224,250,271,295,316,343,357,365,364,367,357,325,286,238,188,143,111,82,61,49,40,37,31,36,38,36,37,37,40,43,41,43,37,34,33,28,22,16,7,5,-3,-7,-13,-17,-21,-22,-22,-23,-26,-30,-35,-37,-41,-46,-53,-54,-60,-57,-63,-64,-70,-72,-80
2019-05-15,16:53:11.932,-79,-72,-65,-64,-25,-31,-50,-65,-91,-107,-113,-114,-116,-120,-117,-31,103,211,38,-283,-422,-256,-154,-107,-91,-87,-79,-76,-71,-68,-66,-52,-47,-38,-30,-24,-12,5,21,36,49,72,90,108,129,146,165,166,168,171,159,143,113,79,35,-7,-38,-64,-83,-93,-99,-103,-107,-102,-101,-96,-98,-99,-94,-92,-88,-86,-88,-90,-93,-96,-97,-101,-101,-102,-108,-104,-107,-109,-111,-112,-111,-114,-111,-114,-115,-119,-117,-112,-115,-113,-109,-111,-107,-101,-99,-69,-45,-52,-66,-78,-105,-122,-120,-120,-123,-124,-115,-30,72,100,-64,-297,-369,-245,-143,-101,-78,-72,-69,-64,-56,-53
2019-05-15,16:53:12.960,-52,-46,-43,-28,-24,-15,-7,1,11,21,41,62,77,95,110,130,136,144,150,151,138,118,90,56,21,-12,-42,-58,-72,-80,-87,-96,-91,-95,-91,-87,-88,-86,-84,-82,-80,-74,-69,-72,-75,-75,-76,-72,-73,-73,-77,-86,-92,-95,-92,-91,-96,-94,-93,-98,-99,-100,-98,-104,-102,-87,-71,-47,-44,-36,-48,-80,-110,-117,-116,-112,-117,-118,-74,18,73,-24,-246,-345,-269,-150,-107,-85,-80,-75,-73,-67,-60,-59,-57,-48,-50,-42,-38,-31,-15,-1,7,21,40,57,68,89,103,122,128,131,132,125,107,83,47,17,-17,-41,-69,-84,-90,-94,-97,-95,-98,-94
2019-05-15,16:53:13.988,-90,-89,-91,-88,-87,-85,-85,-87,-84,-75,-74,-79,-81,-86,-85,-89,-90,-92,-89,-86,-85,-83,-87,-89,-91,-94,-92,-93,-95,-98,-100,-100,-90,-61,-42,-40,-39,-55,-84,-110,-113,-107,-110,-108,-95,-32,53,78,-89,-273,-317,-197,-116,-78,-63,-63,-56,-52,-50,-48,-46,-38,-33,-28,-19,-15,-3,1,11,26,39,55,70,85,104,124,137,141,144,145,132,113,80,43,16,-16,-39,-56,-67,-75,-74,-76,-81,-78,-77,-80,-66,-71,-66,-60,-58,-60,-61,-62,-59,-62,-61,-67,-68,-71,-70,-72,-77,-75,-74,-76,-81,-80,-77,-75,-83,-83,-85,-82,-79,-81,-81,-75
2019-05-15,16:53:15.016,-77,-84,-85,-74,-65,-64,-37,-14,-25,-40,-48,-68,-87,-82,-85,-84,-86,-49,40,133,103,-127,-286,-236,-121,-76,-53,-41,-32,-29,-25,-20,-10,-1,0,8,15,24,35,42,53,64,77,94,114,130,148,168,182,192,200,203,205,188,161,129,94,56,22,-1,-15,-27,-34,-33,-39,-41,-38,-37,-32,-30,-30,-32,-29,-23,-25,-23,-20,-21,-22,-23,-22,-24,-28,-28,-31,-36,-37,-37,-41,-43,-40,-41,-46,-41,-46,-44,-44,-44,-45,-46,-45,-48,-45,-47,-45,-43,-48,-42,-34,-34,-19,13,3,-13,-20,-36,-62,-65,-62,-64,-64,-54,27,151,225,56,-199,-274
2019-05-15,16:53:16.044,-132,-63,-30,-23,-18,-16,-15,-9,-2,5,9,14,24,32,40,50,52,70,86,104,120,140,165,186,204,218,225,231,231,225,201,168,130,87,53,24,4,-11,-23,-27,-30,-31,-29,-34,-33,-28,-23,-23,-20,-20,-22,-18,-18,-18,-14,-18,-19,-22,-23,-24,-30,-31,-29,-32,-36,-36,-36,-39,-39,-37,-40,-39,-38,-41,-41,-43,-42,-43,-41,-44,-46,-50,-49,-47,-44,-46,-47,-51,-38,-27,-23,-5,24,8,-10,-17,-38,-56,-61,-59,-58,-60,-39,46,195,269,52,-201,-247,-108,-56,-29,-24,-21,-14,-8,-2,3,9,14,22,34,43,48,61,73,88,101
2019-05-15,16:53:17.072,112,132,151,174,198,218,232,240,247,248,240,219,181,137,95,55,26,6,-9,-23,-31,-31,-32,-31,-30,-32,-25,-24,-25,-20,-21,-19,-18,-17,-18,-21,-25,-25,-25,-30,-33,-34,-38,-38,-45,-46,-46,-48,-50,-56,-58,-57,-63,-66,-64,-65,-73,-77,-79,-82,-80,-81,-91,-86,-92,-96,-94,-99,-96,-102,-99,-88,-84,-70,-38,-46,-68,-80,-100,-124,-127,-125,-120,-126,-117,-24,115,214,26,-263,-355,-210,-140,-103,-93,-87,-80,-74,-67,-62,-56,-49,-44,-38,-29,-21,-17,-7,8,21,38,53,73,92,114,128,139,150,151,151,146,126,96,60,25,-10,-43,-62
2019-05-15,16:53:18.100,-72,-87,-93,-96,-98,-102,-99,-94,-93,-90,-79,-80,-76,-71,-72,-67,-72,-76,-81,-82,-85,-90,-93,-94,-95,-97,-98,-99,-100,-101,-98,-98,-96,-98,-100,-98,-100,-100,-102,-104,-104,-103,-101,-105,-101,-97,-92,-71,-45,-41,-49,-65,-91,-114,-121,-119,-119,-120,-126,-98,-1,83,61,-159,-338,-322,-187,-126,-94,-82,-76,-73,-67,-65,-61,-59,-53,-45,-40,-28,-21,-16,0,9,19,35,49,67,88,105,120,134,139,145,146,128,105,74,41,6,-20,-44,-65,-76,-81,-87,-93,-94,-98,-98,-95,-91,-89,-83,-83,-82,-79,-75,-78,-83,-83,-82,-84,-83,-87,-90,-98,-100
2019-05-15,16:53:19.128,-96,-96,-101,-99,-100,-101,-99,-101,-104,-105,-105,-103,-102,-108,-107,-113,-107,-103,-94,-92,-82,-50,-39,-49,-58,-82,-117,-128,-125,-122,-125,-128,-112,-34,52,55,-126,-304,-318,-193,-126,-91,-86,-85,-80,-75,-70,-67,-63,-56,-53,-48,-43,-36,-23,-15,-9,0,21,37,47,64,83,101,115,122,119,124,109,93,61,30,-4,-25,-52,-72,-84,-84,-87,-89,-91,-96,-96,-92,-91,-89,-91,-90,-85,-84,-79,-82,-80,-81,-80,-86,-84,-91,-88,-89,-92,-90,-92,-93,-96,-97,-101,-104,-102,-101,-109,-107,-109,-106,-108,-107,-104,-103,-103,-101,-91,-91,-82,-53,-45,-51,-60,-74
2019-05-15,16:53:20.156,-108,-122,-124,-125,-124,-128,-118,-51,36,59,-114,-296,-325,-208,-139,-100,-88,-82,-81,-79,-76,-74,-65,-56,-55,-47,-42,-36,-25,-18,-3,2,17,37,49,69,81,100,109,119,127,117,111,93,65,35,2,-26,-50,-73,-78,-88,-91,-92,-91,-90,-91,-90,-88,-92,-90,-96,-86,-81,-82,-78,-78,-81,-79,-80,-76,-80,-82,-89,-87,-86,-92,-86,-90,-88,-87,-92,-88,-88,-93,-92,-88,-87,-93,-92,-93,-87,-87,-91,-88,-89,-89,-78,-72,-65,-31,-26,-40,-48,-66,-89,-98,-96,-99,-101,-100,-49,45,123,44,-177,-308,-220,-127,-84,-68,-60,-52,-51,-47,-44,-39,-34
2019-05-15,16:53:21.184,-21,-17,-10,-3,4,14,29,40,50,70,87,106,128,147,162,167,174,178,175,162,136,99,67,35,7,-20,-34,-42,-48,-57,-61,-61,-61,-56,-51,-50,-47,-42,-42,-35,-38,-34,-32,-34,-30,-35,-33,-35,-40,-39,-41,-41,-42,-47,-45,-48,-42,-48,-55,-56,-55,-52,-51,-55,-53,-59,-56,-56,-54,-53,-54,-49,-54,-53,-54,-57,-47,-40,-32,-19,14,9,-8,-16,-30,-57,-58,-56,-60,-65,-51,35,157,209,20,-223,-267,-125,-64,-33,-21,-20,-15,-9,-5,1,9,14,21,26,32,44,54,66,76,89,105,126,146,166,185,202,215,227,232,230,226,204
2019-05-15,16:53:22.212,180,142,104,67,41,20,6,-6,-8,-14,-21,-19,-17,-17,-20,-15,-10,-7,-6,-6,-5,-10,-7,-5,-6,-3,-8,-9,-16,-17,-21,-19,-22,-25,-30,-30,-29,-30,-31,-30,-29,-28,-27,-28,-33,-32,-32,-31,-30,-31,-26,-27,-31,-32,-33,-34,-33,-24,-12,-7,19,43,26,11,-4,-27,-39,-39,-38,-38,-42,6,114,246,219,-57,-261,-187,-63,-18,4,7,12,23,26,32,36,45,48,56,64,72,85,96,110,127,144,162,179,200,222,242,262,276,283,287,288,276,249,211,175,132,97,66,42,25,15,4,1,1,3,4,6,10,11,15,20,25
2019-05-15,16:53:23.240,23,18,17,14,13,11,9,5,-1,2,-2,0,-1,-4,-3,-7,-7,-5,-6,-4,-5,-4,0,-2,0,-1,-8,-9,-9,-10,-13,-12,-17,-20,-26,-32,-35,-23,-22,-9,27,21,1,-18,-46,-66,-70,-69,-73,-73,-66,30,164,248,40,-247,-322,-165,-92,-49,-41,-36,-30,-26,-22,-15,-10,-3,4,10,13,22,31,43,57,68,84,102,119,142,161,177,192,200,201,200,193,174,139,105,66,31,3,-20,-32,-38,-45,-51,-50,-49,-50,-48,-46,-45,-46,-43,-44,-38,-41,-37,-35,-38,-38,-42,-43,-48,-48,-50,-48,-49,-53,-55,-54,-56,-57,-54,-58,-57
2019-05-15,16:53:24.268,-56,-49,-57,-52,-48,-51,-52,-44,-33,-32,-7,23,23,13,-1,-33,-55,-63,-62,-60,-57,-62,-16,97,165,90,-143,-297,-233,-104,-46,-15,-6,4,8,13,14,21,29,33,44,49,57,69,78,86,101,111,132,144,163,187,202,214,220,228,230,223,212,188,152,118,82,54,33,20,8,-2,-8,-14,-13,-11,-11,-11,-8,-10,-7,-4,-4,-5,-2,-3,1,-5,-3,-9,-9,-15,-16,-18,-15,-17,-22,-18,-22,-19,-25,-24,-18,-22,-26,-28,-19,-9,13,32,33,38,17,-13,-34,-38,-39,-38,-42,-30,44,128,151,-28,-217,-254,-135,-53,-12,3,6,8
2019-05-15,16:53:25.296,12,12,14,19,27,35,34,45,49,57,69,77,89,104,120,130,153,167,183,191,198,199,202,187,165,134,99,71,38,18,5,-7,-15,-20,-26,-29,-26,-21,-25,-22,-22,-20,-14,-12,-14,-10,-7,-7,-9,-11,-10,-12,-7,-14,-17,-25,-22,-21,-24,-24,-26,-29,-28,-29,-28,-30,-31,-25,-24,-20,-12,-4,24,36,27,21,-3,-32,-44,-43,-42,-47,-49,-22,53,140,116,-91,-240,-225,-101,-47,-19,-17,-8,-3,-2,1,2,11,13,13,21,26,34,42,50,66,72,88,104,122,144,156,169,177,184,188,183,167,141,109,74,46,19,-4,-18,-31
2019-05-15,16:53:26.324,-36,-41,-43,-40,-40,-37,-37,-31,-31,-28,-31,-32,-31,-33,-26,-27,-26,-24,-23,-31,-36,-32,-38,-36,-38,-37,-38,-41,-41,-41,-39,-37,-42,-43,-37,-30,-22,-16,9,21,8,-1,-26,-52,-59,-62,-61,-58,-65,-51,17,100,107,-81,-247,-247,-122,-65,-39,-32,-26,-16,-16,-12,-10,-5,0,7,13,22,33,42,48,62,69,83,101,115,139,156,168,180,187,193,187,177,152,115,82,45,19,-2,-16,-22,-32,-30,-27,-33,-29,-27,-26,-23,-20,-18,-14,-14,-13,-15,-16,-9,-9,-5,-8,-8,-10,-11,-17,-22,-16,-21,-20,-26,-29,-23,-24,-22,-25,-28
2019-05-15,16:53:27.352,-34,-36,-33,-34,-38,-33,-28,-23,-22,6,24,11,1,-10,-43,-57,-60,-58,-60,-64,-34,59,163,161,-57,-252,-230,-101,-48,-24,-20,-14,-9,-4,3,7,13,20,27,34,38,47,53,64,81,95,110,134,153,176,194,208,222,225,229,226,208,180,145,108,69,42,16,2,-6,-11,-19,-20,-23,-19,-22,-25,-25,-20,-17,-16,-15,-14,-11,-12,-11,-15,-12,-13,-17,-20,-26,-27,-30,-31,-33,-36,-39,-37,-34,-34,-36,-37,-42,-39,-41,-42,-40,-40,-38,-34,-34,-32,-34,-32,-35,-31,-25,-19,-1,36,25,6,-2,-23,-44,-49,-48,-46,-52,-36,54,174
2019-05-15,16:53:28.380,237,42,-217,-270,-120,-53,-16,-5,1,11,16,23,26,33,42,44,53,62,73,81,97,107,126,143,162,185,206,224,247,260,267,275,275,263,241,203,162,123,88,59,33,17,9,4,-2,-3,1,2,0,3,7,16,15,17,23,24,27,23,23,22,21,23,20,20,17,11,9,10,7,8,9,8,3,8,11,6,9,10,12,13,12,14,14,10,11,9,10,10,9,14,21,32,32,70,86,62,48,30,5,-2,-1,1,-1,-4,57,180,313,246,-70,-255,-146,-27,15,34,45,55,61,65,75,81,88,97,104,108,118,129,144,156
2019-05-15,16:53:29.408,167,182,201,222,242,266,293,306,320,326,322,321,301,270,228,181,138,101,72,48,36,29,19,14,9,6,12,14,15,17,20,24,24,30,30,29,25,26,21,16,20,15,9,5,2,1,-1,-4,-9,-9,-10,-12,-11,-16,-19,-17,-20,-19,-24,-25,-21,-24,-25,-27,-32,-32,-34,-42,-48,-46,-42,-35,-33,6,3,-20,-38,-68,-89,-90,-94,-97,-104,-104,-12,127,228,58,-262,-386,-233,-139,-93,-78,-76,-66,-59,-58,-51,-47,-42,-32,-27,-16,-9,3,14,24,36,54,71,90,112,133,151,167,174,182,178,166,148,112,75,33,-4,-38,-67,-81
2019-05-15,16:53:30.436,-86,-98,-99,-104,-105,-104,-101,-101,-96,-92,-89,-86,-85,-85,-79,-80,-76,-79,-80,-80,-82,-87,-88,-94,-94,-96,-97,-96,-100,-99,-103,-97,-98,-99,-97,-98,-94,-95,-95,-93,-95,-96,-93,-90,-81,-78,-67,-31,-9,-27,-39,-55,-88,-107,-105,-103,-98,-99,-96,-26,85,133,-5,-266,-368,-254,-137,-87,-63,-53,-50,-46,-39,-33,-27,-24,-19,-12,-6,1,11,21,34,46,62,77,93,113,134,154,171,180,185,183,178,160,130,96,59,21,-7,-29,-43,-56,-62,-70,-74,-71,-70,-71,-70,-67,-64,-57,-53,-54,-50,-48,-49,-52,-52,-53,-55,-59,-61,-62,-63,-68
2019-05-15,16:53:31.464,-69,-70,-75,-76,-75,-78,-79,-76,-75,-77,-78,-74,-75,-73,-76,-81,-83,-81,-73,-68,-67,-46,-15,-12,-23,-30,-59,-88,-102,-98,-100,-101,-104,-69,19,93,42,-176,-318,-291,-161,-98,-72,-61,-54,-51,-52,-42,-36,-33,-25,-18,-16,-9,1,9,17,26,37,53,66,83,100,120,131,143,155,158,151,138,118,85,50,16,-15,-38,-54,-67,-68,-79,-79,-74,-78,-73,-76,-67,-69,-64,-62,-55,-54,-51,-50,-44,-51,-46,-48,-50,-53,-56,-59,-62,-63,-61,-59,-62,-63,-65,-63,-63,-60,-62,-66,-71,-69,-71,-70,-73,-69,-73,-67,-62,-60,-50,-31,-11,-11,-22
2019-05-15,16:53:32.492,-28,-54,-84,-86,-81,-83,-89,-81,-26,61,127,12,-206,-299,-211,-108,-70,-51,-47,-38,-42,-37,-33,-30,-26,-20,-18,-13,-2,10,20,26,39,53,69,83,100,124,145,155,161,170,175,167,156,132,96,64,29,3,-19,-33,-40,-45,-47,-46,-48,-46,-49,-49,-48,-44,-42,-44,-44,-40,-37,-30,-31,-32,-32,-34,-34,-35,-39,-40,-44,-46,-49,-43,-45,-47,-47,-48,-47,-52,-57,-57,-54,-52,-53,-55,-51,-53,-54,-54,-52,-49,-49,-42,-31,-27,-15,15,15,3,-9,-23,-57,-67,-66,-70,-70,-67,-17,68,155,85,-144,-276,-197,-90,-43,-25,-18,-13,-9,-4
2019-05-15,16:53:33.520,-4,4,11,14,25,33,39,48,58,73,84,98,113,133,153,174,190,207,221,228,232,231,217,194,159,125,95,61,38,20,4,1,-1,-5,-6,-7,-1,0,1,2,5,10,12,17,14,12,14,18,16,10,8,9,5,3,2,-4,-5,-2,-5,-1,-3,-2,-7,-7,-8,-3,-2,-4,-2,-3,-5,-2,-2,-2,-4,-6,-8,-6,2,-2,3,8,16,26,67,59,40,33,13,-12,-13,-10,-14,-17,1,87,207,255,55,-184,-231,-80,-15,22,31,37,45,46,51,58,62,69,76,85,93,105,113,122,136,152,169,182,202,223,243,262,274,286
2019-05-15,16:53:34.548,292,293,290,275,243,203,162,124,96,73,57,48,43,36,35,38,36,39,40,41,43,45,47,49,49,49,47,49,44,40,43,35,31,32,28,27,25,22,19,16,17,15,16,17,20,19,15,14,16,10,14,11,13,13,10,16,12,12,10,11,23,27,34,51,84,71,51,43,16,-3,0,2,3,-4,28,138,272,272,-6,-233,-193,-51,1,33,39,45,50,57,60,63,69,75,84,93,104,114,126,141,155,169,185,203,225,249,275,292,303,313,315,316,305,280,246,201,154,115,82,59,38,26,21,17,17,17,21,21,25,27
2019-05-15,16:53:35.576,26,25,27,30,33,28,30,30,25,22,20,19,16,11,12,8,9,6,7,9,4,3,4,4,5,0,1,1,-1,4,1,-3,-6,-5,-7,-7,-5,-4,2,12,12,42,66,44,24,12,-13,-23,-24,-22,-25,-29,30,157,301,228,-101,-298,-189,-66,-18,6,8,11,19,18,25,27,28,35,39,44,55,63,70,82,97,109,124,146,164,188,207,222,233,236,241,232,215,189,147,104,61,26,-3,-26,-42,-53,-59,-58,-63,-64,-62,-58,-57,-55,-51,-45,-46,-45,-48,-48,-51,-54,-56,-60,-64,-67,-69,-69,-74,-76,-76,-77,-79,-84,-80,-76
2019-05-15,16:53:36.604,-83,-86,-88,-86,-90,-90,-87,-89,-85,-88,-87,-79,-75,-65,-36,-3,-9,-23,-40,-76,-92,-97,-99,-100,-99,-93,-28,94,170,53,-222,-375,-274,-146,-85,-58,-50,-48,-35,-33,-30,-27,-20,-14,-7,2,7,17,30,39,56,67,83,100,116,139,156,172,182,189,187,181,168,144,110,78,40,7,-16,-36,-48,-53,-57,-59,-56,-56,-57,-56,-47,-47,-45,-44,-41,-40,-42,-39,-41,-42,-39,-46,-49,-52,-53,-52,-61,-57,-59,-60,-60,-59,-63,-63,-60,-63,-64,-62,-63,-59,-49,-50,-32,-4,7,-3,-10,-28,-61,-72,-72,-75,-78,-81,-59,24,108,112,-81,-278
2019-05-15,16:53:37.632,-307,-176,-101,-58,-44,-36,-31,-28,-24,-25,-18,-12,-6,4,6,14,22,33,45,61,76,90,109,129,148,166,175,182,187,186,178,159,129,88,54,24,0,-19,-30,-36,-45,-52,-50,-53,-54,-55,-51,-49,-45,-43,-39,-39,-38,-39,-37,-33,-32,-33,-34,-40,-46,-51,-50,-48,-53,-61,-58,-57,-58,-57,-62,-64,-64,-63,-60,-61,-54,-49,-43,-15,1,-3,-4,-24,-50,-75,-78,-77,-76,-75,-73,-9,79,118,-47,-254,-303,-179,-101,-58,-49,-40,-35,-32,-29,-27,-17,-13,-8,-3,1,6,18,25,34,52,67,78,95,115,130,141,152,157,164,161,156,136
2019-05-15,16:53:38.660,100,66,32,6,-17,-38,-46,-48,-49,-54,-53,-54,-57,-56,-56,-55,-49,-51,-50,-52,-50,-46,-47,-46,-48,-46,-47,-51,-56,-56,-57,-60,-53,-56,-60,-58,-57,-63,-61,-63,-64,-65,-67,-58,-55,-53,-31,-5,-4,-13,-20,-42,-74,-77,-74,-79,-78,-80,-36,42,119,36,-186,-293,-212,-109,-60,-45,-39,-35,-31,-25,-27,-19,-16,-13,-6,1,10,24,32,39,46,65,81,93,117,134,151,163,174,179,185,184,164,130,101,67,39,7,-16,-26,-38,-40,-44,-45,-43,-42,-41,-46,-46,-45,-42,-39,-38,-37,-39,-35,-33,-41,-37,-41,-41,-41,-43,-43,-43,-47
2019-05-15,16:53:39.688,-57,-60,-62,-61,-66,-66,-66,-66,-66,-68,-68,-66,-63,-51,-44,-39,-16,8,-4,-15,-18,-44,-63,-68,-67,-69,-68,-47,37,147,163,-51,-252,-249,-115,-55,-27,-19,-13,-8,-2,3,18,21,26,33,39,48,55,61,73,85,105,119,135,156,175,194,205,219,227,230,232,221,194,158,118,85,57,31,13,-1,-9,-18,-19,-18,-14,-14,-14,-12,-9,-7,-5,-3,0,3,7,6,3,4,1,-4,-5,-7,-7,-9,-14,-16,-15,-17,-18,-19,-18,-19,-17,-19,-18,-19,-22,-20,-18,-19,-17,-19,-11,1,0,34,44,31,17,-1,-22,-37,-39,-34,-32,-33
2019-05-15,16:53:40.716,9,116,238,183,-84,-269,-179,-64,-18,4,12,15,18,21,34,43,49,55,63,70,78,93,103,114,128,145,162,185,207,231,247,265,277,288,290,281,264,234,198,159,116,83,56,37,25,14,12,7,6,9,6,12,18,18,24,22,26,27,28,25,24,22,19,14,17,13,7,5,0,-2,-2,-2,-4,-7,-11,-12,-13,-14,-12,-14,-15,-13,-13,-11,-11,-12,-12,-18,-12,-1,5,9,52,51,30,21,4,-23,-25,-28,-27,-25,-24,53,185,312,150,-144,-260,-114,-38,0,12,18,26,32,34,35,47,58,60,70,76,87,98,108,122,139
2019-05-15,16:53:41.744,156,174,191,217,239,253,267,276,282,276,265,245,211,167,122,84,46,18,-1,-15,-24,-31,-36,-39,-38,-34,-33,-32,-32,-33,-37,-38,-40,-41,-40,-44,-50,-51,-56,-62,-67,-70,-76,-78,-81,-79,-87,-89,-92,-98,-100,-98,-97,-97,-96,-97,-98,-101,-100,-103,-103,-105,-102,-101,-96,-88,-86,-69,-32,-28,-39,-56,-84,-108,-115,-116,-117,-116,-115,-76,44,154,125,-131,-355,-323,-176,-111,-73,-65,-55,-52,-47,-41,-40,-34,-29,-18,-10,-4,3,10,22,39,57,72,86,109,129,145,161,170,175,178,171,160,134,102,70,35,3,-22,-42,-53,-61,-66,-69,-68
2019-05-15,16:53:42.772,-74,-71,-65,-67,-60,-58,-55,-51,-46,-46,-46,-50,-48,-53,-55,-53,-51,-56,-62,-62,-64,-70,-72,-68,-66,-68,-72,-67,-68,-66,-65,-69,-68,-69,-67,-69,-61,-57,-55,-33,-1,-2,-10,-21,-54,-80,-86,-88,-88,-87,-91,-53,34,101,36,-180,-313,-269,-141,-85,-57,-50,-41,-36,-31,-30,-24,-20,-17,-14,-6,0,13,24,33,45,58,72,89,110,126,141,156,159,170,169,170,151,124,90,56,25,5,-20,-35,-43,-45,-51,-58,-56,-51,-54,-54,-51,-50,-49,-41,-42,-35,-35,-42,-34,-35,-36,-40,-41,-44,-44,-42,-42,-48,-46,-49,-53,-48,-51,-53,-52
2019-05-15,16:53:43.800,-56,-54,-60,-63,-65,-62,-64,-60,-51,-50,-45,-13,-3,-13,-11,-32,-64,-79,-79,-78,-84,-85,-66,7,91,80,-105,-270,-280,-159,-95,-59,-50,-44,-39,-32,-27,-23,-18,-17,-11,-6,4,11,18,32,44,50,63,78,102,120,137,152,162,171,169,168,158,136,106,74,47,16,-2,-21,-32,-39,-39,-41,-42,-39,-39,-42,-38,-37,-40,-39,-32,-30,-27,-26,-22,-20,-22,-23,-26,-32,-32,-33,-34,-37,-39,-38,-44,-43,-44,-48,-45,-45,-46,-45,-46,-49,-48,-41,-43,-47,-44,-35,-28,-25,2,19,9,-1,-14,-44,-58,-60,-59,-61,-62,-48,16,101,127,-46
2019-05-15,16:53:44.828,-229,-261,-139,-65,-32,-21,-17,-10,-6,-6,-3,3,11,16,18,28,33,43,52,63,76,92,107,119,139,155,169,181,189,195,197,191,171,145,111,82,51,30,14,1,-6,-7,-9,-11,-14,-14,-10,-5,-4,1,3,5,5,6,8,10,2,0,-4,-8,-9,-5,-12,-10,-15,-16,-15,-9,-13,-9,-10,-13,-14,-15,-8,-9,-8,-7,-9,-7,-6,-3,-4,-1,11,13,29,59,53,39,30,5,-19,-26,-23,-22,-28,-11,65,166,199,12,-200,-234,-94,-24,7,18,22,27,29,32,38,41,48,53,59,69,80,90,102,113,126,142,160,175,195,220
2019-05-15,16:53:45.856,225,238,251,252,255,247,224,189,151,116,87,63,45,30,20,14,13,12,7,9,10,16,18,20,24,26,30,31,31,33,31,30,28,24,26,19,16,12,12,11,14,11,9,11,10,8,10,14,11,10,14,17,15,17,16,13,11,13,14,18,27,33,53,87,80,60,50,27,5,2,5,12,4,17,110,231,270,54,-185,-206,-51,10,36,48,56,57,59,62,67,73,80,86,91,101,108,121,135,144,160,175,190,207,226,253,265,276,284,287,284,274,253,222,181,143,111,77,56,41,30,24,22,21,21,22,27,25,30,28
2019-05-15,16:53:46.884,32,34,32,36,34,35,34,29,24,18,16,14,14,9,4,4,1,-1,-2,-1,-5,-9,-9,-16,-20,-20,-20,-21,-22,-18,-8,-6,8,49,53,44,29,-4,-37,-45,-41,-43,-45,-45,-8,119,224,189,-86,-304,-242,-90,-37,-5,2,10,14,20,26,32,40,47,54,60,64,77,89,103,117,131,154,171,190,213,229,252,260,265,265,256,245,216,175,132,91,59,32,10,-1,-13,-8,-13,-12,-15,-11,-8,-4,-1,1,2,6,4,6,4,1,-5,-4,-8,-13,-16,-18,-21,-24,-24,-31,-33,-31,-35,-34,-35,-36,-40,-41,-43,-39,-28,-25,-15
2019-05-15,16:53:47.912,24,28,10,-5,-33,-59,-68,-68,-71,-71,-77,-17,110,239,153,-169,-348,-237,-127,-75,-55,-49,-45,-44,-37,-31,-29,-25,-18,-8,-7,6,17,34,45,61,73,92,112,133,153,171,188,196,201,198,187,170,138,99,57,22,-12,-31,-47,-58,-63,-66,-67,-65,-70,-64,-62,-62,-58,-56,-52,-54,-54,-55,-58,-58,-60,-61,-65,-65,-66,-67,-69,-68,-69,-70,-73,-74,-77,-82,-84,-80,-69,-63,-55,-28,-11,-23,-32,-55,-84,-101,-98,-97,-96,-93,-81,11,117,119,-75,-302,-333,-193,-112,-73,-57,-50,-41,-36,-30,-24,-14,-12,-7,1,8,18,28,38,51,63
2019-05-15,16:53:48.940,76,95,114,137,151,162,169,178,183,180,166,143,110,80,45,11,-10,-28,-38,-48,-52,-56,-56,-57,-51,-52,-46,-43,-40,-40,-38,-37,-39,-37,-38,-46,-48,-50,-49,-52,-58,-60,-58,-60,-64,-61,-61,-64,-63,-64,-58,-53,-50,-34,-8,-1,-14,-26,-48,-78,-87,-90,-94,-88,-93,-54,33,109,40,-193,-316,-255,-139,-82,-59,-56,-51,-47,-39,-38,-36,-34,-27,-20,-13,-9,4,11,23,34,41,57,71,90,105,122,131,138,139,137,136,117,97,61,29,-2,-31,-43,-53,-62,-68,-67,-68,-69,-73,-69,-70,-72,-60,-64,-63,-60,-60,-64,-59,-57,-60,-62
2019-05-15,16:53:49.968,-64,-70,-73,-74,-75,-79,-82,-87,-85,-88,-86,-90,-94,-92,-85,-75,-68,-43,-33,-40,-48,-71,-96,-107,-108,-104,-108,-109,-91,-17,65,51,-154,-304,-287,-161,-102,-69,-64,-58,-54,-51,-49,-42,-37,-32,-27,-24,-14,-5,5,10,24,34,44,60,76,95,111,122,131,132,131,128,114,90,59,25,-4,-25,-44,-62,-70,-77,-83,-80,-74,-73,-75,-71,-71,-68,-69,-69,-68,-68,-66,-66,-68,-66,-67,-69,-71,-73,-72,-73,-75,-72,-79,-78,-81,-82,-78,-77,-83,-80,-69,-57,-62,-29,-15,-26,-32,-54,-85,-101,-103,-102,-102,-104,-91,-22,62,63,-131,-297,-297,-165
2019-05-15,16:53:50.996,-104,-69,-59,-59,-53,-52,-46,-40,-33,-26,-22,-15,-9,4,16,26,38,52,65,77,99,118,137,145,157,160,168,164,151,126,97,66,37,10,-12,-30,-38,-44,-47,-46,-44,-42,-41,-42,-38,-32,-30,-32,-29,-28,-25,-21,-23,-26,-28,-29,-30,-34,-34,-38,-43,-44,-43,-37,-41,-42,-41,-40,-39,-38,-43,-40,-42,-40,-27,-24,-19,13,27,9,2,-10,-37,-49,-47,-45,-49,-53,-10,86,177,119,-127,-285,-197,-78,-31,-14,-4,-2,0,8,13,18,21,29,41,44,53,61,69,86,103,117,132,150,166,185,207,213,223,229,225,223,201,171,139,100
2019-05-15,16:53:52.024,73,47,24,13,1,-4,-2,-3,-3,-3,-2,-4,-2,4,7,8,7,8,12,9,8,4,5,3,1,0,-6,-8,-6,-11,-14,-13,-15,-14,-15,-17,-19,-18,-18,-24,-23,-22,-22,-21,-23,-25,-25,-14,-4,-4,20,47,30,16,2,-24,-42,-40,-34,-36,-38,-6,98,222,217,-44,-261,-207,-79,-28,-6,1,3,5,10,17,26,33,37,48,57,65,72,83,99,113,124,143,159,179,198,213,228,237,243,246,238,229,203,162,122,88,60,35,16,0,-8,-7,-12,-12,-11,-7,1,-1,0,5,4,6,9,8,9,5,9,1,-6,-6,-8,-9
2019-05-15,16:53:53.053,-13,-15,-15,-15,-14,-18,-20,-19,-19,-20,-18,-17,-15,-19,-18,-21,-19,-20,-23,-18,-10,-3,8,47,41,21,10,-13,-35,-30,-26,-28,-31,-21,78,210,280,60,-209,-246,-89,-35,-3,5,11,16,24,26,33,44,50,53,62,70,76,87,99,110,123,147,162,184,204,221,241,250,254,255,253,246,218,181,142,101,67,35,11,0,-11,-16,-19,-21,-17,-17,-15,-18,-21,-16,-17,-19,-24,-24,-29,-31,-32,-39,-41,-45,-48,-47,-55,-56,-57,-58,-59,-64,-60,-66,-64,-67,-66,-70,-74,-74,-74,-78,-78,-79,-78,-79,-77,-80,-77,-76,-71,-64,-29,-6
2019-05-15,16:53:54.081,-22,-28,-60,-87,-100,-101,-98,-98,-100,-85,12,127,164,-26,-295,-356,-202,-113,-65,-46,-40,-34,-26,-18,-16,-10,-4,1,11,17,21,38,50,68,79,94,108,124,143,161,176,187,190,192,192,184,163,132,102,69,36,13,-10,-18,-29,-33,-39,-35,-34,-32,-25,-23,-20,-14,-16,-12,-13,-17,-11,-17,-20,-22,-26,-25,-32,-30,-36,-34,-35,-36,-38,-41,-41,-36,-37,-37,-35,-40,-37,-39,-41,-40,-35,-32,-28,-20,-10,14,29,25,21,-5,-33,-47,-51,-52,-57,-60,-46,31,119,121,-60,-242,-269,-144,-67,-27,-16,-14,-9,-5,4,9,11,16,22,25
2019-05-15,16:53:55.109,32,39,46,60,71,82,93,109,128,142,158,168,185,191,193,191,179,153,117,93,54,27,11,-5,-13,-24,-27,-27,-26,-32,-28,-24,-19,-19,-16,-14,-14,-11,-8,-5,-6,-7,-8,-11,-13,-12,-16,-19,-20,-23,-26,-27,-24,-24,-22,-20,-29,-26,-30,-27,-30,-36,-34,-27,-16,-7,0,26,38,33,23,1,-31,-47,-44,-43,-49,-54,-34,47,133,118,-83,-242,-233,-105,-47,-15,-15,-9,-1,2,5,8,18,23,25,28,37,47,59,64,80,91,105,121,137,154,170,188,195,197,203,192,177,154,123,87,58,37,17,4,-7,-13,-18,-22,-25,-23
2019-05-15,16:53:56.137,-21,-16,-15,-11,-9,-8,-5,-7,1,3,0,3,5,1,-4,-3,-11,-9,-12,-13,-18,-15,-20,-16,-16,-18,-15,-18,-22,-20,-25,-28,-25,-26,-21,-15,-8,1,31,36,24,16,-10,-35,-46,-54,-51,-53,-53,-19,59,147,91,-125,-254,-197,-86,-41,-22,-15,-8,1,-5,-3,6,8,18,22,28,32,46,54,64,80,94,109,129,144,164,183,191,204,209,210,208,192,160,128,95,63,35,19,3,-4,-7,-12,-13,-17,-13,-16,-15,-7,-6,-4,-2,0,1,2,4,5,6,5,2,1,1,-3,-5,-3,-4,-6,-4,-7,-6,-5,-6,-6,-7,-10
2019-05-15,16:53:57.165,-9,-8,-10,-10,-15,-12,-10,-2,4,5,23,59,52,42,28,11,-14,-17,-13,-18,-14,-2,80,189,226,39,-187,-216,-79,-14,14,20,33,40,43,51,55,61,62,66,74,88,98,108,116,131,143,163,184,202,220,240,255,261,267,270,273,257,233,198,163,130,99,75,51,42,37,34,29,29,31,28,33,35,34,35,41,41,40,45,46,41,43,40,33,34,30,28,25,20,21,19,18,19,16,17,16,17,15,16,17,15,16,17,16,15,16,17,11,9,8,13,23,33,45,80,69,52,39,17,-4,-9,-5,-7,-8,14,111,233
2019-05-15,16:53:58.193,249,17,-216,-215,-65,-9,19,23,28,37,44,49,56,64,71,72,82,89,99,114,122,138,155,169,186,209,227,241,255,272,274,279,278,261,233,198,161,120,89,62,36,27,23,17,16,16,15,14,20,23,28,30,31,28,30,28,26,25,25,18,14,11,6,2,-1,-4,-2,-5,-8,-6,-14,-17,-17,-22,-19,-21,-20,-23,-25,-24,-25,-22,-25,-28,-25,-24,-25,-25,-26,-28,-23,-10,-4,30,40,22,6,-13,-37,-41,-43,-40,-40,-33,55,180,278,97,-187,-279,-127,-51,-13,-6,-1,8,15,19,25,29,34,45,51,58,65,77,90,103
2019-05-15,16:53:59.221,119,138,156,181,202,221,240,251,259,263,264,252,233,199,154,113,78,44,19,0,-11,-15,-21,-20,-24,-19,-14,-12,-10,-8,-5,-4,-7,-5,-3,-7,-10,-17,-15,-22,-23,-20,-25,-29,-35,-36,-33,-35,-35,-37,-39,-37,-39,-37,-37,-40,-40,-41,-42,-45,-42,-42,-45,-42,-43,-40,-41,-47,-49,-39,-30,-25,-2,28,14,-4,-21,-52,-58,-57,-56,-59,-60,-12,111,251,225,-88,-314,-239,-99,-47,-24,-13,-6,0,6,7,17,24,35,40,50,60,71,81,97,111,130,143,161,185,202,221,237,249,251,252,250,229,200,159,115,74,36,9,-15,-32
2019-05-15,16:54:00.249,-40,-47,-49,-55,-59,-58,-59,-53,-50,-52,-53,-56,-58,-62,-62,-67,-69,-70,-76,-82,-88,-91,-95,-98,-104,-102,-110,-108,-110,-111,-111,-113,-112,-111,-113,-115,-114,-114,-117,-118,-119,-117,-116,-113,-114,-116,-111,-101,-91,-61,-28,-37,-49,-72,-105,-120,-125,-123,-125,-128,-120,-44,89,155,11,-278,-412,-286,-166,-115,-90,-85,-70,-62,-59,-55,-47,-39,-33,-30,-25,-15,-5,8,21,36,52,67,86,107,129,146,160,165,171,174,166,146,117,84,50,17,-15,-37,-48,-63,-74,-73,-75,-77,-72,-70,-68,-64,-59,-52,-54,-49,-51,-53,-52,-57,-56,-54,-59,-60,-64,-63
2019-05-15,16:54:01.277,-71,-74,-74,-74,-77,-79,-82,-84,-88,-82,-86,-89,-83,-80,-79,-80,-79,-71,-65,-59,-35,-8,-14,-21,-34,-70,-83,-90,-86,-88,-90,-85,-25,75,120,-16,-238,-319,-221,-113,-67,-48,-38,-33,-30,-25,-18,-19,-10,-4,6,12,18,28,44,55,69,78,98,114,134,153,169,185,191,191,190,181,156,130,97,60,34,8,-11,-24,-30,-37,-42,-39,-44,-42,-42,-42,-40,-34,-30,-28,-26,-26,-27,-25,-29,-26,-31,-32,-33,-36,-38,-43,-46,-46,-45,-43,-48,-47,-47,-48,-52,-50,-51,-50,-49,-50,-44,-37,-32,-20,11,17,10,3,-26,-54,-66,-63,-58,-64
2019-05-15,16:54:02.305,-66,-30,56,127,59,-161,-286,-226,-109,-63,-38,-37,-37,-33,-30,-26,-19,-16,-10,-6,2,10,20,30,36,49,65,80,94,113,132,146,153,164,171,173,165,150,120,87,52,20,-4,-22,-34,-46,-49,-55,-56,-54,-56,-54,-52,-51,-52,-50,-43,-41,-43,-42,-38,-39,-36,-39,-45,-40,-46,-45,-44,-53,-52,-54,-56,-56,-56,-56,-59,-58,-57,-59,-54,-55,-43,-42,-39,-9,11,0,-5,-22,-48,-73,-74,-73,-76,-79,-74,-16,66,103,-59,-241,-275,-152,-93,-55,-40,-35,-35,-31,-24,-24,-18,-16,-11,-3,4,8,17,28,41,51,68,85,102,119,134,152
2019-05-15,16:54:03.333,162,162,171,162,147,121,89,56,26,2,-17,-34,-38,-48,-46,-48,-51,-46,-47,-48,-42,-43,-41,-47,-43,-42,-41,-41,-43,-41,-43,-40,-45,-45,-44,-48,-52,-48,-51,-50,-52,-55,-54,-57,-57,-57,-59,-57,-58,-61,-48,-38,-37,-19,2,-10,-15,-24,-53,-74,-77,-69,-64,-65,-45,19,112,120,-87,-255,-241,-111,-51,-30,-20,-17,-15,-9,-4,7,12,17,26,32,40,47,54,67,78,93,112,131,155,172,199,209,220,232,234,225,208,180,143,105,73,43,29,13,3,-3,-7,-5,-8,-6,-4,-8,-2,0,2,3,5,9,12,14,15,13,15,16
2019-05-15,16:54:04.361,6,8,3,6,0,1,-2,-3,-4,-7,-9,-10,-11,-9,-7,-4,-6,-9,-7,-8,-7,-11,-11,-9,0,7,13,47,45,28,16,1,-23,-25,-23,-21,-23,-15,58,167,235,85,-156,-235,-98,-24,15,22,31,36,39,49,53,64,65,72,84,91,101,110,121,136,153,168,187,208,230,250,270,282,291,294,292,283,254,214,179,141,110,87,69,56,46,43,39,39,40,40,40,43,45,48,46,52,50,49,56,55,54,57,52,50,47,45,44,40,36,37,35,34,36,33,29,30,26,24,24,22,25,25,25,25,24,29,27,27,26,25
2019-05-15,16:54:05.389,27,26,34,40,47,96,88,72,60,40,19,15,12,13,11,16,88,205,307,175,-97,-220,-83,-3,38,54,56,66,72,76,84,86,97,100,110,118,128,142,152,169,181,198,221,240,263,283,303,318,330,333,333,323,297,257,215,177,139,109,86,71,61,54,51,47,44,46,48,52,54,59,63,67,69,70,71,74,72,73,66,65,59,52,49,49,50,52,45,47,47,47,45,42,42,41,39,36,37,43,40,40,38,38,40,33,35,41,40,40,39,46,49,56,90,115,104,93,65,37,16,17,20,23,20,17,91,210,331,214
2019-05-15,16:54:06.417,-83,-224,-91,-3,42,53,60,69,72,76,82,88,96,97,106,114,123,134,145,153,168,186,198,219,242,261,281,294,301,304,298,284,257,218,173,126,85,53,25,9,-4,-10,-14,-21,-24,-24,-21,-21,-18,-13,-12,-9,-4,-3,-9,-7,-9,-15,-16,-14,-19,-25,-31,-35,-38,-42,-42,-39,-39,-45,-46,-43,-47,-52,-47,-49,-49,-50,-47,-51,-50,-51,-51,-49,-47,-50,-45,-39,-34,-22,13,24,13,5,-22,-51,-64,-65,-64,-61,-69,-51,31,131,147,-29,-261,-307,-166,-72,-29,-16,-8,-10,-6,-1,4,9,10,18,26,33,39,48,56,68,82,90
2019-05-15,16:54:07.445,116,133,153,174,192,204,212,212,215,200,177,143,105,72,39,16,-8,-14,-20,-26,-29,-34,-36,-32,-30,-25,-23,-22,-16,-14,-14,-11,-12,-11,-14,-14,-16,-22,-21,-30,-29,-34,-35,-33,-40,-39,-39,-43,-40,-45,-39,-42,-44,-43,-45,-41,-42,-44,-43,-38,-30,-29,-30,-25,4,24,18,11,-5,-36,-55,-57,-59,-57,-59,-52,6,85,104,-33,-228,-286,-187,-82,-36,-18,-11,-6,-1,2,12,14,11,18,21,22,31,45,54,63,71,87,101,118,130,149,163,181,189,191,195,180,166,132,101,71,39,15,0,-14,-22,-28,-29,-31,-34,-35,-32,-33
2019-05-15,16:54:08.473,-36,-34,-31,-32,-27,-26,-30,-24,-25,-19,-24,-26,-25,-34,-35,-38,-37,-40,-39,-38,-38,-42,-44,-49,-50,-49,-52,-52,-49,-47,-53,-61,-64,-54,-34,-9,-5,-1,-7,-34,-63,-72,-74,-76,-74,-76,-35,48,97,-7,-209,-295,-214,-109,-62,-38,-34,-31,-29,-27,-24,-24,-18,-16,-14,-4,8,15,19,27,41,55,65,79,101,121,135,154,156,163,165,160,141,116,85,51,17,-8,-24,-35,-41,-47,-47,-50,-51,-48,-49,-44,-49,-45,-43,-41,-39,-37,-32,-29,-33,-33,-36,-33,-34,-34,-38,-42,-43,-45,-44,-42,-45,-48,-47,-50,-45,-46,-46,-49,-48,-48
2019-05-15,16:54:09.501,-48,-50,-50,-47,-50,-52,-49,-50,-44,-44,-34,-26,-21,12,21,13,6,-19,-42,-56,-54,-51,-55,-55,-22,55,130,90,-119,-258,-226,-97,-45,-16,-9,-5,2,7,9,17,21,29,32,38,48,60,70,77,94,105,120,136,153,176,192,209,222,229,237,236,226,202,170,134,99,71,52,31,23,17,10,9,5,7,10,8,7,6,12,15,16,26,27,30,31,34,29,27,29,25,23,22,15,18,19,17,18,14,16,14,11,10,10,7,12,12,11,8,8,7,9,9,9,7,8,7,18,23,30,46,77,70,56,48,23,-2,-5,-2
2019-05-15,16:54:10.529,-2,-6,13,94,207,239,38,-177,-203,-60,0,26,37,43,47,53,57,62,69,77,85,92,100,108,122,136,147,163,179,199,221,243,263,278,292,301,303,301,291,272,237,194,154,121,95,74,64,54,44,40,40,41,42,43,41,44,48,52,52,55,59,58,55,58,55,56,50,46,48,46,41,38,37,35,34,32,33,36,35,33,31,29,30,29,24,25,28,27,28,27,26,27,26,26,26,30,35,48,55,95,101,78,71,56,32,25,22,26,21,23,97,212,313,176,-101,-227,-89,5,46,57,64,67,69,76,86,91,95,102
2019-05-15,16:54:11.557,114,123,131,145,156,168,185,205,222,246,270,287,305,318,328,336,340,333,313,280,238,193,157,127,98,82,70,65,59,57,53,56,59,61,65,65,68,71,70,75,72,70,68,65,63,62,58,55,50,48,44,42,41,39,38,35,30,23,22,25,20,17,17,19,21,22,22,19,17,19,18,20,21,24,29,37,51,93,100,82,68,43,15,-2,-1,-2,-3,-10,23,128,260,258,-12,-235,-195,-54,3,29,39,46,51,57,64,71,75,78,85,91,102,107,118,138,148,161,182,201,224,243,260,272,283,286,287,287,270,242,205,153
2019-05-15,16:54:12.585,116,73,43,22,1,-5,-15,-21,-22,-24,-23,-22,-20,-21,-20,-15,-17,-19,-15,-14,-17,-18,-21,-23,-24,-29,-36,-35,-37,-41,-41,-44,-46,-46,-48,-48,-50,-51,-51,-49,-54,-52,-55,-54,-57,-58,-59,-65,-60,-52,-44,-30,4,15,0,-4,-31,-65,-70,-73,-69,-73,-78,-58,46,134,113,-102,-318,-318,-170,-92,-50,-31,-24,-17,-17,-9,2,7,7,14,21,31,38,49,57,71,88,103,123,138,154,180,196,209,213,217,219,204,179,148,113,79,49,28,7,-6,-11,-19,-19,-27,-25,-18,-23,-20,-20,-14,-8,-9,-1,-3,-6,-6,-7,-4,-11,-14
2019-05-15,16:54:13.613,-19,-20,-23,-24,-24,-24,-27,-28,-33,-33,-32,-34,-29,-32,-30,-33,-30,-24,-19,-17,0,28,34,23,17,-7,-39,-50,-52,-53,-52,-55,-21,63,125,71,-135,-270,-244,-113,-56,-20,-11,-8,-2,4,3,4,8,15,22,27,36,41,55,67,78,92,103,116,136,153,169,182,193,200,197,194,180,156,120,82,53,22,3,-10,-18,-22,-30,-29,-31,-31,-28,-30,-29,-28,-28,-25,-21,-17,-16,-18,-19,-16,-21,-24,-29,-28,-30,-31,-34,-38,-37,-35,-36,-34,-38,-37,-35,-38,-41,-43,-41,-40,-31,-28,-24,-7,14,17,7,1,-24,-52,-60,-62,-61,-62
2019-05-15,16:54:14.641,-61,-16,63,131,55,-157,-273,-207,-99,-51,-27,-18,-12,-10,-5,2,5,8,13,22,25,37,44,53,64,71,88,99,117,135,156,171,181,187,194,196,190,172,143,113,76,44,21,3,-16,-23,-26,-27,-28,-28,-27,-22,-19,-19,-15,-15,-12,-15,-9,-10,-10,-10,-10,-10,-14,-16,-11,-15,-21,-23,-24,-23,-27,-25,-26,-27,-26,-26,-30,-32,-32,-28,-32,-22,-17,-14,4,35,34,25,14,-6,-34,-41,-43,-43,-40,-36,18,102,161,42,-169,-252,-151,-63,-19,-8,-1,3,6,10,15,19,25,28,36,43,53,60,72,88,99,109,125,144,165,180
2019-05-15,16:54:15.669,198,216,224,228,227,221,201,171,141,109,78,52,38,25,12,11,9,10,11,8,11,10,13,17,15,19,24,30,27,26,33,31,34,28,24,24,23,24,22,18,13,9,11,14,12,12,10,13,12,9,10,6,6,4,10,21,26,33,74,64,54,45,25,-1,-3,1,1,-2,12,92,198,240,54,-172,-208,-68,0,35,42,48,52,58,64,70,75,82,88,93,105,112,123,133,144,155,173,195,216,238,259,274,284,291,298,296,285,260,226,188,152,121,95,76,68,50,47,49,48,46,42,41,47,53,55,53,54,54,55,54
2019-05-15,16:54:16.697,48,50,48,44,45,42,39,33,31,31,27,32,29,28,30,25,24,22,19,21,23,26,21,16,16,15,17,17,13,23,32,33,77,76,60,51,35,13,2,7,2,0,8,74,193,300,165,-117,-241,-104,-14,32,39,43,51,57,63,68,75,82,89,96,104,111,123,134,147,162,180,200,224,245,269,283,301,310,318,316,311,286,249,205,164,129,99,75,61,47,39,36,31,37,36,38,41,40,45,45,47,53,51,54,48,47,44,40,39,35,31,29,28,28,27,21,21,17,18,19,15,17,14,15,13,9,5,5,6,4
2019-05-15,16:54:17.725,10,8,6,8,4,9,16,25,30,71,74,52,34,20,-7,-14,-11,-13,-13,-15,57,185,311,185,-126,-271,-129,-37,8,18,29,33,36,47,57,59,64,70,77,81,93,103,116,130,143,161,178,201,225,242,260,275,284,291,292,283,260,222,178,134,95,57,32,15,-2,-9,-10,-12,-12,-12,-7,-9,-13,-10,-10,-8,-9,-11,-14,-22,-27,-26,-32,-29,-37,-40,-46,-53,-57,-62,-65,-70,-68,-65,-70,-69,-70,-77,-78,-82,-79,-83,-89,-84,-84,-86,-90,-90,-87,-87,-80,-79,-73,-39,-10,-17,-33,-52,-87,-109,-111,-111,-115,-114,-113,-47,67,149
2019-05-15,16:54:18.753,37,-237,-387,-284,-157,-102,-75,-62,-59,-55,-52,-50,-44,-38,-32,-23,-19,-9,-2,11,23,34,52,68,85,106,126,143,154,157,160,159,155,139,109,76,36,7,-27,-44,-65,-73,-76,-82,-82,-81,-83,-77,-74,-71,-70,-68,-65,-63,-60,-59,-64,-66,-64,-68,-74,-76,-78,-77,-79,-85,-82,-82,-85,-80,-80,-82,-84,-86,-85,-86,-84,-83,-86,-87,-87,-89,-85,-81,-76,-59,-28,-19,-29,-31,-60,-91,-101,-104,-104,-106,-105,-85,-2,72,43,-159,-318,-317,-184,-118,-84,-69,-66,-57,-55,-54,-49,-43,-35,-28,-24,-22,-13,1,9,26,35,53,69,82,107,122
2019-05-15,16:54:19.781,132,144,149,152,147,134,109,79,43,11,-15,-31,-51,-66,-70,-75,-74,-77,-78,-76,-77,-71,-72,-70,-62,-62,-61,-60,-59,-62,-65,-65,-71,-72,-69,-77,-77,-78,-77,-80,-86,-84,-87,-87,-89,-89,-90,-89,-89,-88,-90,-89,-92,-92,-84,-84,-74,-51,-31,-39,-43,-57,-92,-110,-111,-112,-111,-117,-110,-45,39,74,-84,-273,-318,-210,-128,-88,-76,-68,-67,-59,-58,-56,-53,-51,-45,-38,-32,-22,-15,-7,2,18,25,37,59,75,92,107,117,124,126,129,121,98,71,34,0,-25,-50,-63,-72,-75,-78,-88,-85,-82,-80,-85,-82,-81,-87,-85,-79,-81,-73,-78
2019-05-15,16:54:20.809,-75,-70,-70,-74,-71,-72,-71,-73,-78,-83,-76,-81,-82,-83,-80,-85,-86,-87,-91,-93,-92,-95,-95,-94,-95,-95,-90,-80,-75,-63,-33,-33,-43,-51,-73,-99,-108,-107,-104,-106,-110,-76,3,82,13,-193,-309,-253,-140,-98,-73,-71,-68,-64,-58,-54,-49,-48,-44,-41,-32,-21,-15,-7,6,19,30,47,62,76,99,116,129,137,143,146,139,124,100,65,30,2,-25,-42,-56,-59,-68,-67,-70,-73,-73,-71,-71,-66,-66,-67,-66,-58,-60,-62,-58,-55,-52,-50,-55,-55,-56,-58,-60,-63,-68,-69,-71,-68,-70,-71,-74,-72,-73,-71,-73,-72,-72,-74,-72,-71,-71,-65
2019-05-15,16:54:21.837,-53,-56,-30,-7,-18,-29,-33,-61,-80,-82,-81,-84,-84,-65,9,95,93,-113,-278,-263,-132,-80,-52,-45,-39,-37,-29,-26,-21,-12,-11,1,13,17,25,35,48,63,77,91,108,124,142,162,175,187,195,198,193,178,155,119,87,51,22,-4,-20,-30,-43,-44,-49,-51,-44,-44,-39,-42,-39,-37,-36,-31,-27,-27,-23,-22,-19,-24,-27,-26,-28,-30,-32,-29,-28,-33,-34,-30,-29,-33,-34,-34,-35,-36,-31,-27,-25,-28,-27,-24,-23,-20,-26,-26,-21,-10,1,4,34,45,31,23,11,-15,-27,-28,-24,-29,-29,25,126,222,145,-106,-259,-160,-53,-6,12,14
2019-05-15,16:54:22.865,24,31,32,39,46,55,62,67,71,85,96,108,119,134,147,166,184,203,228,245,256,265,275,277,269,253,222,184,149,114,87,65,42,38,28,25,25,22,24,25,30,32,36,41,41,42,45,45,42,44,42,41,37,34,32,28,25,24,25,20,22,23,18,20,16,19,14,14,16,12,13,11,13,14,13,12,10,7,13,24,32,47,81,74,56,44,17,-5,-4,-3,-2,-8,17,118,229,242,1,-220,-201,-55,-1,31,38,47,51,54,62,68,78,81,90,98,109,119,124,141,155,170,186,201,224,248,266,280,288,300,301,298
2019-05-15,16:54:23.893,283,253,216,176,135,105,79,60,47,34,28,25,27,24,23,26,31,36,39,38,41,42,42,35,35,34,31,31,23,18,16,14,12,11,9,9,8,5,4,4,2,3,2,-4,-4,-5,-3,-6,-7,-9,-12,-11,-4,3,8,46,56,38,21,3,-21,-28,-26,-27,-28,-24,58,178,269,114,-173,-273,-125,-37,3,16,18,26,29,35,44,50,58,64,72,77,85,101,114,122,136,153,170,191,215,235,251,261,269,274,271,262,236,204,162,119,76,45,20,1,-16,-23,-26,-32,-32,-35,-33,-34,-31,-32,-30,-32,-35,-36,-40,-38,-43,-47
2019-05-15,16:54:24.921,-50,-53,-56,-59,-62,-65,-67,-69,-74,-71,-75,-73,-77,-75,-75,-78,-80,-84,-83,-83,-84,-86,-84,-80,-74,-73,-41,-20,-33,-45,-67,-93,-107,-103,-98,-98,-99,-55,65,142,65,-192,-371,-300,-155,-100,-63,-56,-50,-44,-37,-33,-26,-20,-11,-13,-4,3,13,26,37,49,62,83,101,118,137,156,170,178,181,183,175,160,132,96,64,28,2,-15,-35,-44,-50,-56,-57,-62,-57,-54,-51,-48,-44,-39,-37,-32,-38,-37,-32,-41,-40,-42,-44,-44,-47,-53,-56,-54,-53,-55,-56,-57,-59,-60,-61,-63,-64,-69,-55,-54,-48,-20,-4,-7,-14,-33,-63,-80,-86,-84
2019-05-15,16:54:25.949,-85,-89,-86,-24,65,96,-51,-260,-320,-217,-116,-70,-48,-47,-41,-35,-33,-34,-26,-21,-12,-5,-5,9,11,22,35,46,59,78,93,112,131,142,153,162,164,156,148,130,97,64,33,6,-18,-42,-51,-55,-54,-57,-58,-61,-63,-61,-62,-61,-59,-58,-52,-54,-50,-49,-48,-53,-53,-55,-59,-62,-64,-66,-67,-73,-71,-73,-76,-81,-82,-85,-84,-84,-78,-75,-73,-65,-38,-30,-40,-45,-70,-96,-105,-107,-109,-108,-111,-79,-1,70,24,-187,-320,-277,-158,-110,-83,-75,-72,-66,-60,-57,-57,-52,-44,-45,-40,-33,-25,-19,-3,6,22,33,45,65,85,97,113,120
2019-05-15,16:54:26.977,127,124,113,94,68,38,4,-21,-46,-63,-70,-77,-78,-81,-86,-89,-87,-86,-83,-81,-80,-77,-72,-76,-73,-68,-65,-65,-68,-67,-68,-72,-72,-73,-77,-75,-81,-82,-84,-81,-86,-88,-89,-88,-83,-73,-73,-54,-33,-27,-41,-51,-72,-104,-108,-110,-111,-107,-107,-70,11,74,-2,-215,-311,-242,-138,-88,-68,-65,-66,-59,-59,-57,-50,-43,-36,-33,-29,-20,-12,1,14,22,37,55,68,89,103,119,126,137,142,141,137,116,84,54,20,-8,-27,-42,-52,-61,-67,-69,-68,-66,-67,-64,-67,-67,-68,-68,-63,-60,-58,-55,-55,-52,-51,-51,-52,-53,-53,-54,-56,-59
2019-05-15,16:54:28.005,-66,-66,-69,-71,-74,-76,-78,-76,-72,-64,-53,-46,-37,-7,-16,-27,-38,-65,-86,-85,-84,-83,-88,-70,6,90,107,-81,-262,-273,-136,-77,-50,-40,-36,-31,-23,-21,-16,-6,-2,10,12,22,29,39,50,58,74,90,109,124,148,167,178,188,194,197,196,182,158,124,89,58,29,10,0,-10,-15,-16,-19,-20,-19,-16,-13,-12,-6,-3,1,1,1,3,4,1,-4,-6,-4,-12,-11,-20,-23,-28,-33,-36,-40,-40,-40,-45,-47,-49,-53,-48,-53,-57,-55,-58,-52,-44,-35,-31,9,9,-6,-12,-39,-61,-65,-64,-63,-64,-54,17,118,180,25,-219,-292,-146
2019-05-15,16:54:29.033,-63,-29,-19,-14,-6,0,3,7,17,23,31,36,44,47,59,73,85,101,117,133,156,174,195,207,220,226,226,223,209,187,156,119,83,50,25,7,-8,-16,-18,-17,-22,-20,-14,-15,-10,-8,-3,2,6,6,10,9,9,8,10,8,2,1,-1,1,-2,-7,-2,-10,-10,-12,-12,-13,-15,-14,-16,-16,-13,-19,-22,-20,-16,-11,-5,4,43,42,25,12,-15,-33,-37,-38,-37,-38,-28,68,187,264,71,-196,-254,-99,-40,-7,3,6,13,17,23,28,34,46,51,57,65,74,87,98,117,132,147,165,190,211,232,245,259,265,269,267,251,225
2019-05-15,16:54:30.061,182,143,101,64,44,23,8,-1,-8,-8,-10,-11,-6,-3,3,1,6,6,11,13,7,10,11,9,6,-3,-3,-4,-3,-5,-7,-8,-14,-10,-7,-8,-10,-11,-11,-8,-12,-11,-14,-13,-15,-17,-11,-2,1,19,61,54,30,17,-10,-27,-28,-29,-31,-34,-9,117,256,286,0,-270,-249,-88,-29,2,12,16,25,31,37,43,51,61,70,77,85,92,103,114,131,147,167,182,200,218,232,247,254,256,259,248,228,191,153,109,65,32,5,-14,-28,-39,-41,-46,-44,-41,-42,-42,-39,-37,-34,-32,-32,-35,-35,-40,-46,-48,-52,-54,-59,-64,-62,-67
2019-05-15,16:54:31.089,-71,-72,-73,-73,-80,-82,-83,-81,-84,-86,-84,-86,-88,-87,-88,-78,-70,-60,-23,-15,-27,-40,-68,-89,-95,-93,-94,-95,-89,-23,107,165,29,-241,-362,-242,-122,-79,-51,-44,-31,-28,-25,-17,-10,-7,1,8,20,23,37,49,57,71,85,104,118,137,155,164,175,185,190,191,178,156,124,90,56,25,2,-21,-37,-39,-46,-50,-49,-46,-39,-33,-35,-29,-27,-22,-19,-16,-15,-17,-19,-24,-25,-28,-30,-32,-35,-34,-36,-42,-43,-40,-41,-45,-45,-44,-47,-45,-46,-34,-28,-28,0,20,14,13,-15,-45,-59,-63,-59,-59,-59,-51,14,105,125,-34,-240,-286
2019-05-15,16:54:32.117,-176,-87,-41,-26,-22,-17,-9,-4,1,8,15,16,22,22,32,41,51,59,71,86,107,118,140,159,168,178,183,188,184,174,145,111,81,43,17,-3,-19,-26,-32,-36,-39,-41,-35,-36,-36,-32,-34,-31,-29,-27,-26,-29,-28,-28,-30,-32,-35,-43,-49,-44,-49,-54,-56,-61,-60,-62,-65,-64,-65,-65,-60,-55,-49,-30,-9,-10,-19,-30,-58,-81,-90,-89,-88,-92,-87,-37,41,99,-8,-215,-302,-210,-111,-68,-51,-48,-42,-37,-31,-25,-19,-18,-10,-5,1,8,21,34,39,54,66,74,93,110,124,140,148,152,153,156,142,119,89,57,28,1,-20,-31
2019-05-15,16:54:33.145,-44,-54,-63,-64,-65,-67,-62,-65,-58,-61,-59,-58,-57,-51,-56,-59,-55,-58,-56,-59,-63,-66,-69,-74,-67,-72,-72,-78,-78,-73,-75,-73,-67,-62,-59,-53,-22,-19,-27,-36,-62,-87,-98,-93,-96,-94,-93,-61,20,86,18,-192,-297,-231,-122,-74,-54,-50,-48,-49,-42,-37,-33,-22,-19,-13,-9,-3,8,17,24,38,51,70,87,100,117,133,148,157,163,162,152,128,99,68,36,7,-12,-28,-42,-45,-49,-50,-50,-49,-50,-49,-46,-44,-39,-32,-32,-28,-27,-25,-25,-27,-26,-33,-35,-32,-35,-36,-36,-37,-38,-35,-34,-35,-42,-35,-34,-25,-18,-15,18,27
2019-05-15,16:54:34.173,13,1,-22,-48,-56,-54,-59,-58,-57,-20,66,137,62,-161,-280,-192,-83,-35,-15,-10,-3,5,7,12,18,21,28,38,43,51,61,72,86,98,112,129,144,165,181,197,211,216,218,214,208,186,152,118,85,57,36,13,6,0,0,-6,-8,-7,-6,2,7,9,14,17,19,23,20,27,28,28,27,25,24,22,19,18,19,17,19,16,15,12,11,10,12,11,20,33,41,50,88,83,67,57,28,1,2,5,1,-3,6,83,188,248,85,-155,-218,-68,0,38,49,56,62,66,67,74,81,83,87,99,107,115,130,141,154,168,184,212
2019-05-15,16:54:35.201,226,246,260,270,281,290,295,288,266,236,201,159,122,88,63,46,34,29,21,18,17,14,18,19,22,23,22,21,19,23,24,17,18,12,10,2,2,-3,-4,-4,-10,-7,-9,-12,-9,-14,-19,-22,-17,-11,-3,4,36,54,44,28,0,-27,-38,-41,-43,-44,-43,-15,103,203,194,-66,-296,-268,-114,-49,-17,-6,2,9,17,22,29,36,41,46,55,66,77,90,102,115,131,150,165,185,203,227,235,241,249,246,240,216,184,151,112,80,54,31,20,4,2,3,1,3,1,7,11,14,20,21,27,29,30,33,29,31,29,24,21,17
2019-05-15,16:54:36.229,17,12,12,14,13,12,10,10,12,25,26,52,87,81,70,51,14,-7,-7,-6,-4,-9,-11,59,184,286,168,-137,-273,-139,-34,13,28,36,41,49,52,56,66,72,81,90,99,108,120,134,150,162,180,195,219,242,258,276,284,291,292,285,275,243,205,159,120,90,66,45,33,25,23,16,17,20,25,27,28,33,35,41,40,37,37,34,33,29,23,22,18,16,13,8,9,5,1,-4,-8,-3,7,13,14,49,61,46,32,4,-27,-37,-40,-42,-42,-49,-29,83,213,241,-18,-270,-259,-110,-50,-19,-14,-8,1,2,4,10,16,17
2019-05-15,16:54:37.257,25,30,39,53,62,79,91,108,125,145,164,184,201,208,213,222,213,203,180,143,107,68,38,12,-8,-20,-27,-31,-32,-33,-31,-32,-30,-25,-20,-17,-14,-11,-11,-14,-10,-12,-14,-19,-21,-20,-24,-25,-29,-32,-29,-33,-32,-33,-21,-18,-16,18,38,31,19,-2,-33,-46,-48,-48,-48,-50,-46,37,145,174,-11,-234,-279,-153,-71,-24,-10,-5,1,6,11,12,22,24,30,36,47,54,61,73,85,99,115,132,150,170,182,196,198,208,206,199,180,152,112,76,46,23,6,-7,-13,-23,-25,-20,-22,-26,-24,-23,-20,-13,-13,-9,-6,-5,-5,-3
2019-05-15,16:54:38.285,-4,-6,-11,-12,-13,-14,-13,-15,-17,-18,-21,-23,-25,-19,-12,-10,14,38,30,23,7,-24,-44,-45,-48,-47,-45,-42,24,108,144,-20,-223,-271,-151,-73,-32,-24,-14,-9,-8,-5,1,3,7,9,18,21,30,37,47,57,74,85,105,122,140,153,160,169,171,176,165,149,121,86,55,28,1,-20,-25,-32,-31,-31,-36,-42,-39,-44,-42,-38,-41,-35,-36,-33,-35,-36,-33,-30,-34,-38,-40,-41,-42,-44,-42,-50,-48,-49,-52,-54,-52,-48,-40,-31,-29,-4,10,-4,-13,-37,-67,-74,-75,-79,-75,-77,-48,20,95,49,-164,-286,-235,-118,-66,-52,-40,-39
2019-05-15,16:54:39.313,-33,-30,-25,-20,-12,-16,-13,-3,6,12,24,36,48,64,80,94,111,127,143,154,161,164,168,153,123,95,64,35,7,-17,-30,-33,-42,-44,-50,-47,-44,-44,-45,-47,-40,-41,-42,-42,-44,-40,-40,-34,-37,-40,-41,-45,-47,-46,-49,-48,-55,-56,-54,-50,-56,-58,-55,-59,-59,-45,-41,-41,-12,3,-12,-23,-35,-63,-75,-73,-75,-78,-78,-52,14,78,30,-176,-292,-239,-120,-68,-43,-37,-36,-34,-31,-23,-23,-18,-18,-5,-2,11,19,29,40,55,69,83,97,112,133,150,162,171,176,178,170,146,115,83,53,23,4,-11,-17,-23,-26,-27,-26,-23
2019-05-15,16:54:40.341,-22,-23,-18,-17,-13,-13,-11,-9,-9,-7,-6,-8,-7,-12,-10,-13,-15,-13,-16,-14,-12,-13,-15,-15,-15,-12,-9,-7,-8,-9,-7,-9,1,9,16,30,62,56,42,38,11,-6,-5,-5,-5,-8,18,108,200,184,-33,-217,-179,-47,8,33,43,49,49,52,60,66,72,78,83,91,103,114,121,138,152,167,182,199,219,232,249,259,267,272,274,268,250,219,187,152,121,91,74,60,52,48,46,44,51,50,54,61,62,63,56,59,65,66,66,63,65,58,55,56,49,48,46,40,39,38,39,40,40,41,38,38,34,33,36,33,34,35
2019-05-15,16:54:41.369,27,23,27,35,47,55,88,83,68,60,33,10,7,7,8,7,27,120,237,267,50,-194,-195,-45,17,46,52,58,63,63,70,74,82,92,97,110,118,123,135,146,161,180,191,212,231,250,264,276,286,294,293,287,271,248,211,175,139,107,87,72,62,55,47,49,53,55,59,64,60,61,66,68,67,67,59,57,53,50,49,46,45,41,40,41,36,34,35,38,36,30,33,31,29,31,29,27,27,26,23,27,22,20,31,43,47,87,86,67,56,30,7,2,2,7,3,10,112,238,303,84,-198,-235,-66,5,36,46,49,51
2019-05-15,16:54:42.397,56,61,69,75,82,89,98,107,121,134,145,156,175,194,210,227,249,269,277,284,296,292,287,273,245,211,170,133,98,74,52,38,37,32,34,34,36,41,39,41,44,46,47,45,44,43,40,38,29,27,25,22,21,19,13,12,9,9,8,7,9,8,3,1,-5,-3,-2,-6,-9,-10,-13,-14,-3,1,11,46,39,23,7,-20,-40,-40,-42,-43,-51,-24,98,227,234,-40,-285,-260,-107,-55,-21,-11,-3,-2,1,11,16,20,29,35,42,46,58,72,80,99,115,132,152,166,188,196,206,216,217,216,212,192,165,127,95,62,35,13
2019-05-15,16:54:43.425,-2,-12,-20,-22,-21,-19,-17,-15,-6,-3,-3,1,3,2,0,-1,-1,-5,-3,-4,-12,-8,-13,-14,-11,-12,-13,-13,-13,-11,-16,-14,-11,-14,-14,-12,-13,-12,-8,-2,5,26,56,60,48,34,4,-20,-26,-29,-33,-32,-31,18,132,189,88,-147,-276,-190,-77,-30,-5,6,15,22,32,34,38,46,50,58,66,76,84,92,106,120,131,146,165,181,195,205,212,214,221,217,203,184,149,118,83,56,32,21,4,-8,-9,-16,-15,-10,-10,-5,-2,0,4,6,11,7,9,18,12,9,8,5,6,3,1,-1,1,1,-6,-8,-10,-11,-9,-15
2019-05-15,16:54:44.453,-12,-8,-15,-10,-5,0,6,37,50,39,29,9,-23,-37,-36,-33,-32,-30,-2,74,148,106,-111,-246,-218,-95,-35,-8,-1,3,11,16,25,30,33,37,42,47,49,60,68,79,94,102,117,133,151,168,177,187,199,202,195,185,163,136,101,65,39,16,3,-12,-15,-20,-22,-16,-23,-16,-20,-18,-16,-16,-14,-15,-17,-14,-16,-12,-14,-23,-22,-24,-27,-35,-33,-34,-31,-33,-36,-35,-36,-41,-39,-41,-42,-40,-35,-25,-28,-18,10,12,0,-13,-36,-63,-72,-70,-71,-73,-78,-33,45,107,15,-187,-283,-194,-99,-57,-35,-35,-28,-22,-24,-22,-16,-9
2019-05-15,16:54:45.481,-8,-5,7,12,16,25,40,49,56,79,88,106,120,128,139,145,145,138,129,104,73,44,12,-9,-28,-45,-50,-53,-66,-61,-68,-64,-67,-64,-60,-61,-59,-54,-57,-54,-51,-50,-49,-48,-53,-50,-52,-56,-63,-58,-60,-58,-56,-60,-63,-68,-70,-69,-69,-67,-61,-49,-43,-44,-19,-4,-16,-24,-41,-72,-83,-85,-84,-84,-84,-57,21,91,51,-157,-284,-236,-122,-70,-50,-46,-39,-33,-28,-27,-20,-16,-11,-3,5,14,24,32,42,53,68,85,104,121,137,153,164,174,178,181,168,144,116,86,58,21,6,-7,-21,-21,-26,-27,-27,-25,-25,-25,-20,-19
2019-05-15,16:54:46.509,-20,-16,-15,-10,-5,-5,-4,-5,-5,-5,-9,-11,-13,-16,-20,-19,-19,-22,-22,-21,-23,-25,-23,-24,-27,-25,-22,-15,-3,-1,19,44,38,28,18,-10,-19,-22,-21,-23,-21,22,115,206,155,-75,-231,-157,-50,-3,18,23,28,33,34,44,47,50,58,65,75,82,86,100,111,127,137,153,177,189,210,231,241,248,251,249,235,211,179,147,112,81,56,40,32,21,15,8,11,10,10,12,16,21,22,24,27,29,31,31,33,32,30,28,25,22,19,16,17,13,16,11,13,12,10,9,13,11,11,7,8,3,7,8,14,25,22,50
