2019-05-16,10:56:13.119,-31,-65,-63,-58,-53,-57,-54,-46,-52,-55,-47,-32,-37,-39,-49,-47,-44,-46,-53,-35,-45,-55,-56,-57,-60,-63,-58,-57,-52,-43,-46,-42,-30,-33,-31,-20,-8,-9,-17,-25,-38,-48,-37,-48,-48,-38,-44,-44,-48,-44,-47,-46,-48,-62,57,185,287,99,-222,-297,-267,-173,-80,-45,-38,-39,-30,-31,-31,-19,-27,-14,1,3,3,14,16,6,14,28,33,38,50,69,81,87,108,102,115,121,123,120,111,104,87,66,52,42,30,28,37,35,31,33,29,33,31,30,31,33,47,42,51,48,51,42,46,49,46,52,51,48,40,48,56,63,62,60
2019-05-16,10:56:14.147,66,63,55,60,71,59,57,53,64,72,71,78,88,105,99,96,86,79,72,62,61,60,63,61,60,64,64,64,62,54,28,142,287,400,204,-115,-200,-160,-61,22,46,53,65,68,68,75,74,75,79,78,80,82,78,87,87,93,96,98,107,109,123,138,135,151,164,166,171,174,168,157,134,117,103,80,81,84,66,62,68,70,66,64,68,67,63,69,67,77,69,66,73,71,74,74,70,78,77,77,74,79,73,71,71,77,71,69,70,70,75,74,67,65,68,71,76,89,82,80,100,114,109,108,98,80,68,70,71,63
2019-05-16,10:56:15.175,65,70,65,68,60,64,71,63,37,134,279,397,277,-79,-186,-163,-72,27,44,61,66,67,75,83,81,82,82,81,81,89,92,95,101,92,95,104,116,129,139,147,162,169,179,187,197,192,189,183,173,147,126,123,101,91,93,87,89,90,86,91,75,76,74,66,71,79,73,83,84,72,74,84,74,73,80,84,89,81,79,74,72,81,79,74,70,72,72,69,64,67,70,68,70,80,87,84,99,117,108,103,112,91,80,78,72,66,63,62,66,58,58,52,52,59,30,100,266,408,319,-66,-217,-194,-99,12,49,57,62,58
2019-05-16,10:56:16.204,65,73,65,76,74,66,68,71,72,74,71,74,82,90,91,104,105,112,128,135,141,151,151,161,153,148,127,113,89,72,66,56,52,38,36,37,44,30,31,30,34,30,27,29,30,30,32,44,44,31,39,37,34,33,35,41,37,23,33,34,38,32,25,23,25,32,30,27,27,25,34,23,29,41,36,42,66,80,63,71,56,34,29,28,22,18,24,24,23,9,9,4,11,-16,7,165,319,364,12,-224,-264,-203,-72,-17,0,12,12,19,24,22,26,28,28,28,32,33,24,24,30,39,45,48,58,77,77,85,95,111
2019-05-16,10:56:17.232,107,111,119,112,105,100,88,77,49,35,18,9,7,8,-4,-3,-5,-8,-8,-2,-7,-9,-4,-7,-10,-8,-5,-7,-2,-3,-5,-1,-6,-6,-11,-14,-16,-11,-9,-3,-5,-7,-14,-9,-4,-14,-12,-12,-13,-3,-2,-5,4,18,19,10,7,11,-7,-18,-21,-27,-31,-29,-23,-29,-26,-20,-29,-36,-53,-55,75,216,306,52,-233,-296,-233,-124,-67,-51,-39,-42,-40,-35,-29,-24,-27,-19,-18,-17,-10,-18,-18,-7,-9,-8,-6,2,11,20,38,46,47,56,55,55,60,55,38,19,4,-12,-27,-35,-40,-30,-49,-56,-62,-67,-62,-57,-58,-61,-58,-55
2019-05-16,10:56:18.260,-52,-55,-56,-60,-53,-51,-48,-39,-43,-46,-50,-50,-52,-53,-48,-51,-55,-56,-54,-54,-56,-51,-60,-51,-52,-53,-38,-28,-21,-26,-39,-41,-55,-72,-67,-73,-71,-74,-74,-81,-79,-80,-88,-90,-84,-90,11,120,192,-11,-251,-295,-271,-198,-109,-82,-75,-81,-70,-68,-61,-62,-64,-61,-56,-56,-55,-49,-45,-43,-37,-39,-20,-18,-11,-1,4,21,33,30,33,43,38,22,19,-2,-22,-40,-57,-64,-74,-71,-74,-83,-85,-75,-76,-86,-89,-84,-88,-83,-82,-74,-71,-73,-60,-61,-56,-62,-68,-66,-66,-69,-72,-69,-74,-74,-75,-73,-74,-77,-68,-75,-70,-63,-54,-45
2019-05-16,10:56:19.288,-46,-53,-65,-69,-79,-87,-89,-92,-87,-93,-93,-95,-101,-102,-95,-98,-117,-38,71,148,42,-216,-289,-290,-233,-141,-113,-101,-95,-88,-83,-73,-72,-75,-69,-72,-70,-66,-61,-63,-60,-57,-61,-50,-42,-32,-19,-7,3,14,21,22,22,23,16,-1,-21,-44,-58,-65,-78,-75,-85,-93,-88,-94,-95,-101,-103,-105,-102,-102,-94,-104,-99,-98,-99,-98,-90,-85,-91,-92,-93,-95,-87,-91,-98,-92,-92,-97,-98,-99,-100,-110,-89,-94,-94,-88,-80,-72,-72,-82,-88,-94,-108,-101,-105,-114,-113,-116,-108,-103,-109,-110,-107,-106,-124,-108,9,130,178,-60,-286,-318,-278,-193,-130,-117
2019-05-16,10:56:20.316,-106,-108,-107,-99,-98,-95,-91,-96,-92,-82,-94,-91,-80,-84,-72,-77,-71,-63,-54,-46,-38,-22,-17,-1,-6,3,-1,-11,-27,-37,-58,-77,-91,-96,-110,-112,-110,-107,-113,-112,-110,-119,-121,-121,-120,-126,-125,-115,-115,-114,-118,-114,-113,-114,-119,-112,-115,-117,-114,-122,-127,-118,-120,-118,-120,-118,-121,-122,-120,-128,-127,-125,-122,-122,-114,-108,-93,-96,-92,-90,-104,-111,-122,-136,-131,-129,-135,-136,-139,-138,-148,-145,-139,-139,-165,-121,26,151,114,-193,-362,-361,-287,-180,-146,-141,-136,-131,-133,-132,-130,-136,-126,-123,-124,-131,-124,-122,-127,-122,-118,-111,-106,-99,-91,-90,-78,-60
2019-05-16,10:56:21.344,-59,-51,-41,-50,-37,-41,-59,-81,-100,-113,-125,-128,-136,-141,-134,-136,-143,-145,-143,-154,-145,-152,-147,-149,-137,-165,-152,-147,-145,-150,-143,-142,-142,-146,-140,-132,-136,-134,-142,-133,-142,-143,-142,-145,-139,-142,-147,-140,-134,-136,-138,-138,-136,-128,-130,-132,-121,-108,-111,-107,-112,-112,-124,-138,-141,-140,-146,-147,-146,-149,-153,-146,-145,-156,-153,-169,-150,-7,129,151,-135,-370,-399,-324,-212,-169,-155,-152,-145,-144,-146,-147,-143,-141,-134,-130,-133,-132,-137,-128,-128,-129,-125,-123,-110,-100,-101,-92,-76,-62,-59,-50,-47,-48,-46,-56,-86,-105,-111,-127,-141,-150,-155,-155,-154,-158,-161,-158
2019-05-16,10:56:22.372,-161,-161,-165,-173,-168,-157,-160,-163,-171,-170,-168,-167,-172,-164,-163,-160,-154,-160,-159,-161,-154,-160,-163,-168,-162,-162,-164,-163,-165,-158,-163,-160,-162,-166,-161,-164,-168,-166,-157,-150,-151,-142,-137,-123,-123,-129,-134,-151,-164,-170,-163,-167,-172,-168,-170,-169,-171,-171,-170,-176,-197,-151,-17,128,106,-223,-403,-403,-326,-220,-191,-189,-179,-157,-148,-163,-175,-165,-151,-155,-156,-151,-153,-152,-141,-144,-132,-127,-133,-135,-109,-97,-90,-80,-69,-56,-53,-53,-52,-57,-72,-86,-114,-128,-145,-142,-147,-149,-146,-164,-166,-161,-142,-171,-171,-168,-167,-165,-168,-169,-168,-169,-164,-166,-151,-144,-159,-171
2019-05-16,10:56:23.400,-160,-162,-162,-163,-162,-161,-162,-159,-150,-147,-150,-150,-151,-156,-157,-152,-151,-152,-156,-155,-155,-159,-159,-146,-148,-142,-130,-115,-110,-116,-125,-137,-148,-152,-153,-155,-159,-161,-160,-162,-164,-165,-165,-163,-176,-158,-22,115,148,-159,-394,-418,-352,-232,-186,-173,-163,-161,-157,-155,-160,-157,-143,-137,-160,-153,-148,-141,-141,-140,-135,-133,-128,-119,-108,-105,-90,-79,-73,-63,-62,-59,-56,-60,-74,-94,-108,-127,-146,-147,-153,-163,-168,-168,-171,-175,-169,-168,-176,-165,-177,-174,-171,-170,-173,-171,-163,-162,-167,-161,-156,-161,-153,-169,-169,-166,-163,-167,-163,-161,-162,-164,-162,-165,-166,-168,-166,-164
2019-05-16,10:56:24.428,-168,-165,-162,-164,-163,-155,-158,-143,-142,-131,-117,-120,-122,-133,-146,-156,-158,-157,-167,-170,-164,-169,-167,-173,-173,-171,-177,-200,-106,42,162,31,-321,-429,-402,-305,-208,-183,-172,-168,-160,-155,-158,-155,-147,-153,-153,-151,-152,-145,-146,-139,-138,-132,-131,-125,-120,-107,-94,-89,-76,-69,-58,-51,-50,-58,-66,-85,-100,-117,-138,-150,-160,-164,-169,-173,-179,-169,-180,-177,-173,-182,-181,-180,-185,-178,-183,-181,-176,-174,-174,-167,-162,-169,-178,-163,-167,-176,-169,-169,-168,-173,-179,-178,-175,-174,-175,-180,-179,-172,-174,-176,-177,-180,-178,-176,-176,-172,-165,-160,-153,-139,-137,-138,-152,-162,-174,-187
2019-05-16,10:56:25.456,-197,-199,-193,-195,-189,-191,-192,-188,-188,-189,-219,-138,2,121,12,-320,-436,-416,-336,-235,-204,-192,-193,-189,-180,-187,-180,-178,-174,-174,-173,-170,-166,-166,-159,-158,-162,-154,-143,-142,-137,-121,-108,-102,-92,-91,-88,-79,-79,-96,-107,-127,-144,-145,-165,-173,-176,-178,-181,-186,-191,-189,-195,-196,-195,-189,-194,-194,-182,-185,-188,-181,-182,-179,-177,-176,-175,-167,-175,-172,-175,-179,-179,-173,-181,-180,-182,-176,-177,-176,-183,-173,-175,-170,-173,-166,-158,-153,-142,-130,-122,-123,-124,-131,-140,-143,-150,-154,-157,-160,-158,-163,-153,-158,-155,-154,-164,-170,-61,41,118,-57,-312,-356,-333,-258,-170,-154
2019-05-16,10:56:26.484,-136,-132,-124,-119,-105,-110,-118,-112,-102,-101,-101,-102,-95,-83,-80,-75,-64,-55,-53,-53,-41,-28,-14,-9,-8,-6,-5,-10,-17,-34,-54,-70,-85,-91,-91,-106,-109,-114,-112,-108,-117,-114,-112,-108,-113,-116,-107,-105,-102,-100,-94,-92,-92,-86,-97,-99,-90,-95,-87,-95,-98,-97,-104,-99,-94,-93,-94,-95,-103,-97,-90,-80,-75,-67,-56,-57,-69,-75,-85,-95,-95,-108,-110,-108,-107,-115,-110,-99,-107,-108,-109,-131,-76,43,150,120,-170,-297,-312,-253,-156,-116,-110,-104,-102,-102,-95,-90,-94,-87,-87,-85,-83,-77,-71,-72,-70,-70,-60,-50,-48,-37,-29,-22,-7,-4,3,8
2019-05-16,10:56:27.512,13,1,-4,-19,-33,-49,-68,-79,-89,-97,-97,-100,-100,-97,-102,-98,-102,-107,-101,-107,-113,-105,-100,-93,-92,-92,-93,-92,-95,-84,-100,-106,-94,-97,-97,-98,-100,-101,-98,-93,-94,-102,-96,-92,-87,-80,-70,-66,-55,-62,-68,-69,-78,-89,-105,-101,-109,-105,-104,-105,-104,-102,-98,-102,-108,-114,-36,86,188,91,-202,-288,-282,-212,-130,-102,-100,-88,-86,-87,-83,-75,-78,-84,-81,-77,-76,-71,-67,-65,-60,-57,-51,-42,-39,-24,-10,-1,7,15,24,26,28,26,9,-7,-26,-39,-52,-59,-66,-73,-70,-73,-69,-74,-83,-78,-73,-69,-71,-80,-72,-67,-65,-61,-66,-60
2019-05-16,10:56:28.540,-56,-52,-53,-53,-51,-53,-55,-51,-58,-60,-63,-58,-61,-63,-62,-64,-67,-57,-58,-49,-45,-42,-33,-29,-19,-33,-36,-34,-48,-54,-61,-60,-56,-67,-70,-79,-80,-69,-65,-73,-83,-89,31,163,237,38,-235,-291,-250,-154,-83,-72,-74,-61,-56,-53,-56,-53,-48,-46,-39,-39,-44,-38,-35,-28,-34,-25,-14,-12,-4,5,10,24,34,46,51,57,59,56,39,29,15,-7,-23,-32,-38,-42,-48,-49,-49,-50,-45,-45,-52,-49,-55,-53,-55,-45,-51,-56,-54,-58,-51,-46,-49,-46,-43,-40,-43,-43,-48,-52,-47,-48,-46,-47,-45,-54,-53,-52,-55,-54,-54,-57,-58,-58
2019-05-16,10:56:29.568,-51,-45,-41,-40,-29,-23,-14,-17,-23,-28,-47,-58,-54,-55,-58,-58,-59,-61,-63,-59,-59,-62,-85,-75,67,198,227,-35,-275,-296,-228,-123,-86,-73,-69,-70,-69,-62,-57,-51,-56,-55,-58,-56,-52,-54,-55,-49,-52,-52,-43,-36,-29,-19,-14,-6,6,14,16,22,22,16,10,-5,-25,-41,-52,-73,-85,-86,-82,-85,-90,-88,-93,-100,-102,-95,-110,-117,-112,-118,-124,-119,-116,-112,-117,-122,-120,-123,-122,-123,-122,-117,-115,-113,-112,-115,-113,-108,-107,-108,-118,-119,-115,-114,-116,-122,-117,-115,-115,-101,-100,-99,-90,-84,-73,-84,-95,-92,-113,-119,-125,-122,-126,-133,-132,-132
2019-05-16,10:56:30.596,-126,-123,-128,-129,-139,-149,-34,115,205,2,-307,-373,-317,-218,-154,-133,-125,-124,-114,-109,-112,-107,-106,-106,-105,-99,-97,-97,-95,-95,-97,-90,-86,-74,-74,-60,-52,-37,-29,-17,-18,-20,-7,-12,-28,-36,-45,-66,-88,-93,-105,-110,-115,-111,-115,-112,-113,-114,-119,-129,-118,-121,-122,-125,-126,-118,-113,-120,-119,-116,-114,-108,-109,-107,-108,-110,-112,-107,-111,-113,-114,-113,-116,-116,-119,-119,-115,-116,-117,-112,-115,-114,-108,-99,-95,-89,-81,-75,-71,-74,-79,-96,-111,-115,-113,-114,-112,-117,-122,-121,-121,-123,-124,-126,-158,-71,75,198,92,-244,-360,-332,-241,-145,-126,-119,-117,-111
2019-05-16,10:56:31.624,-117,-109,-110,-113,-103,-111,-101,-97,-96,-93,-98,-95,-83,-78,-76,-73,-62,-50,-39,-29,-24,-20,-21,-16,-17,-24,-39,-49,-70,-87,-102,-111,-113,-116,-114,-111,-114,-118,-110,-117,-122,-123,-121,-118,-119,-118,-119,-112,-117,-114,-116,-118,-120,-118,-116,-111,-113,-124,-120,-116,-124,-124,-117,-117,-115,-113,-121,-117,-123,-128,-123,-125,-117,-119,-112,-103,-106,-103,-91,-79,-81,-92,-91,-111,-122,-122,-125,-125,-128,-131,-132,-130,-131,-136,-133,-139,-164,-82,58,179,78,-253,-370,-337,-254,-165,-142,-130,-119,-125,-115,-116,-119,-115,-114,-104,-111,-108,-104,-102,-100,-99,-88,-82,-77,-72,-60,-52
2019-05-16,10:56:32.652,-43,-31,-23,-22,-14,-14,-10,-15,-34,-52,-65,-76,-93,-103,-106,-105,-110,-109,-116,-122,-117,-116,-118,-119,-110,-108,-110,-110,-104,-106,-98,-105,-97,-102,-108,-107,-107,-104,-102,-99,-106,-104,-107,-109,-99,-94,-96,-89,-82,-81,-82,-80,-79,-74,-60,-64,-58,-45,-31,-40,-50,-55,-70,-73,-76,-80,-84,-79,-79,-89,-87,-82,-87,-79,-95,-97,27,124,176,-41,-260,-304,-270,-192,-108,-86,-86,-81,-75,-75,-71,-72,-71,-63,-57,-61,-55,-50,-42,-44,-43,-33,-26,-16,-6,-3,4,17,21,30,33,35,32,30,9,-1,-12,-29,-46,-57,-60,-62,-70,-70,-66,-69,-68,-68
2019-05-16,10:56:33.680,-65,-72,-66,-64,-64,-63,-66,-62,-57,-55,-60,-73,-67,-61,-67,-64,-63,-67,-66,-50,-63,-71,-59,-62,-57,-64,-69,-63,-56,-54,-43,-37,-27,-24,-30,-33,-38,-46,-60,-51,-55,-60,-66,-65,-63,-63,-61,-63,-61,-75,-64,50,145,193,-22,-221,-257,-219,-142,-67,-46,-36,-28,-21,-15,-19,-12,-11,-11,-3,0,2,1,12,19,17,19,31,34,54,64,74,87,96,107,113,112,113,97,94,76,58,49,41,27,28,30,27,19,20,21,24,16,28,32,36,37,47,49,52,43,50,58,59,58,62,58,60,60,53,58,58,57,61,56,62,70,72
2019-05-16,10:56:34.709,64,62,76,80,87,98,110,120,116,115,97,88,88,85,81,82,87,85,81,81,91,93,93,79,95,211,312,355,156,-46,-84,-50,30,98,117,130,134,142,145,150,145,157,161,154,169,172,171,180,182,189,194,203,215,224,238,252,259,272,277,283,285,291,288,263,252,236,222,215,205,202,212,214,207,205,206,208,213,201,209,207,212,214,215,221,227,236,238,239,241,240,244,250,252,252,250,259,254,255,258,263,257,265,271,266,271,274,281,288,293,297,310,319,320,316,308,298,290,292,297,291,294,292,297,301,300,304,301,293
2019-05-16,10:56:35.737,302,437,560,604,376,139,93,149,248,299,322,323,328,332,344,339,345,351,356,360,359,366,370,371,375,382,387,394,399,405,412,426,440,454,459,467,473,480,475,462,441,429,415,405,400,390,389,392,395,392,386,386,393,389,385,391,391,397,399,399,402,400,411,412,417,422,418,422,426,419,420,426,425,418,422,427,427,425,428,430,429,432,430,427,429,438,434,442,453,448,456,470,461,447,444,431,425,421,424,414,413,415,418,411,410,416,405,391,395,523,654,700,483,214,180,237,345,387,398,401,400,403,400,399,408,406,407,411
2019-05-16,10:56:36.765,418,427,413,422,422,413,420,427,429,435,445,454,469,480,479,488,490,492,487,473,458,438,426,412,402,391,385,387,387,376,377,378,373,377,377,366,366,363,359,359,362,356,360,366,365,367,368,371,375,368,365,364,364,358,361,357,358,358,361,355,360,358,356,362,359,353,360,366,364,369,378,386,394,396,387,381,364,351,353,353,351,344,345,350,347,345,348,345,343,325,387,537,642,583,263,115,134,218,306,334,339,347,347,349,355,350,352,351,357,355,355,357,357,359,370,365,360,370,368,378,384,394,402,421,422,425,425,428
2019-05-16,10:56:37.793,416,404,391,369,350,343,337,329,327,319,317,318,319,319,315,312,317,304,307,308,311,317,316,311,318,319,321,318,323,321,322,322,323,323,309,314,315,317,309,312,313,314,312,318,312,311,311,312,311,310,308,322,324,323,331,341,338,338,341,331,317,305,312,305,303,308,302,303,304,306,305,303,281,287,405,541,614,378,109,71,121,232,280,293,298,308,304,300,306,305,303,306,303,306,301,311,314,314,323,322,323,329,337,349,351,362,368,372,377,380,373,371,364,352,329,317,307,294,339,439,535,590,611,554,459,449,444,423
2019-05-16,10:56:38.821,388,345,308,267,245,236,231,226,225,229,224,224,234,235,225,227,225,224,226,224,224,226,230,233,241,235,250,257,271,282,291,305,317,312,316,318,312,307,297,285,273,265,260,252,245,247,244,245,235,234,234,238,237,229,234,237,236,228,231,232,225,228,234,237,237,221,284,429,528,436,116,21,25,98,204,238,242,254,261,261,271,273,277,277,282,276,283,289,288,289,296,299,314,313,326,327,332,338,341,347,345,352,351,342,343,321,308,302,290,281,278,281,283,278,279,285,293,295,287,287,297,300,296,295,297,303,296,294
2019-05-16,10:56:39.849,291,288,283,288,281,282,291,290,289,291,293,308,312,311,315,329,337,329,326,318,311,310,315,309,309,305,315,312,312,323,319,319,317,306,401,516,613,494,209,138,149,228,317,356,366,372,378,381,386,397,405,405,412,416,424,419,441,447,455,456,468,475,480,488,494,511,518,521,522,529,535,524,516,508,501,489,472,466,463,459,464,465,463,467,466,467,477,479,479,490,486,485,495,500,500,499,500,504,506,507,507,508,507,519,518,515,515,513,518,526,530,530,531,533,538,544,543,552,553,552,558,565,569,576,580,584,594,601
2019-05-16,10:56:40.877,600,599,592,577,574,574,572,566,566,563,568,564,563,565,564,545,596,736,864,836,522,336,353,442,539,562,573,574,583,583,581,584,596,599,593,592,597,598,599,601,597,600,601,595,604,617,624,630,642,626,629,631,631,629,622,609,593,574,562,553,538,530,524,519,517,514,518,521,512,511,509,509,515,511,511,515,512,509,510,513,511,509,523,513,509,501,502,502,495,490,489,490,491,489,484,487,491,485,479,476,468,469,468,466,464,469,469,474,480,486,493,488,474,462,451,438,437,434,426,422,420,413,412,413,406,413,382,407
2019-05-16,10:56:41.905,562,696,694,370,158,163,244,358,381,389,393,396,399,396,405,399,402,399,402,408,408,403,402,407,410,413,416,420,430,438,438,447,461,459,460,457,449,442,431,417,402,383,365,356,348,344,344,343,350,337,331,331,334,331,327,322,329,333,334,328,323,331,328,325,327,313,308,306,309,308,304,301,296,293,289,290,295,296,283,290,292,288,289,294,293,303,308,311,322,333,345,352,348,340,335,321,322,326,324,323,320,326,329,337,342,343,343,322,369,512,611,595,301,160,146,208,320,374,379,395,395,408,418,423,435,441,449,460
2019-05-16,10:56:42.933,462,476,485,489,498,511,519,529,543,560,577,590,609,620,631,640,646,650,647,637,626,625,614,603,592,598,609,614,619,619,626,634,643,660,667,681,699,713,727,742,758,777,796,821,841,861,888,923,966,1011,1064,1136,1201,1265,1305,1328,1354,1370,1389,1406,1423,1432,1441,1462,1475,1487,1502,1521,1534,1533,1537,1536,1534,1537,1540,1547,1552,1560,1562,1561,1569,1569,1574,1574,1570,1576,1696,1796,1839,1625,1431,1397,1432,1515,1589,1613,1618,1626,1635,1644,1658,1661,1663,1674,1675,1680,1688,1693,1703,1707,1719,1723,1728,1740,1757,1776,1787,1797,1808,1816,1820,1819,1820,1809,1793,1779,1764,1754
2019-05-16,10:56:43.961,1743,1732,1731,1732,1721,1715,1714,1712,1709,1707,1706,1705,1702,1710,1702,1706,1703,1702,1700,1704,1696,1692,1688,1685,1681,1677,1675,1673,1666,1666,1660,1655,1648,1650,1644,1645,1643,1637,1629,1637,1638,1633,1635,1646,1646,1643,1630,1624,1610,1595,1590,1583,1578,1574,1570,1570,1559,1549,1542,1540,1530,1508,1586,1710,1793,1669,1352,1256,1282,1364,1443,1458,1455,1461,1458,1455,1445,1443,1433,1426,1416,1413,1413,1412,1403,1396,1397,1393,1392,1389,1390,1389,1401,1412,1414,1414,1416,1415,1400,1398,1375,1354,1329,1306,1285,1268,1263,1252,1230,1228,1226,1212,1200,1192,1184,1173,1170,1159,1153,1155,1147,1142,1136,1137,1132,1128,1121,1107
2019-05-16,10:56:44.989,1110,1110,1101,1091,1086,1089,1076,1067,1069,1055,1052,1050,1049,1039,1032,1037,1023,1009,1005,1015,1011,1005,1010,1012,1016,1005,998,985,962,939,934,936,924,922,915,910,904,903,900,891,871,877,1027,1174,1199,906,638,629,699,815,849,861,867,859,865,865,870,874,879,874,877,875,874,872,871,868,872,875,884,891,895,904,916,921,920,933,937,938,937,938,924,911,892,873,863,853,843,839,836,834,845,852,853,844,847,853,853,865,870,862,875,883,889,896,904,910,921,918,919,922,924,933,934,939,943,955,965,964,974,979,977,984,1000,998,1009,1023,1053,1077
2019-05-16,10:56:46.017,1116,1163,1218,1308,1437,1533,1585,1605,1624,1637,1649,1657,1670,1679,1693,1701,1708,1710,1711,1689,1723,1874,2019,2028,1699,1475,1481,1561,1679,1716,1726,1744,1740,1751,1752,1758,1763,1769,1774,1785,1791,1799,1819,1860,1899,1945,2005,2080,2136,2179,2216,2239,2248,2255,2261,2259,2244,2231,2217,2194,2164,2135,2103,2075,2054,2034,2007,1996,1997,1975,1968,1965,1958,1950,1948,1938,1936,1933,1940,1943,1946,1953,1950,1955,1965,1960,1969,1976,1982,1983,2006,2041,2079,2103,2145,2166,2187,2199,2205,2204,2200,2201,2198,2188,2187,2190,2179,2180,2181,2180,2172,2158,2142,2126,2117,2105,2095,2105,2109,2116,2186,2319,2393,2428,2441,2431,2391,2480
2019-05-16,10:56:47.045,2614,2702,2531,2157,2048,2074,2171,2248,2248,2238,2222,2205,2179,2172,2179,2164,2152,2139,2135,2123,2116,2103,2108,2122,2105,2101,2085,2079,2081,2089,2095,2097,2095,2105,2102,2098,2086,2070,2050,2033,2005,1995,1979,1964,1957,1958,1950,1952,1932,1922,1923,1918,1915,1911,1920,1918,1925,1928,1930,1931,1932,1946,1951,1957,1972,1998,2022,2056,2105,2162,2199,2215,2249,2257,2264,2270,2272,2264,2259,2270,2331,2473,2567,2618,2636,2630,2626,2611,2580,2563,2558,2549,2540,2526,2515,2508,2500,2489,2483,2480,2465,2439,2534,2643,2715,2553,2255,2177,2188,2260,2350,2375,2382,2372,2369,2368,2363,2349,2348,2340,2336,2326,2328,2330,2323,2316,2309,2318
2019-05-16,10:56:48.073,2314,2320,2310,2316,2315,2318,2321,2321,2313,2322,2312,2289,2281,2253,2220,2207,2184,2167,2156,2147,2141,2131,2129,2120,2114,2118,2106,2109,2111,2113,2107,2105,2102,2096,2086,2076,2076,2071,2054,2054,2047,2035,2031,2017,2002,1999,1976,1951,1948,1940,1932,1924,1922,1921,1916,1917,1917,1930,1927,1910,1900,1882,1869,1860,1848,1845,1840,1843,1827,1825,1823,1813,1811,1812,1781,1873,2004,2094,1958,1633,1538,1555,1638,1753,1769,1784,1787,1791,1789,1795,1797,1799,1799,1815,1825,1825,1830,1842,1842,1838,1839,1843,1848,1851,1851,1860,1871,1863,1864,1869,1863,1854,1846,1823,1800,1781,1757,1733,1714,1711,1692,1677,1667,1660,1658,1651,1642,1640
2019-05-16,10:56:49.101,1631,1627,1617,1609,1611,1604,1601,1598,1590,1583,1577,1569,1575,1560,1549,1544,1531,1523,1517,1502,1508,1501,1485,1482,1467,1459,1453,1451,1456,1451,1453,1460,1452,1441,1436,1418,1392,1377,1374,1365,1354,1334,1337,1329,1320,1310,1313,1302,1276,1273,1399,1536,1577,1313,1028,989,1037,1119,1136,1141,1134,1134,1133,1130,1119,1118,1109,1105,1096,1096,1092,1092,1088,1085,1086,1086,1073,1080,1080,1085,1090,1101,1103,1111,1112,1106,1083,1051,1025,1003,970,944,938,915,902,888,881,885,866,863,853,846,839,829,822,817,813,810,806,813,798,799,793,789,787,779,769,766,764,758,743,753,738,728,714,710,703,696
2019-05-16,10:56:50.129,694,693,683,682,682,686,679,695,693,687,678,668,649,635,629,617,615,612,610,609,596,594,593,589,578,554,646,797,906,754,406,310,334,435,523,536,544,546,542,551,553,552,538,536,540,530,534,533,529,532,542,536,533,531,538,543,554,563,564,568,589,569,566,568,546,525,504,482,461,450,441,444,428,422,431,425,416,412,409,407,397,408,397,395,397,391,393,388,389,387,382,380,374,375,375,369,361,356,354,350,351,344,337,343,340,333,330,327,328,330,335,339,337,347,344,339,322,307,296,290,286,280,277,272,269,268,259,257
2019-05-16,10:56:51.157,261,245,222,332,475,568,370,50,-22,30,132,204,212,218,217,224,229,222,222,219,221,225,217,216,221,223,220,233,227,230,241,248,255,264,274,276,286,297,284,283,281,267,241,224,195,187,177,166,157,157,156,148,143,143,131,129,130,121,130,130,126,125,121,125,119,116,119,126,119,120,114,113,106,103,96,103,105,84,92,86,83,80,77,81,78,86,83,82,90,99,97,83,84,72,55,45,41,40,36,25,24,17,19,17,7,9,-14,25,162,266,251,-62,-230,-249,-180,-82,-29,-21,-21,-16,-15,-20,-12,-15,-18,-25,-22,-28
2019-05-16,10:56:52.185,-24,-23,-24,-27,-25,-22,-19,-9,-11,-3,10,24,19,28,26,30,24,2,-17,-39,-62,-81,-91,-107,-113,-112,-132,-135,-130,-134,-144,-150,-151,-154,-155,-152,-152,-151,-153,-161,-154,-162,-166,-166,-167,-169,-175,-175,-184,-185,-191,-199,-208,-200,-204,-210,-218,-220,-206,-214,-213,-207,-202,-204,-208,-213,-223,-238,-243,-247,-252,-250,-264,-265,-271,-261,-273,-275,-272,-282,-288,-170,-75,-37,-267,-477,-525,-487,-404,-329,-311,-306,-301,-304,-296,-298,-300,-300,-306,-296,-298,-300,-299,-296,-299,-287,-292,-278,-275,-274,-270,-257,-247,-239,-236,-230,-234,-239,-251,-277,-298,-323,-343,-350,-366,-367,-380,-384
2019-05-16,10:56:53.213,-380,-382,-389,-385,-387,-403,-389,-391,-401,-392,-391,-394,-390,-389,-390,-387,-389,-390,-395,-399,-397,-406,-419,-415,-422,-417,-414,-415,-425,-427,-421,-430,-431,-426,-416,-419,-407,-396,-399,-412,-416,-428,-442,-448,-456,-449,-455,-453,-450,-458,-459,-456,-456,-461,-482,-419,-271,-174,-260,-566,-682,-673,-605,-507,-474,-461,-450,-456,-453,-462,-448,-448,-443,-444,-445,-444,-442,-439,-441,-439,-423,-419,-426,-408,-394,-395,-375,-368,-362,-358,-347,-348,-360,-366,-387,-411,-441,-450,-454,-463,-466,-476,-475,-469,-474,-475,-476,-477,-479,-480,-479,-477,-467,-468,-466,-463,-461,-451,-458,-455,-445,-447,-449,-441,-438,-442,-432,-431
2019-05-16,10:56:54.242,-430,-423,-420,-419,-417,-408,-410,-408,-402,-395,-381,-371,-367,-357,-330,-310,-316,-317,-307,-312,-322,-320,-309,-306,-296,-285,-286,-289,-266,-258,-254,-245,-259,-194,-39,92,62,-255,-414,-395,-310,-199,-152,-132,-117,-102,-91,-79,-64,-57,-44,-36,-15,-6,10,17,36,48,60,81,95,114,133,153,173,202,215,240,249,262,273,271,260,246,236,230,225,226,228,234,246,251,262,273,278,291,296,305,306,324,332,341,347,355,366,375,391,402,419,424,434,450,459,469,476,491,505,518,519,527,539,542,555,567,572,578,587,598,602,608,624,633,645,656,674,683,676,686
2019-05-16,10:56:55.270,674,677,676,672,680,687,688,691,688,694,701,708,710,696,697,826,975,1046,845,545,493,549,657,726,741,742,756,763,769,774,780,779,788,792,795,795,800,812,817,816,821,830,839,844,859,879,891,901,914,926,922,930,919,907,899,876,855,840,831,830,816,824,827,820,822,820,823,818,824,819,826,825,825,819,822,824,826,825,819,834,838,839,835,837,840,837,834,832,832,838,836,833,834,839,837,831,844,844,844,853,857,858,864,879,887,899,928,950,972,980,996,1004,1002,1013,1036,1031,1033,1025,1025,1013,1012,1006,996,1004,988,970,1074,1225
2019-05-16,10:56:56.298,1315,1132,791,718,762,861,942,945,950,959,953,947,949,948,946,939,954,944,940,939,944,945,950,949,946,956,960,964,974,989,992,1009,1014,1008,1013,1007,983,964,944,918,902,892,877,866,858,856,846,838,839,829,834,831,813,815,810,808,800,794,785,790,797,790,779,781,778,771,759,764,758,750,742,741,735,728,723,717,710,714,705,704,704,698,702,691,679,680,673,675,678,675,676,682,686,693,678,678,655,639,635,627,625,615,613,608,608,598,591,591,580,568,574,688,827,906,647,349,304,352,460,523,537,540,542,535,536,539,540,533
2019-05-16,10:56:57.326,536,543,541,525,536,533,538,543,541,553,557,562,573,590,598,606,630,638,645,657,660,647,640,636,627,624,634,651,653,665,664,676,687,699,710,712,728,748,750,770,795,809,830,851,863,873,881,890,902,913,921,925,923,924,932,936,938,943,942,952,950,953,951,959,961,967,965,970,964,969,967,968,969,980,978,984,992,1001,1016,1028,1029,1016,1012,1002,997,997,994,987,990,1002,1009,1004,1003,1008,1004,996,990,1106,1231,1319,1130,842,785,834,936,1012,1028,1036,1042,1048,1054,1059,1060,1060,1061,1081,1092,1084,1092,1092,1095,1100,1108,1118,1127,1133,1148,1168
2019-05-16,10:56:58.354,1177,1193,1208,1219,1220,1226,1229,1218,1206,1204,1185,1176,1181,1185,1189,1205,1216,1250,1277,1286,1296,1293,1301,1290,1284,1291,1289,1286,1289,1287,1282,1282,1278,1279,1275,1275,1273,1263,1256,1251,1246,1242,1233,1225,1224,1227,1224,1217,1221,1218,1220,1219,1220,1218,1238,1237,1245,1251,1253,1269,1269,1258,1262,1257,1240,1234,1235,1226,1218,1219,1218,1221,1218,1220,1224,1223,1208,1277,1410,1502,1427,1131,1021,1026,1099,1212,1261,1277,1283,1290,1295,1299,1302,1298,1290,1298,1300,1306,1296,1295,1298,1298,1308,1311,1311,1316,1326,1349,1357,1365,1371,1377,1387,1389,1379,1360,1346,1318,1295,1286,1272,1259,1254,1257,1245,1251,1261,1267
2019-05-16,10:56:59.382,1285,1298,1293,1299,1311,1321,1313,1330,1342,1343,1350,1352,1356,1354,1351,1349,1355,1351,1343,1333,1339,1323,1310,1301,1292,1270,1267,1261,1249,1235,1239,1236,1228,1216,1216,1214,1219,1212,1197,1176,1160,1168,1217,1230,1238,1226,1216,1209,1195,1189,1176,1166,1147,1142,1265,1375,1389,1128,859,831,893,1005,1045,1044,1037,1029,1015,1012,1007,997,989,984,974,966,956,949,944,948,933,922,917,919,926,922,919,928,922,926,926,918,911,903,883,850,823,801,787,757,750,738,731,727,720,705,703,694,682,670,671,660,661,652,645,630,628,624,615,615,603,601,594,599,592,584,581,576,567,563
2019-05-16,10:57:00.410,578,573,559,564,569,572,575,576,575,586,584,574,562,545,521,507,501,484,473,465,451,443,439,428,429,428,397,443,580,691,636,293,124,145,222,331,357,369,365,366,364,366,365,357,357,355,355,354,351,352,347,349,351,353,359,363,375,382,395,416,427,429,435,438,436,429,423,404,384,366,354,344,318,296,286,277,279,280,264,264,262,253,252,259,248,242,252,251,245,245,245,241,235,237,236,233,232,230,225,221,223,219,216,213,208,203,209,220,230,237,239,245,263,258,254,236,218,221,214,210,213,223,214,209,211,205,208,215
2019-05-16,10:57:01.438,207,185,301,441,533,364,35,-27,28,129,220,235,246,259,267,274,277,287,290,296,314,323,331,344,346,362,368,379,399,419,435,454,472,495,527,545,557,571,573,583,587,580,575,570,565,570,577,579,588,611,623,624,635,652,661,681,677,685,700,714,729,734,741,748,755,767,779,780,779,792,802,808,814,817,824,831,839,844,848,863,875,888,895,918,932,963,972,967,972,969,962,976,978,989,1002,1008,1013,1025,1032,1046,1060,1066,1074,1080,1197,1318,1381,1203,963,930,968,1056,1162,1198,1216,1236,1248,1266,1281,1297,1317,1329,1340,1351,1366,1378,1393,1404
2019-05-16,10:57:02.466,1416,1439,1447,1470,1492,1513,1541,1573,1601,1627,1648,1663,1673,1670,1667,1651,1644,1627,1622,1616,1618,1631,1638,1640,1650,1644,1629,1622,1615,1605,1593,1590,1582,1583,1591,1590,1581,1578,1580,1577,1564,1551,1552,1548,1542,1536,1534,1532,1520,1518,1544,1563,1564,1574,1572,1578,1584,1597,1597,1586,1570,1558,1544,1528,1512,1575,1665,1680,1682,1690,1684,1678,1676,1668,1656,1655,1758,1858,1900,1696,1460,1418,1451,1520,1591,1597,1595,1590,1594,1586,1577,1574,1569,1564,1546,1545,1539,1535,1537,1531,1525,1523,1517,1526,1530,1545,1552,1561,1570,1582,1568,1560,1550,1530,1496,1463,1434,1415,1380,1358,1345,1332,1315,1303,1288,1277,1264,1251
2019-05-16,10:57:03.494,1233,1230,1219,1214,1207,1197,1192,1186,1185,1179,1163,1158,1146,1140,1124,1115,1110,1097,1088,1083,1072,1065,1049,1044,1034,1033,1030,1019,1023,1026,1026,1015,1003,987,978,966,957,945,938,930,921,906,908,897,890,886,870,848,923,1047,1118,995,690,600,608,679,759,774,776,772,775,768,752,762,752,746,734,731,723,718,708,700,703,705,698,693,693,695,698,705,714,712,718,721,713,705,696,682,663,647,639,635,635,633,637,636,628,628,622,617,625,616,613,614,618,614,619,618,621,621,623,604,610,604,605,606,610,608,615,622,630,630,629,636,643,653,654,653
2019-05-16,10:57:04.522,668,681,699,711,718,733,761,776,781,789,790,787,797,816,827,845,862,874,894,905,917,929,951,945,957,1094,1245,1305,1077,823,798,861,976,1044,1057,1078,1079,1098,1102,1108,1122,1127,1138,1145,1153,1169,1180,1190,1204,1212,1227,1240,1248,1270,1282,1314,1333,1348,1370,1380,1400,1410,1420,1403,1391,1373,1358,1355,1335,1320,1314,1311,1312,1309,1295,1298,1290,1287,1284,1283,1278,1278,1272,1266,1275,1270,1267,1265,1264,1263,1275,1279,1283,1289,1312,1313,1323,1355,1363,1370,1376,1383,1390,1397,1403,1408,1434,1430,1436,1449,1460,1478,1493,1501,1533,1549,1555,1557,1551,1552,1548,1537,1544,1558,1562,1554,1557,1563
2019-05-16,10:57:05.550,1575,1581,1590,1591,1608,1604,1646,1801,1961,2002,1739,1496,1482,1551,1687,1736,1765,1751,1758,1770,1784,1791,1796,1802,1770,1751,1743,1741,1741,1732,1748,1755,1757,1768,1782,1792,1797,1812,1829,1833,1840,1854,1856,1863,1863,1856,1850,1837,1826,1838,1836,1844,1851,1854,1844,1831,1824,1816,1805,1791,1782,1774,1772,1756,1742,1722,1708,1700,1684,1678,1673,1669,1666,1656,1628,1624,1617,1605,1587,1576,1572,1567,1560,1549,1542,1531,1528,1530,1526,1514,1488,1485,1482,1476,1472,1468,1463,1473,1475,1460,1444,1455,1460,1448,1441,1429,1416,1407,1402,1400,1395,1394,1397,1400,1395,1390,1391,1392,1392,1368,1454,1607,1720,1614,1266,1142,1190,1298
2019-05-16,10:57:06.578,1380,1411,1417,1428,1452,1465,1450,1457,1465,1458,1464,1459,1460,1467,1458,1470,1467,1460,1463,1453,1459,1448,1458,1468,1477,1475,1473,1472,1460,1443,1431,1411,1381,1357,1325,1307,1285,1284,1269,1271,1258,1244,1224,1207,1203,1204,1190,1185,1181,1179,1174,1171,1167,1163,1158,1161,1159,1151,1140,1140,1145,1128,1127,1116,1119,1108,1104,1112,1117,1119,1116,1127,1115,1121,1120,1127,1131,1147,1160,1170,1185,1220,1210,1263,1304,1337,1371,1402,1415,1417,1422,1421,1417,1433,1433,1432,1441,1440,1435,1450,1461,1468,1475,1481,1468,1525,1695,1852,1820,1465,1301,1327,1424,1532,1576,1591,1604,1624,1629,1658,1673,1692,1699,1717,1725,1729,1740,1764
2019-05-16,10:57:07.606,1768,1774,1783,1771,1787,1804,1825,1834,1844,1863,1883,1954,2001,2010,2017,2008,1990,1966,1941,1908,1879,1872,1867,1847,1850,1843,1841,1838,1839,1840,1856,1860,1864,1867,1851,1864,1874,1870,1875,1880,1882,1891,1890,1895,1901,1896,1906,1926,1956,1965,1972,1967,1973,1999,2000,1998,2001,2008,2001,1998,1997,2010,1999,2001,2006,2003,1993,1982,1949,1925,1911,1906,1907,1890,1861,1849,1823,1808,1799,1788,1776,1790,1805,1814,1800,1793,1771,1725,1687,1671,1790,1907,1972,1674,1407,1365,1435,1580,1630,1702,1737,1731,1727,1712,1699,1694,1697,1734,1761,1760,1779,1777,1783,1781,1791,1802,1816,1815,1810,1810,1829,1831,1818,1812,1808,1797,1787,1765
2019-05-16,10:57:08.634,1737,1712,1678,1642,1608,1581,1567,1553,1556,1549,1532,1524,1507,1495,1478,1470,1464,1436,1404,1384,1371,1364,1357,1353,1336,1325,1321,1311,1298,1287,1273,1266,1242,1233,1222,1206,1213,1212,1197,1195,1197,1193,1178,1176,1183,1174,1171,1158,1151,1136,1138,1131,1126,1137,1134,1132,1117,1105,1121,1098,1081,1063,1040,1031,1006,985,963,948,943,950,935,897,963,1068,1164,1071,748,626,613,633,703,724,736,717,700,685,687,671,651,640,636,622,607,594,592,584,569,565,577,573,574,565,570,572,573,569,569,563,565,545,531,516,492,461,437,411,403,389,377,365,353,342,332,320,309,307,302,298
2019-05-16,10:57:09.662,295,293,294,288,286,283,274,282,273,268,265,262,243,232,213,200,184,182,169,156,150,148,139,140,136,128,130,125,127,113,106,91,72,52,52,41,36,26,16,7,2,3,-13,-12,-24,-39,57,143,190,16,-208,-258,-249,-192,-120,-96,-107,-99,-103,-101,-113,-111,-111,-123,-121,-121,-127,-134,-137,-131,-124,-107,-104,-90,-84,-81,-54,-47,-48,-46,-49,-50,-62,-74,-97,-113,-133,-162,-191,-206,-211,-217,-231,-243,-244,-249,-252,-255,-260,-271,-269,-270,-269,-262,-210,-202,-207,-216,-222,-242,-243,-254,-259,-278,-277,-286,-296,-302,-310,-317,-317,-322,-335,-331,-338,-340,-340,-339
2019-05-16,10:57:10.690,-330,-332,-338,-355,-361,-376,-392,-403,-409,-426,-427,-442,-449,-457,-456,-467,-468,-473,-496,-446,-324,-232,-276,-573,-706,-720,-666,-575,-540,-529,-529,-533,-539,-541,-543,-551,-547,-557,-561,-564,-562,-557,-565,-559,-562,-556,-561,-551,-545,-544,-534,-535,-524,-523,-535,-521,-537,-547,-564,-590,-602,-613,-622,-641,-647,-654,-654,-659,-669,-672,-673,-683,-683,-687,-689,-695,-698,-693,-695,-692,-698,-695,-696,-697,-702,-710,-722,-706,-716,-728,-735,-731,-740,-743,-746,-749,-757,-758,-759,-759,-761,-751,-758,-753,-747,-748,-764,-776,-794,-814,-821,-831,-838,-836,-845,-860,-858,-864,-868,-873,-880,-912,-874,-730,-607,-633,-947,-1133
2019-05-16,10:57:11.718,-1141,-1079,-969,-944,-937,-932,-937,-936,-943,-942,-944,-947,-942,-946,-952,-951,-949,-952,-953,-954,-947,-947,-944,-941,-930,-926,-905,-906,-895,-893,-903,-902,-911,-926,-950,-973,-985,-1010,-1017,-1019,-1030,-1040,-1045,-1042,-1049,-1051,-1054,-1055,-1064,-1058,-1069,-1069,-1069,-1069,-1068,-1075,-1075,-1074,-1066,-1071,-1067,-1070,-1072,-1067,-1075,-1076,-1079,-1077,-1081,-1083,-1083,-1090,-1081,-1085,-1083,-1093,-1085,-1080,-1082,-1073,-1067,-1053,-1059,-1078,-1075,-1095,-1109,-1124,-1127,-1133,-1137,-1147,-1145,-1151,-1153,-1161,-1165,-1171,-1195,-1154,-1009,-870,-896,-1225,-1420,-1413,-1340,-1243,-1215,-1208,-1202,-1200,-1199,-1202,-1205,-1204,-1209,-1217,-1208,-1207,-1219,-1215,-1213,-1216,-1221,-1207,-1211,-1210
2019-05-16,10:57:12.747,-1202,-1193,-1180,-1181,-1174,-1169,-1165,-1161,-1160,-1171,-1192,-1206,-1232,-1250,-1265,-1282,-1282,-1291,-1299,-1296,-1303,-1301,-1303,-1307,-1303,-1302,-1324,-1315,-1315,-1322,-1327,-1324,-1324,-1325,-1329,-1327,-1323,-1325,-1332,-1334,-1331,-1339,-1336,-1336,-1342,-1346,-1343,-1338,-1344,-1352,-1357,-1358,-1371,-1384,-1387,-1389,-1374,-1377,-1372,-1370,-1366,-1361,-1355,-1361,-1364,-1365,-1386,-1394,-1398,-1395,-1401,-1407,-1408,-1414,-1430,-1414,-1413,-1410,-1419,-1449,-1390,-1240,-1109,-1155,-1489,-1661,-1651,-1573,-1462,-1438,-1435,-1432,-1427,-1424,-1418,-1427,-1420,-1419,-1421,-1422,-1415,-1425,-1419,-1422,-1416,-1417,-1409,-1406,-1400,-1389,-1381,-1373,-1352,-1341,-1336,-1325,-1324,-1329,-1334,-1348,-1365,-1394,-1401,-1412,-1415,-1427,-1439,-1435
2019-05-16,10:57:13.775,-1444,-1444,-1447,-1449,-1447,-1451,-1444,-1443,-1446,-1453,-1446,-1457,-1453,-1451,-1452,-1451,-1450,-1453,-1450,-1453,-1452,-1454,-1464,-1460,-1458,-1463,-1457,-1456,-1455,-1460,-1467,-1459,-1457,-1453,-1436,-1439,-1436,-1434,-1449,-1444,-1434,-1431,-1420,-1411,-1408,-1405,-1410,-1405,-1425,-1431,-1444,-1447,-1451,-1448,-1450,-1449,-1445,-1437,-1443,-1430,-1437,-1445,-1467,-1378,-1224,-1106,-1217,-1562,-1671,-1637,-1544,-1463,-1446,-1437,-1430,-1423,-1417,-1414,-1413,-1415,-1417,-1416,-1415,-1418,-1403,-1406,-1402,-1398,-1397,-1386,-1387,-1382,-1370,-1354,-1343,-1328,-1316,-1306,-1301,-1303,-1305,-1312,-1332,-1355,-1373,-1390,-1399,-1412,-1417,-1413,-1423,-1423,-1427,-1428,-1425,-1432,-1439,-1433,-1432,-1429,-1429,-1422,-1428,-1424,-1419,-1414,-1404,-1403
2019-05-16,10:57:14.803,-1400,-1396,-1401,-1402,-1405,-1395,-1390,-1393,-1400,-1400,-1397,-1393,-1398,-1398,-1395,-1401,-1403,-1400,-1402,-1400,-1405,-1405,-1406,-1395,-1391,-1402,-1399,-1390,-1381,-1390,-1395,-1393,-1408,-1422,-1420,-1423,-1423,-1416,-1427,-1424,-1426,-1424,-1421,-1421,-1433,-1454,-1380,-1222,-1075,-1169,-1524,-1663,-1645,-1549,-1454,-1419,-1410,-1411,-1403,-1404,-1403,-1383,-1388,-1390,-1396,-1391,-1391,-1387,-1380,-1375,-1371,-1368,-1361,-1347,-1347,-1341,-1324,-1314,-1295,-1279,-1272,-1273,-1263,-1266,-1280,-1287,-1303,-1328,-1345,-1348,-1360,-1372,-1377,-1366,-1370,-1371,-1357,-1291,-1164,-1068,-1035,-1063,-1172,-1292,-1293,-1250,-1234,-1224,-1230,-1275,-1329,-1353,-1368,-1373,-1374,-1366,-1364,-1368,-1369,-1361,-1362,-1362,-1354,-1354,-1355,-1352,-1351,-1351
2019-05-16,10:57:15.831,-1341,-1338,-1329,-1329,-1311,-1291,-1273,-1243,-1206,-1180,-1161,-1151,-1164,-1177,-1212,-1226,-1231,-1240,-1256,-1269,-1270,-1268,-1271,-1272,-1267,-1273,-1271,-1274,-1272,-1277,-1276,-1273,-1270,-1271,-1276,-1263,-1259,-1266,-1263,-1265,-1270,-1286,-1183,-1010,-905,-1106,-1459,-1526,-1473,-1350,-1272,-1253,-1244,-1236,-1243,-1228,-1228,-1221,-1216,-1219,-1209,-1207,-1207,-1202,-1199,-1194,-1191,-1182,-1180,-1167,-1151,-1157,-1150,-1134,-1134,-1133,-1125,-1120,-1126,-1133,-1150,-1172,-1178,-1199,-1201,-1203,-1205,-1199,-1201,-1200,-1192,-1190,-1189,-1192,-1186,-1181,-1180,-1175,-1178,-1170,-1173,-1172,-1166,-1162,-1164,-1166,-1172,-1165,-1158,-1154,-1162,-1155,-1147,-1146,-1137,-1127,-1111,-1113,-1121,-1119,-1123,-1134,-1139,-1140,-1143,-1142,-1141,-1138
2019-05-16,10:57:16.859,-1138,-1146,-1137,-1126,-1134,-1128,-1154,-1086,-953,-860,-924,-1230,-1334,-1340,-1270,-1171,-1127,-1117,-1115,-1100,-1108,-1087,-1094,-1088,-1088,-1086,-1081,-1082,-1078,-1075,-1067,-1057,-1056,-1048,-1037,-1023,-1011,-1012,-1004,-996,-992,-983,-981,-980,-991,-997,-1012,-1025,-1036,-1051,-1067,-1066,-1066,-1075,-1077,-1077,-1074,-1068,-1057,-1060,-1059,-1054,-1057,-1056,-1048,-1049,-1046,-1040,-1039,-1043,-1034,-1036,-1028,-1032,-1034,-1037,-1034,-1031,-1031,-1029,-1028,-1025,-1027,-1023,-1017,-1008,-1009,-1009,-1002,-985,-976,-985,-984,-994,-1000,-992,-995,-1002,-1005,-1005,-1006,-1002,-1003,-998,-1000,-986,-988,-1009,-916,-798,-707,-834,-1113,-1184,-1187,-1109,-1008,-982,-973,-965,-956,-956,-952,-942,-939,-931,-929,-929
2019-05-16,10:57:17.887,-929,-922,-912,-906,-909,-901,-893,-880,-868,-856,-843,-835,-827,-814,-809,-802,-800,-812,-829,-849,-861,-880,-891,-894,-895,-904,-906,-904,-909,-914,-913,-907,-902,-909,-896,-889,-887,-888,-886,-882,-879,-874,-874,-868,-869,-868,-865,-867,-865,-865,-867,-872,-861,-857,-865,-866,-856,-855,-855,-853,-846,-846,-830,-826,-819,-813,-808,-805,-821,-826,-834,-835,-830,-831,-839,-834,-830,-837,-835,-832,-816,-835,-850,-751,-609,-508,-650,-973,-1055,-1021,-936,-841,-826,-809,-805,-788,-775,-767,-760,-759,-752,-746,-750,-731,-731,-727,-717,-712,-712,-705,-691,-677,-668,-657,-634,-631,-617,-612,-608,-611,-617,-627,-643,-660,-678,-695,-699,-702
2019-05-16,10:57:18.915,-703,-708,-710,-703,-706,-701,-707,-706,-705,-700,-706,-711,-700,-704,-696,-695,-689,-684,-685,-696,-696,-692,-694,-701,-696,-697,-699,-697,-686,-696,-698,-694,-691,-694,-697,-695,-689,-681,-679,-666,-668,-662,-653,-657,-663,-676,-701,-706,-707,-706,-719,-718,-710,-709,-710,-709,-703,-704,-719,-735,-614,-469,-385,-569,-884,-953,-911,-799,-728,-716,-707,-706,-697,-695,-687,-686,-684,-687,-684,-686,-684,-675,-680,-678,-661,-663,-657,-646,-643,-628,-618,-599,-596,-591,-575,-574,-571,-577,-591,-602,-621,-644,-656,-661,-666,-668,-671,-670,-666,-677,-680,-679,-679,-678,-673,-673,-679,-673,-677,-674,-676,-668,-660,-657,-658,-664,-661,-658
2019-05-16,10:57:19.943,-657,-658,-642,-625,-619,-617,-618,-623,-624,-622,-627,-623,-615,-614,-624,-616,-610,-603,-603,-599,-590,-578,-566,-570,-579,-585,-601,-607,-606,-606,-614,-618,-611,-614,-615,-623,-607,-603,-608,-627,-544,-391,-274,-409,-750,-858,-815,-711,-632,-617,-605,-609,-604,-595,-598,-591,-588,-580,-578,-582,-575,-572,-575,-580,-570,-565,-562,-550,-545,-536,-519,-505,-497,-480,-478,-473,-478,-481,-491,-515,-532,-551,-565,-580,-583,-582,-591,-598,-587,-593,-597,-597,-591,-595,-593,-599,-597,-594,-599,-602,-594,-594,-595,-585,-581,-586,-584,-580,-578,-575,-580,-582,-568,-582,-575,-575,-585,-580,-581,-592,-584,-585,-584,-585,-583,-585,-589,-581
2019-05-16,10:57:20.971,-578,-573,-556,-548,-545,-546,-554,-553,-567,-580,-575,-578,-578,-577,-573,-572,-578,-582,-585,-582,-572,-608,-517,-361,-246,-363,-708,-823,-798,-694,-613,-579,-572,-565,-573,-562,-554,-555,-554,-545,-541,-542,-539,-535,-528,-527,-517,-517,-514,-511,-494,-462,-438,-427,-412,-403,-397,-397,-393,-400,-408,-425,-449,-470,-489,-494,-495,-509,-514,-510,-519,-515,-513,-512,-518,-517,-515,-520,-517,-512,-524,-523,-512,-512,-510,-508,-508,-509,-511,-498,-506,-504,-505,-511,-511,-506,-504,-505,-504,-502,-506,-509,-507,-503,-510,-501,-506,-501,-496,-500,-492,-481,-469,-468,-476,-465,-475,-491,-503,-503,-506,-509,-503,-506,-509,-513,-497,-502
2019-05-16,10:57:21.999,-492,-516,-514,-379,-229,-170,-450,-720,-747,-687,-570,-515,-503,-488,-488,-494,-474,-477,-476,-475,-472,-470,-474,-474,-469,-469,-466,-458,-461,-447,-442,-436,-426,-421,-404,-387,-386,-383,-382,-388,-394,-418,-437,-453,-473,-492,-500,-506,-514,-516,-517,-523,-524,-523,-518,-523,-526,-525,-526,-521,-525,-521,-523,-517,-524,-510,-506,-508,-510,-510,-504,-509,-509,-508,-512,-513,-508,-508,-516,-511,-503,-503,-508,-500,-507,-496,-499,-500,-502,-492,-485,-482,-478,-463,-456,-457,-456,-466,-478,-488,-495,-496,-498,-493,-493,-494,-497,-498,-495,-493,-494,-521,-424,-273,-171,-241,-564,-676,-672,-604,-507,-465,-456,-451,-445,-437,-435,-440
2019-05-16,10:57:23.027,-426,-427,-425,-428,-419,-420,-419,-410,-398,-400,-393,-388,-386,-372,-362,-346,-338,-335,-318,-316,-316,-319,-327,-349,-363,-387,-408,-419,-425,-426,-432,-429,-436,-433,-441,-443,-438,-441,-445,-442,-439,-440,-431,-431,-433,-430,-425,-422,-422,-416,-419,-424,-424,-427,-427,-421,-429,-423,-424,-424,-422,-420,-418,-420,-422,-421,-420,-412,-410,-405,-399,-383,-375,-383,-386,-395,-414,-415,-410,-409,-424,-421,-420,-421,-420,-417,-425,-426,-423,-444,-376,-243,-154,-227,-524,-624,-629,-564,-472,-435,-414,-411,-408,-408,-397,-398,-395,-393,-388,-397,-392,-386,-378,-379,-381,-377,-363,-357,-345,-338,-327,-315,-301,-290,-280,-288,-281,-279
2019-05-16,10:57:24.055,-300,-318,-335,-364,-375,-386,-398,-398,-403,-407,-405,-405,-405,-412,-415,-414,-404,-409,-416,-408,-402,-397,-393,-401,-393,-388,-393,-392,-394,-393,-396,-393,-393,-395,-399,-396,-388,-396,-394,-389,-395,-403,-389,-391,-394,-389,-399,-385,-388,-381,-375,-367,-354,-355,-353,-361,-376,-384,-384,-392,-390,-395,-393,-397,-398,-396,-398,-405,-394,-406,-392,-251,-125,-102,-388,-606,-626,-568,-456,-407,-392,-391,-390,-382,-381,-384,-378,-371,-371,-369,-364,-366,-363,-358,-355,-356,-350,-340,-335,-326,-309,-305,-287,-279,-274,-271,-263,-261,-271,-282,-307,-317,-336,-346,-353,-363,-363,-378,-370,-370,-370,-373,-371,-375,-379,-377,-378,-374
2019-05-16,10:57:25.083,-375,-374,-373,-370,-369,-361,-363,-369,-363,-354,-359,-368,-372,-358,-363,-367,-366,-371,-373,-366,-365,-370,-373,-372,-371,-371,-374,-375,-378,-373,-382,-379,-374,-373,-367,-368,-347,-349,-345,-352,-363,-376,-386,-385,-389,-391,-392,-385,-387,-389,-390,-389,-392,-407,-395,-251,-100,-75,-356,-611,-621,-559,-456,-406,-390,-392,-385,-375,-370,-379,-355,-333,-335,-330,-333,-335,-326,-323,-316,-318,-322,-309,-304,-292,-286,-294,-288,-276,-272,-266,-252,-263,-262,-280,-300,-314,-324,-339,-351,-358,-359,-358,-355,-364,-365,-358,-360,-358,-356,-358,-363,-359,-359,-360,-368,-360,-358,-360,-351,-345,-347,-347,-346,-339,-341,-336,-336,-347
2019-05-16,10:57:26.111,-342,-337,-335,-334,-335,-337,-333,-334,-340,-332,-341,-345,-337,-330,-334,-329,-326,-316,-314,-321,-314,-290,-286,-304,-302,-302,-323,-331,-328,-329,-332,-330,-329,-323,-326,-329,-328,-329,-345,-339,-206,-63,3,-249,-526,-568,-504,-395,-341,-326,-310,-312,-306,-309,-307,-299,-294,-292,-298,-295,-294,-288,-277,-288,-277,-274,-270,-263,-262,-249,-226,-220,-214,-199,-192,-195,-195,-193,-205,-222,-235,-252,-268,-282,-287,-295,-300,-298,-295,-288,-291,-285,-291,-289,-290,-303,-296,-290,-292,-294,-283,-285,-272,-271,-283,-274,-285,-275,-272,-278,-268,-273,-268,-272,-271,-281,-283,-275,-273,-274,-263,-267,-272,-265,-262,-272,-270,-268
2019-05-16,10:57:27.139,-268,-258,-252,-252,-244,-232,-224,-223,-226,-231,-249,-258,-260,-260,-259,-267,-268,-264,-267,-263,-267,-268,-277,-295,-211,-62,64,-38,-390,-505,-476,-394,-298,-268,-259,-246,-242,-250,-253,-238,-240,-240,-241,-240,-230,-234,-227,-227,-226,-219,-211,-206,-199,-195,-167,-133,-116,-105,-98,-93,-99,-99,-96,-117,-159,-187,-206,-220,-228,-226,-236,-232,-234,-238,-246,-241,-237,-241,-241,-243,-239,-237,-242,-234,-227,-233,-225,-224,-226,-217,-221,-222,-225,-222,-223,-221,-223,-225,-220,-206,-220,-222,-216,-213,-216,-219,-212,-215,-215,-224,-218,-205,-209,-199,-201,-196,-197,-187,-184,-193,-198,-205,-218,-222,-225,-227,-224,-221
2019-05-16,10:57:28.167,-225,-227,-232,-227,-220,-226,-232,-182,-42,80,114,-194,-398,-419,-365,-261,-229,-225,-220,-220,-209,-215,-201,-204,-201,-195,-193,-193,-192,-189,-183,-182,-180,-173,-167,-155,-149,-137,-130,-114,-103,-98,-88,-85,-89,-96,-111,-135,-142,-161,-172,-186,-194,-194,-196,-201,-202,-204,-195,-192,-194,-196,-200,-194,-195,-187,-186,-186,-184,-187,-185,-181,-179,-176,-173,-180,-181,-177,-184,-177,-177,-175,-173,-171,-145,-138,-140,-141,-133,-133,-139,-136,-128,-140,-150,-141,-130,-133,-136,-150,-162,-161,-164,-173,-170,-173,-174,-175,-175,-172,-177,-174,-168,-195,-147,-17,75,40,-255,-377,-384,-331,-227,-182,-172,-167,-156,-157
2019-05-16,10:57:29.195,-155,-139,-141,-144,-142,-132,-137,-129,-127,-121,-114,-112,-108,-101,-85,-74,-64,-54,-40,-30,-19,-25,-19,-24,-37,-54,-73,-93,-113,-116,-119,-97,-93,-96,-100,-104,-105,-109,-111,-107,-115,-135,-132,-143,-131,-132,-133,-131,-129,-128,-125,-120,-124,-125,-121,-129,-128,-131,-130,-129,-138,-131,-131,-130,-129,-130,-124,-123,-122,-119,-119,-112,-110,-104,-91,-87,-89,-90,-93,-104,-117,-121,-119,-117,-125,-127,-126,-126,-130,-129,-131,-135,-154,-75,65,173,101,-228,-353,-336,-261,-162,-137,-125,-105,-77,-68,-64,-62,-59,-67,-58,-58,-69,-90,-92,-75,-85,-81,-72,-72,-58,-51,-42,-27,-17,0,19
2019-05-16,10:57:30.223,7,7,5,-5,-24,-41,-61,-81,-90,-92,-100,-109,-117,-118,-109,-117,-117,-124,-118,-119,-111,-116,-126,-119,-114,-114,-114,-113,-104,-102,-104,-99,-100,-110,-105,-109,-111,-107,-108,-114,-113,-116,-108,-105,-108,-108,-110,-104,-106,-104,-98,-94,-96,-85,-76,-69,-68,-74,-79,-95,-109,-108,-101,-114,-107,-118,-117,-116,-114,-113,-112,-116,-136,-87,66,196,157,-176,-354,-353,-269,-163,-132,-124,-112,-111,-114,-100,-106,-107,-102,-98,-95,-95,-98,-90,-91,-91,-79,-80,-74,-60,-58,-49,-41,-30,-15,-5,1,-1,9,0,-16,-33,-51,-69,-79,-86,-95,-96,-106,-100,-103,-101,-104,-106,-110,-107
2019-05-16,10:57:31.252,-110,-107,-111,-104,-116,-118,-123,-122,-111,-107,-107,-109,-107,-103,-109,-111,-108,-103,-113,-114,-104,-109,-111,-109,-110,-114,-112,-123,-102,-117,-115,-103,-99,-98,-90,-78,-78,-79,-78,-90,-112,-113,-114,-125,-123,-118,-123,-128,-123,-129,-133,-120,-135,-161,-89,75,208,106,-249,-377,-346,-254,-164,-138,-132,-127,-120,-118,-112,-111,-113,-110,-112,-111,-112,-111,-99,-100,-102,-91,-87,-81,-77,-75,-67,-46,-36,-32,-18,-17,-12,-15,-28,-44,-60,-81,-91,-106,-120,-127,-129,-134,-136,-131,-133,-135,-139,-140,-139,-134,-144,-135,-140,-141,-140,-140,-136,-131,-129,-141,-126,-128,-130,-133,-135,-133,-136,-138
2019-05-16,10:57:32.280,-134,-131,-132,-138,-141,-138,-134,-136,-136,-135,-135,-142,-136,-119,-122,-115,-107,-99,-104,-112,-104,-123,-137,-139,-139,-148,-150,-154,-152,-151,-154,-146,-151,-156,-170,-171,-25,130,180,-95,-369,-404,-343,-226,-174,-151,-154,-148,-145,-142,-141,-137,-128,-138,-140,-135,-123,-124,-121,-126,-128,-119,-114,-109,-100,-91,-77,-67,-55,-53,-43,-44,-42,-46,-58,-78,-96,-113,-135,-142,-143,-150,-140,-156,-153,-151,-156,-158,-157,-158,-163,-158,-157,-158,-148,-150,-154,-144,-143,-149,-143,-143,-147,-144,-141,-149,-150,-143,-139,-146,-144,-150,-148,-149,-145,-148,-146,-153,-153,-145,-140,-131,-139,-134,-120,-116,-108,-117
2019-05-16,10:57:33.308,-125,-135,-141,-148,-148,-143,-151,-156,-159,-152,-152,-152,-157,-157,-180,-143,-11,92,102,-179,-357,-379,-325,-229,-174,-160,-152,-148,-141,-138,-140,-140,-127,-129,-130,-129,-124,-125,-116,-111,-109,-112,-110,-90,-83,-74,-67,-50,-43,-40,-29,-23,-29,-40,-54,-76,-106,-111,-122,-137,-140,-144,-145,-150,-149,-148,-142,-152,-149,-153,-151,-152,-145,-143,-142,-138,-134,-137,-136,-139,-135,-138,-135,-140,-137,-137,-137,-143,-140,-142,-140,-139,-139,-138,-143,-144,-139,-134,-133,-130,-123,-109,-104,-109,-112,-121,-133,-138,-136,-145,-144,-146,-147,-156,-149,-140,-142,-144,-151,-168,-78,37,113,-15,-280,-344,-342,-267
2019-05-16,10:57:34.336,-182,-154,-146,-143,-144,-140,-130,-120,-123,-125,-119,-123,-124,-116,-118,-110,-99,-96,-93,-83,-80,-68,-57,-44,-34,-27,-25,-18,-17,-28,-40,-60,-79,-96,-107,-122,-129,-140,-129,-136,-141,-145,-150,-148,-142,-153,-143,-142,-139,-141,-140,-142,-132,-129,-132,-136,-128,-139,-135,-132,-143,-143,-145,-140,-139,-134,-135,-143,-135,-137,-146,-141,-138,-136,-136,-129,-120,-110,-106,-112,-125,-134,-139,-136,-144,-144,-148,-151,-153,-147,-158,-163,-162,-146,-162,-179,-72,58,153,-13,-314,-397,-355,-272,-190,-166,-154,-154,-156,-145,-143,-146,-142,-133,-140,-135,-126,-130,-128,-121,-123,-116,-113,-101,-99,-93,-78,-62
2019-05-16,10:57:35.364,-50,-47,-46,-43,-38,-43,-52,-75,-99,-114,-130,-141,-143,-152,-156,-154,-155,-155,-156,-157,-162,-168,-163,-163,-161,-160,-163,-154,-150,-153,-155,-152,-150,-153,-153,-150,-153,-155,-153,-152,-153,-156,-156,-160,-156,-160,-163,-160,-159,-158,-158,-161,-156,-154,-157,-152,-146,-146,-135,-121,-120,-121,-129,-137,-156,-166,-160,-159,-164,-169,-170,-172,-169,-171,-173,-173,-183,-196,-70,80,159,-36,-352,-417,-370,-255,-192,-181,-169,-161,-163,-159,-161,-169,-158,-155,-161,-159,-156,-158,-161,-158,-155,-154,-149,-139,-132,-121,-109,-97,-96,-84,-72,-71,-62,-64,-73,-86,-111,-130,-140,-155,-159,-166,-172,-167,-170,-171
2019-05-16,10:57:36.392,-176,-179,-178,-188,-178,-180,-185,-186,-185,-192,-194,-192,-190,-190,-186,-186,-190,-184,-183,-184,-182,-182,-185,-187,-182,-184,-184,-182,-192,-189,-179,-184,-185,-183,-183,-185,-191,-188,-176,-178,-178,-166,-158,-154,-150,-159,-168,-184,-191,-193,-194,-202,-204,-199,-192,-203,-200,-200,-197,-204,-229,-130,28,137,-8,-348,-450,-408,-299,-230,-207,-206,-193,-192,-193,-192,-178,-185,-188,-186,-176,-169,-179,-169,-167,-170,-165,-163,-151,-149,-143,-135,-132,-113,-98,-88,-94,-91,-91,-102,-106,-134,-158,-172,-171,-186,-192,-196,-203,-201,-199,-204,-204,-211,-207,-208,-210,-211,-209,-211,-216,-208,-215,-220,-211,-210,-207,-203
2019-05-16,10:57:37.420,-207,-203,-210,-194,-207,-208,-208,-206,-214,-212,-206,-209,-215,-212,-215,-216,-208,-210,-221,-218,-217,-209,-203,-203,-194,-193,-178,-177,-181,-184,-209,-225,-215,-222,-220,-221,-225,-222,-230,-223,-221,-219,-226,-256,-188,-37,96,37,-311,-459,-445,-361,-262,-234,-226,-210,-209,-216,-211,-207,-198,-199,-197,-197,-198,-191,-184,-187,-174,-173,-167,-164,-158,-145,-139,-129,-113,-99,-98,-92,-83,-89,-98,-113,-124,-142,-155,-174,-179,-183,-180,-183,-184,-187,-191,-193,-191,-193,-199,-194,-195,-196,-197,-194,-196,-190,-197,-189,-191,-192,-189,-194,-193,-193,-193,-196,-201,-196,-198,-193,-197,-191,-192,-201,-199,-196,-204,-203
2019-05-16,10:57:38.448,-201,-200,-199,-191,-175,-165,-174,-175,-176,-200,-209,-204,-209,-212,-212,-214,-211,-214,-220,-218,-220,-219,-237,-198,-63,29,28,-271,-418,-435,-379,-287,-232,-216,-218,-212,-204,-198,-202,-196,-198,-199,-194,-199,-191,-186,-180,-184,-180,-173,-170,-161,-147,-144,-137,-116,-109,-107,-104,-101,-110,-111,-128,-150,-175,-185,-202,-210,-212,-215,-220,-222,-222,-213,-218,-219,-219,-216,-218,-215,-218,-220,-208,-205,-203,-204,-207,-205,-204,-207,-212,-210,-210,-213,-219,-218,-212,-211,-219,-220,-216,-216,-214,-211,-215,-211,-209,-206,-192,-189,-184,-201,-194,-211,-217,-216,-224,-233,-231,-230,-225,-226,-228,-229,-227,-225,-242,-208
2019-05-16,10:57:39.476,-80,-1,-17,-273,-418,-437,-381,-292,-240,-231,-231,-225,-226,-211,-216,-213,-220,-213,-209,-209,-208,-206,-204,-199,-193,-190,-181,-170,-166,-155,-144,-131,-119,-119,-116,-113,-121,-131,-151,-167,-191,-198,-208,-217,-230,-229,-232,-239,-243,-235,-244,-241,-236,-234,-237,-248,-240,-233,-229,-239,-228,-223,-222,-220,-225,-224,-232,-230,-235,-236,-226,-239,-239,-238,-239,-232,-231,-241,-235,-234,-231,-227,-226,-218,-198,-198,-210,-213,-219,-232,-240,-237,-236,-240,-247,-238,-248,-251,-245,-243,-243,-257,-263,-158,-31,38,-144,-405,-457,-434,-342,-264,-257,-249,-238,-241,-239,-232,-224,-239,-216,-220,-228,-220,-218,-215,-220,-204
2019-05-16,10:57:40.504,-204,-195,-185,-175,-171,-160,-146,-140,-135,-125,-124,-122,-123,-142,-160,-167,-195,-213,-226,-224,-232,-235,-241,-239,-240,-249,-241,-238,-247,-249,-240,-249,-252,-253,-246,-245,-254,-246,-243,-243,-238,-237,-229,-232,-241,-244,-238,-244,-241,-241,-240,-239,-248,-240,-243,-240,-243,-246,-243,-239,-244,-234,-223,-230,-219,-211,-202,-202,-206,-204,-221,-239,-238,-239,-236,-247,-245,-242,-246,-239,-236,-240,-248,-262,-245,-104,45,76,-197,-475,-490,-419,-297,-257,-247,-246,-235,-238,-227,-216,-213,-223,-213,-213,-210,-208,-207,-201,-206,-194,-196,-188,-187,-181,-171,-157,-145,-129,-126,-116,-115,-103,-119,-130,-142,-165,-186,-199
2019-05-16,10:57:41.532,-203,-206,-209,-219,-213,-216,-216,-224,-219,-217,-217,-220,-216,-221,-230,-223,-222,-226,-223,-229,-228,-226,-223,-217,-224,-219,-212,-210,-211,-215,-217,-216,-214,-214,-216,-218,-213,-219,-214,-211,-210,-219,-220,-210,-205,-200,-198,-195,-184,-173,-175,-181,-175,-193,-219,-215,-215,-219,-222,-222,-220,-227,-227,-228,-221,-223,-238,-251,-121,31,122,-100,-437,-497,-437,-315,-256,-231,-235,-224,-210,-216,-214,-211,-208,-207,-208,-213,-207,-201,-201,-195,-198,-192,-183,-179,-173,-159,-145,-133,-128,-113,-110,-107,-108,-108,-116,-130,-155,-173,-193,-201,-204,-219,-217,-209,-214,-222,-219,-217,-220,-225,-222,-223,-228,-226,-226,-226
2019-05-16,10:57:42.560,-222,-229,-229,-214,-219,-221,-223,-226,-217,-216,-218,-220,-222,-223,-221,-225,-222,-222,-225,-223,-226,-227,-227,-223,-223,-228,-231,-228,-228,-225,-217,-209,-210,-190,-184,-192,-199,-197,-207,-220,-228,-231,-238,-241,-230,-238,-246,-238,-237,-241,-238,-243,-271,-158,-4,108,-75,-416,-490,-450,-349,-268,-251,-244,-234,-232,-234,-231,-234,-225,-221,-220,-221,-221,-225,-216,-212,-217,-205,-199,-195,-191,-184,-171,-156,-145,-140,-129,-128,-120,-130,-142,-150,-179,-197,-209,-211,-218,-224,-235,-239,-236,-232,-234,-242,-249,-246,-242,-240,-242,-241,-236,-238,-233,-232,-235,-222,-218,-220,-224,-225,-222,-227,-230,-220,-215,-228,-225
2019-05-16,10:57:43.588,-225,-222,-222,-222,-221,-215,-220,-222,-211,-213,-209,-195,-183,-183,-190,-196,-195,-203,-210,-217,-216,-218,-220,-226,-229,-226,-226,-221,-221,-225,-243,-205,-75,16,13,-261,-409,-429,-372,-284,-232,-214,-209,-214,-210,-207,-202,-202,-203,-195,-197,-193,-186,-177,-176,-183,-173,-170,-163,-153,-147,-138,-124,-112,-106,-102,-95,-80,-93,-104,-119,-140,-162,-177,-183,-197,-203,-205,-204,-212,-212,-211,-217,-210,-216,-215,-208,-205,-210,-209,-200,-193,-197,-195,-185,-192,-184,-189,-189,-191,-194,-192,-196,-197,-199,-203,-192,-200,-201,-191,-197,-192,-187,-185,-178,-166,-161,-167,-174,-177,-184,-196,-199,-202,-206,-207,-209,-209
2019-05-16,10:57:44.616,-197,-198,-205,-208,-202,-213,-154,-59,2,-77,-313,-375,-380,-327,-240,-204,-204,-201,-195,-190,-190,-187,-190,-188,-184,-184,-181,-179,-173,-173,-164,-163,-162,-150,-145,-128,-129,-120,-113,-96,-96,-103,-99,-102,-119,-133,-142,-162,-173,-187,-189,-191,-197,-192,-199,-194,-193,-193,-198,-194,-193,-196,-198,-189,-183,-183,-182,-177,-175,-172,-174,-172,-182,-181,-183,-183,-185,-186,-185,-190,-188,-185,-188,-180,-183,-177,-173,-176,-170,-159,-160,-164,-168,-182,-176,-176,-188,-198,-196,-196,-194,-197,-201,-199,-193,-196,-214,-179,-74,-2,-9,-223,-350,-364,-329,-248,-204,-193,-187,-181,-187,-177,-174,-173,-169,-178,-172,-168
2019-05-16,10:57:45.644,-164,-165,-165,-164,-158,-146,-140,-135,-130,-117,-104,-90,-98,-88,-85,-87,-95,-100,-108,-130,-148,-163,-173,-179,-187,-194,-188,-187,-186,-188,-189,-196,-195,-194,-198,-190,-190,-194,-183,-183,-185,-179,-169,-174,-177,-183,-184,-184,-186,-184,-183,-196,-184,-185,-193,-190,-187,-178,-190,-193,-187,-189,-191,-193,-178,-176,-181,-160,-159,-156,-170,-170,-174,-186,-192,-193,-194,-195,-197,-197,-198,-193,-194,-192,-180,-192,-202,-105,18,93,-40,-316,-376,-340,-253,-188,-179,-170,-171,-165,-158,-158,-159,-149,-140,-134,-125,-126,-127,-123,-119,-112,-104,-101,-91,-81,-69,-63,-52,-37,-28,-8,-6,-4,1,-6,-21,-41
2019-05-16,10:57:46.672,-50,-49,-59,-63,-65,-62,-59,-54,-63,-53,-49,-43,-42,-43,-37,-33,-27,-24,-24,-13,-11,-1,2,9,9,15,17,22,33,35,42,37,44,54,49,48,64,69,63,68,74,73,79,95,110,104,118,134,140,137,132,138,128,117,118,116,122,125,129,127,129,153,144,133,132,141,270,409,460,261,-24,-70,-10,115,171,181,189,196,203,207,209,210,230,214,221,232,233,241,244,246,255,258,272,276,295,294,302,321,337,342,352,371,373,378,378,362,348,331,314,315,307,298,297,307,308,313,311,309,305,309,321,316,315,321,326,327,330,329
2019-05-16,10:57:47.700,332,337,339,338,339,344,352,349,350,352,356,354,355,355,364,365,367,364,369,370,368,373,382,378,385,398,394,406,422,432,427,422,411,397,388,394,405,394,387,388,392,395,390,397,397,390,373,493,646,733,534,193,129,192,319,383,396,405,412,417,426,425,430,425,432,437,436,436,439,436,449,459,450,461,471,478,484,490,504,521,530,531,549,545,535,534,525,507,488,475,460,453,450,451,446,449,451,447,443,440,431,448,434,436,434,432,438,433,433,440,448,444,447,444,444,443,441,443,435,435,433,437,443,448,431,450,448,449
2019-05-16,10:57:48.728,463,472,480,469,467,461,443,429,430,428,429,424,419,412,418,418,419,425,405,399,526,664,743,497,187,165,233,342,390,410,413,413,418,420,422,422,421,430,428,430,428,430,439,440,435,445,450,457,468,475,470,491,502,514,507,515,512,511,499,480,465,445,437,422,415,404,401,402,404,402,396,393,391,397,400,396,389,390,403,395,398,391,399,395,393,392,391,391,384,378,373,376,372,373,366,368,370,379,380,385,386,397,403,401,391,392,365,348,355,356,350,358,355,347,346,338,341,342,339,316,405,556,661,524,181,69,118,224
2019-05-16,10:57:49.757,318,341,344,342,347,351,350,349,352,355,354,356,359,361,359,360,363,373,383,376,384,398,397,402,419,424,428,435,428,426,422,405,388,366,352,338,323,317,311,310,306,305,302,304,306,303,307,306,311,302,304,310,304,299,309,309,304,300,299,293,291,289,289,297,286,284,283,278,278,281,282,274,273,284,280,292,304,307,314,305,300,289,268,266,263,260,258,250,248,251,243,238,237,239,225,210,321,463,566,375,39,-34,21,138,208,223,228,227,230,226,229,236,233,231,237,236,233,237,238,237,240,242,249,254,261,270,272,287
2019-05-16,10:57:50.785,294,295,305,299,302,304,294,275,259,244,224,214,200,203,195,192,189,186,185,180,183,179,184,189,192,185,192,190,177,180,177,180,177,174,172,171,171,174,171,154,158,157,156,155,153,149,150,162,164,165,170,195,191,182,176,162,152,150,140,149,138,129,135,137,129,127,132,130,115,104,220,337,414,216,-58,-114,-85,-3,90,111,116,125,121,126,133,131,130,132,134,134,132,128,135,141,152,148,160,173,177,184,191,199,207,211,215,212,221,204,182,174,156,133,119,112,101,99,95,95,90,88,87,88,85,85,92,91,88,80
2019-05-16,10:57:51.813,86,99,82,76,82,79,77,76,77,74,73,70,71,70,69,67,68,60,71,68,78,73,81,99,98,92,77,63,54,47,47,39,45,41,39,38,37,40,40,36,13,51,182,270,245,-48,-184,-202,-145,-39,17,29,32,31,37,36,38,38,35,44,50,49,48,56,53,56,61,68,64,82,92,95,109,125,124,131,132,129,125,115,97,74,55,40,30,25,17,11,8,9,2,4,0,-1,3,3,6,5,8,5,6,10,9,-2,-1,6,0,-11,-8,-11,-16,-16,-18,-20,-18,-15,-27,-21,-18,-11,-11,-9,-2,3,17,12,0,-7
2019-05-16,10:57:52.841,-17,-26,-40,-37,-41,-46,-49,-42,-45,-43,-38,-44,-56,-66,39,155,250,96,-213,-272,-256,-174,-88,-62,-55,-53,-50,-38,-28,-40,-31,-32,-27,-28,-31,-29,-22,-15,-11,-9,-4,6,16,24,40,48,55,62,63,78,74,66,51,46,32,4,-11,-26,-21,-23,-38,-39,-41,-37,-45,-47,-59,-38,-35,-37,-44,-50,-48,-36,-38,-39,-40,-45,-29,-36,-39,-41,-50,-55,-58,-43,-57,-63,-59,-63,-65,-55,-58,-63,-60,-48,-47,-48,-38,-31,-23,-31,-34,-49,-73,-71,-73,-76,-80,-77,-85,-87,-82,-78,-95,-91,-102,-112,28,187,276,41,-302,-365,-300,-167,-111,-101
2019-05-16,10:57:53.869,-99,-84,-93,-85,-87,-80,-81,-77,-79,-74,-73,-77,-66,-66,-73,-50,-44,-38,-36,-25,-10,-1,11,29,31,41,37,40,30,19,-1,-17,-17,-27,-36,-47,-43,-31,-26,-27,-19,-22,-19,-15,-19,-4,0,15,22,22,31,37,49,54,66,77,82,88,98,109,113,127,141,140,154,162,177,179,184,200,214,236,247,263,286,311,324,343,341,340,339,351,359,364,383,394,415,423,433,451,465,471,491,472,553,736,908,858,489,334,361,476,600,649,672,695,725,736,747,762,785,800,814,838,856,868,889,914,936,944,968,993,1022,1033,1067,1108,1122,1148
2019-05-16,10:57:54.897,1167,1184,1200,1219,1226,1223,1216,1211,1216,1214,1223,1226,1235,1243,1260,1270,1285,1297,1311,1326,1343,1353,1372,1379,1398,1423,1433,1451,1476,1494,1506,1536,1552,1560,1574,1581,1612,1621,1632,1645,1671,1688,1701,1725,1753,1774,1788,1821,1835,1854,1875,1900,1914,1924,1925,1922,1925,1929,1938,1947,1959,1969,1973,1989,2005,2018,2031,2038,2043,2034,2150,2306,2445,2328,2000,1914,1939,2038,2151,2181,2202,2223,2245,2264,2279,2296,2330,2356,2373,2386,2395,2403,2407,2417,2423,2433,2445,2457,2472,2499,2509,2534,2555,2581,2580,2609,2609,2607,2607,2604,2606,2604,2591,2591,2583,2585,2587,2589,2593,2597,2599,2603,2610,2622,2624,2633,2639,2643
2019-05-16,10:57:55.925,2642,2657,2654,2667,2667,2669,2669,2670,2666,2668,2672,2681,2674,2665,2674,2675,2669,2675,2679,2679,2687,2695,2685,2693,2703,2705,2690,2687,2672,2651,2655,2637,2634,2629,2614,2617,2610,2606,2614,2608,2599,2596,2603,2718,2827,2899,2705,2461,2415,2433,2510,2606,2621,2624,2633,2635,2636,2639,2644,2646,2640,2642,2648,2638,2621,2628,2622,2627,2617,2619,2616,2626,2616,2619,2631,2634,2639,2638,2629,2627,2610,2579,2557,2532,2511,2485,2473,2453,2448,2434,2423,2418,2413,2402,2384,2386,2373,2378,2369,2353,2364,2353,2347,2334,2340,2331,2322,2306,2306,2287,2289,2290,2295,2291,2280,2270,2262,2253,2250,2248,2238,2241,2236,2225,2217,2223,2227,2210
2019-05-16,10:57:56.953,2200,2181,2166,2142,2137,2127,2121,2114,2096,2085,2080,2074,2065,2065,2043,2020,2104,2224,2317,2189,1889,1792,1805,1862,1948,1966,1968,1969,1967,1968,1964,1942,1942,1942,1949,1952,1950,1942,1919,1925,1924,1925,1924,1917,1926,1931,1928,1939,1928,1940,1950,1933,1918,1916,1910,1870,1844,1825,1802,1778,1764,1770,1749,1748,1741,1729,1730,1710,1701,1701,1699,1683,1685,1676,1668,1663,1662,1678,1699,1683,1677,1658,1658,1646,1633,1636,1625,1622,1620,1613,1593,1608,1582,1576,1573,1567,1556,1563,1562,1555,1555,1572,1573,1582,1531,1511,1498,1492,1485,1477,1470,1474,1468,1452,1451,1433,1414,1414,1405,1367,1425,1569,1681,1631,1316,1140,1140,1190
2019-05-16,10:57:57.981,1291,1333,1335,1330,1326,1324,1320,1330,1323,1322,1308,1285,1288,1294,1291,1289,1283,1286,1289,1286,1299,1309,1290,1299,1309,1320,1328,1325,1326,1325,1302,1275,1251,1222,1205,1193,1155,1146,1150,1133,1125,1117,1108,1119,1108,1089,1084,1074,1076,1066,1065,1055,1054,1037,1049,1031,1038,1035,1010,1011,997,1000,993,985,974,977,980,941,944,938,936,946,925,915,904,910,909,893,903,899,897,896,898,901,887,883,873,852,828,825,820,807,810,806,780,765,773,767,767,755,721,813,968,1063,926,591,472,503,592,671,692,683,684,690,689,672,678,671,660,666,663,664,646,654,652,655,638,644
2019-05-16,10:57:59.009,658,665,655,654,670,666,669,675,682,694,657,646,632,611,587,568,552,536,537,513,503,506,502,495,490,481,479,474,466,479,464,450,447,443,432,444,433,412,414,418,412,404,406,388,398,388,380,370,367,366,358,356,354,349,337,345,335,326,315,321,324,321,332,320,328,348,326,301,288,274,265,271,247,246,246,245,228,215,218,216,215,196,171,286,436,512,304,-1,-90,-42,69,140,146,160,143,160,150,139,136,138,143,146,139,139,127,122,126,120,125,133,129,138,141,138,144,155,165,168,163,156,152,137,124,94,88,54,28,31
2019-05-16,10:58:00.037,28,20,8,-1,-5,5,-6,-30,-19,-19,-22,-29,-30,-30,-37,-41,-35,-34,-45,-52,-45,-60,-60,-67,-62,-66,-66,-75,-65,-97,-96,-95,-99,-107,-103,-101,-115,-116,-116,-122,-122,-123,-117,-121,-111,-118,-105,-100,-111,-126,-142,-159,-166,-174,-176,-181,-184,-191,-190,-189,-203,-201,-206,-232,-202,-62,73,75,-263,-457,-469,-403,-292,-253,-244,-241,-236,-243,-235,-240,-242,-252,-240,-248,-245,-251,-253,-252,-240,-250,-253,-243,-242,-239,-229,-225,-211,-201,-194,-193,-205,-202,-213,-222,-248,-264,-283,-302,-318,-323,-321,-344,-330,-355,-347,-348,-364,-362,-362,-359,-352,-359,-373,-370,-368,-375,-373,-380
2019-05-16,10:58:01.065,-380,-384,-384,-386,-388,-387,-407,-414,-406,-409,-414,-423,-424,-410,-420,-434,-442,-440,-438,-433,-446,-445,-451,-448,-441,-440,-442,-450,-450,-428,-427,-444,-439,-456,-465,-491,-502,-494,-486,-493,-513,-518,-504,-510,-505,-520,-547,-484,-337,-217,-252,-593,-757,-753,-669,-564,-532,-519,-519,-514,-509,-505,-507,-506,-508,-494,-496,-483,-483,-470,-474,-476,-453,-462,-452,-433,-431,-410,-393,-379,-387,-369,-353,-366,-360,-357,-369,-380,-396,-401,-412,-410,-421,-415,-421,-409,-406,-411,-404,-396,-372,-385,-375,-368,-359,-356,-357,-340,-337,-335,-330,-350,-343,-329,-329,-322,-313,-319,-311,-304,-292,-294,-287,-266,-275,-269,-263,-256
2019-05-16,10:58:02.093,-243,-228,-227,-214,-194,-185,-190,-164,-149,-145,-142,-145,-148,-143,-140,-142,-147,-130,-123,-124,-113,-104,-89,-91,-96,-77,16,122,204,50,-194,-241,-224,-144,-45,-3,12,5,22,44,47,50,50,70,76,73,86,98,104,110,116,131,156,193,213,220,232,242,257,272,277,285,295,294,272,266,249,239,223,210,213,212,206,198,212,211,214,214,229,222,225,227,236,238,248,245,262,256,255,244,243,250,260,250,256,257,258,261,263,250,263,266,261,269,270,278,285,273,277,283,291,290,302,305,330,325,322,307,307,288,287,290,286,289,282,276,283,281
2019-05-16,10:58:03.121,265,282,272,249,324,437,541,486,188,51,44,113,214,252,260,265,275,267,268,270,270,272,279,265,277,279,284,282,286,286,302,303,292,311,320,333,344,351,350,356,348,346,338,318,306,288,268,249,241,227,227,222,226,216,219,220,219,217,204,206,206,213,213,209,212,207,199,199,185,197,196,191,179,182,177,176,167,163,161,155,166,152,154,146,152,144,144,143,138,144,141,134,140,152,155,146,139,130,115,110,97,90,73,79,73,76,68,53,64,72,47,15,99,242,352,246,-103,-215,-186,-103,-21,3,7,13,4,12,15,19
2019-05-16,10:58:04.149,7,4,2,3,2,-3,-4,0,7,4,5,15,17,16,25,31,43,42,48,45,53,43,37,20,-4,-16,-36,-59,-68,-68,-84,-87,-94,-92,-97,-105,-102,-112,-106,-109,-113,-101,-107,-119,-134,-118,-132,-126,-125,-123,-125,-131,-139,-134,-132,-142,-137,-135,-142,-147,-150,-153,-144,-147,-158,-152,-153,-154,-159,-169,-164,-159,-142,-138,-139,-126,-137,-148,-151,-169,-182,-180,-182,-192,-186,-183,-176,-213,-206,-208,-202,-217,-241,-124,25,127,-53,-400,-473,-436,-329,-260,-237,-227,-228,-216,-226,-220,-219,-223,-220,-232,-213,-210,-224,-225,-218,-215,-212,-205,-203,-199,-180,-177,-181,-170,-150,-158
2019-05-16,10:58:05.177,-146,-148,-148,-156,-168,-202,-220,-235,-243,-256,-257,-260,-278,-267,-277,-273,-282,-282,-279,-284,-279,-291,-279,-291,-289,-278,-285,-293,-286,-288,-295,-297,-299,-298,-304,-300,-303,-313,-308,-317,-310,-317,-322,-325,-326,-319,-324,-331,-323,-313,-339,-319,-314,-314,-311,-288,-283,-303,-308,-309,-341,-339,-352,-360,-361,-372,-379,-388,-384,-387,-391,-390,-432,-372,-217,-81,-135,-473,-650,-637,-541,-459,-422,-414,-411,-411,-410,-409,-395,-398,-409,-401,-414,-403,-398,-405,-406,-402,-401,-398,-394,-379,-377,-370,-359,-339,-349,-337,-341,-335,-335,-340,-358,-383,-401,-404,-421,-441,-453,-454,-456,-456,-464,-457,-457,-468,-455,-449
2019-05-16,10:58:06.205,-459,-464,-465,-467,-452,-468,-463,-460,-461,-466,-450,-464,-476,-469,-473,-470,-478,-476,-484,-478,-486,-487,-462,-472,-482,-471,-474,-476,-450,-435,-425,-419,-412,-422,-429,-432,-442,-463,-468,-471,-483,-473,-482,-490,-489,-491,-502,-505,-510,-526,-476,-352,-271,-315,-616,-736,-758,-701,-609,-568,-562,-562,-556,-553,-549,-537,-543,-548,-546,-536,-546,-538,-541,-527,-529,-532,-516,-525,-499,-506,-497,-492,-475,-469,-465,-464,-460,-465,-476,-508,-523,-543,-563,-563,-588,-587,-600,-601,-601,-606,-612,-619,-615,-617,-611,-621,-616,-612,-609,-611,-607,-614,-613,-613,-618,-622,-624,-611,-619,-628,-636,-632,-636,-632,-636,-633,-635,-641
2019-05-16,10:58:07.233,-636,-627,-633,-653,-642,-624,-629,-635,-614,-609,-607,-624,-621,-634,-647,-657,-659,-647,-651,-668,-670,-668,-660,-670,-679,-662,-690,-640,-511,-376,-407,-722,-890,-900,-792,-713,-692,-672,-665,-664,-670,-662,-664,-666,-661,-659,-658,-654,-647,-619,-621,-604,-605,-604,-599,-599,-594,-586,-572,-575,-565,-558,-545,-557,-570,-589,-592,-619,-632,-648,-658,-665,-675,-680,-682,-684,-691,-692,-687,-689,-688,-696,-695,-690,-693,-696,-686,-694,-688,-685,-689,-686,-701,-689,-696,-690,-696,-698,-681,-704,-695,-696,-702,-696,-691,-701,-693,-698,-696,-691,-684,-676,-671,-662,-638,-644,-642,-658,-666,-674,-665,-663,-663,-669,-670,-655,-653,-648
2019-05-16,10:58:08.261,-644,-627,-641,-663,-586,-430,-304,-365,-701,-849,-817,-704,-614,-598,-579,-568,-547,-542,-530,-522,-517,-509,-496,-493,-482,-469,-459,-456,-437,-429,-423,-411,-391,-368,-359,-342,-312,-295,-296,-279,-272,-261,-264,-268,-285,-284,-273,-314,-314,-296,-296,-288,-278,-256,-273,-269,-246,-232,-222,-223,-220,-203,-200,-183,-177,-163,-158,-139,-136,-129,-129,-121,-104,-93,-101,-83,-74,-68,-69,-48,-42,-40,-24,-19,-14,6,14,17,34,39,55,64,90,94,102,128,127,113,119,125,120,119,123,120,112,107,113,124,127,107,159,294,444,447,116,-57,-56,38,150,191,207,214,222,235,243,248,255,269
2019-05-16,10:58:09.290,265,264,271,288,286,286,303,304,322,319,326,330,357,370,387,393,398,411,425,414,414,398,392,378,369,363,367,350,354,371,360,350,359,361,362,364,363,364,370,361,362,369,372,384,360,367,372,370,375,378,382,416,414,410,411,420,402,405,407,399,387,373,379,378,380,389,405,411,407,395,398,392,366,368,371,375,372,371,357,364,364,362,352,361,354,341,442,554,627,470,209,155,170,240,333,357,360,370,379,387,384,387,395,396,430,423,416,427,424,439,433,433,445,456,448,458,477,471,464,478,480,470,473,461,445,425,412,378
2019-05-16,10:58:10.318,364,355,352,342,328,339,333,328,333,325,323,325,318,327,318,320,319,316,318,315,322,317,312,295,299,305,295,297,292,285,279,293,278,263,266,269,273,272,265,278,276,293,291,276,274,267,245,246,245,230,225,230,219,216,216,217,218,210,204,203,318,424,488,261,13,-25,16,97,164,190,185,177,187,175,181,187,182,173,187,178,174,173,171,176,174,190,185,185,193,207,212,215,224,244,229,225,232,221,205,191,170,131,123,112,104,93,93,90,94,89,63,74,74,78,81,95,111,105,89,84,97,93,79,67,69,65,56,40
2019-05-16,10:58:11.346,62,42,39,38,29,25,40,27,13,16,22,19,5,1,17,24,12,19,20,30,32,16,14,-7,-11,-26,-25,-28,-36,-35,-38,-41,-36,-62,-55,-47,-85,-25,132,258,175,-144,-295,-280,-201,-106,-87,-82,-76,-82,-73,-68,-72,-87,-85,-90,-86,-78,-82,-80,-77,-71,-75,-71,-75,-66,-57,-51,-43,-30,-30,-20,-13,-9,-20,-44,-45,-65,-84,-104,-118,-126,-117,-136,-142,-144,-141,-146,-158,-160,-157,-156,-155,-172,-163,-173,-183,-178,-180,-185,-176,-173,-180,-183,-199,-180,-189,-199,-193,-198,-201,-188,-216,-204,-210,-208,-215,-217,-218,-214,-219,-228,-223,-209,-219,-211,-192,-200
2019-05-16,10:58:12.374,-198,-207,-204,-242,-238,-253,-259,-259,-261,-262,-266,-269,-265,-262,-282,-289,-303,-253,-85,39,-30,-370,-530,-503,-416,-326,-306,-304,-300,-303,-299,-292,-293,-300,-288,-294,-297,-306,-305,-310,-302,-295,-284,-300,-279,-275,-290,-271,-255,-261,-248,-240,-238,-239,-244,-254,-266,-289,-303,-320,-352,-355,-362,-371,-375,-373,-378,-375,-388,-395,-404,-393,-388,-403,-396,-395,-403,-400,-412,-404,-405,-421,-410,-417,-416,-415,-424,-419,-420,-438,-436,-432,-442,-443,-432,-444,-449,-451,-438,-450,-445,-461,-459,-445,-456,-449,-450,-435,-438,-427,-437,-440,-442,-453,-468,-483,-492,-486,-483,-497,-494,-500,-497,-497,-482,-504,-523,-501
2019-05-16,10:58:13.402,-338,-188,-197,-556,-767,-759,-673,-555,-534,-536,-524,-516,-523,-523,-518,-521,-510,-524,-516,-526,-525,-521,-522,-514,-515,-501,-510,-501,-496,-488,-479,-468,-456,-448,-455,-447,-449,-450,-468,-495,-507,-529,-548,-558,-561,-579,-566,-581,-582,-574,-594,-594,-597,-588,-594,-602,-603,-596,-588,-596,-601,-599,-600,-597,-595,-593,-594,-592,-609,-607,-601,-600,-611,-609,-609,-603,-609,-610,-604,-606,-610,-610,-610,-610,-600,-606,-598,-593,-588,-568,-552,-577,-561,-583,-579,-594,-597,-591,-589,-591,-593,-589,-588,-591,-579,-579,-572,-625,-515,-355,-196,-342,-727,-828,-791,-673,-580,-542,-524,-522,-520,-510,-492,-485,-480,-469,-463,-453
2019-05-16,10:58:14.430,-443,-435,-433,-411,-409,-390,-381,-368,-353,-331,-316,-292,-272,-259,-241,-233,-219,-206,-208,-207,-220,-229,-245,-238,-226,-236,-222,-214,-203,-191,-179,-166,-145,-144,-131,-112,-100,-97,-78,-58,-47,-34,-10,-4,20,18,39,53,60,64,81,99,113,126,142,169,169,180,196,218,242,259,288,300,315,332,360,384,392,405,417,407,407,419,430,438,444,463,469,463,482,496,499,506,503,519,659,789,880,624,402,352,407,521,610,652,667,679,694,715,718,734,755,771,775,786,799,797,796,809,811,819,837,843,856,864,872,871,889,896,919,901,907,897,881,874,865,825
2019-05-16,10:58:15.458,812,796,798,787,773,758,766,761,753,749,749,749,763,763,773,774,777,783,790,782,781,793,774,783,792,794,803,798,802,801,809,811,804,810,813,823,822,830,844,865,873,855,850,842,816,807,802,797,799,798,805,799,802,800,808,830,820,814,934,1069,1163,970,686,620,643,734,792,787,796,797,773,769,775,776,782,776,777,778,784,788,779,788,801,808,807,817,812,821,824,846,847,839,860,853,852,834,830,800,778,760,737,729,732,727,710,704,699,701,693,683,680,677,681,676,669,669,656,659,663,667,666,642,636,652,632,633,626,618
2019-05-16,10:58:16.486,618,618,607,607,597,599,597,593,593,595,594,601,610,602,606,603,595,575,555,538,543,538,526,518,519,510,496,509,489,487,459,447,558,700,782,582,269,194,214,315,383,388,392,388,392,386,377,378,367,366,363,352,348,349,354,336,344,350,340,334,340,347,353,359,367,371,373,367,364,346,327,313,291,268,241,236,230,211,213,189,191,177,177,162,156,155,156,160,144,137,128,124,116,113,105,104,107,101,99,87,77,71,72,58,57,53,47,45,40,39,24,26,19,24,29,31,31,39,26,35,18,-15,-36,-34,-32,-50,-46,-53
2019-05-16,10:58:17.514,-53,-58,-56,-77,-87,-85,-121,-5,141,255,57,-284,-362,-320,-203,-148,-138,-135,-129,-138,-123,-136,-136,-149,-142,-154,-152,-148,-150,-153,-152,-153,-149,-154,-159,-145,-136,-131,-124,-119,-108,-114,-115,-122,-131,-147,-160,-189,-201,-225,-236,-243,-263,-255,-253,-268,-264,-266,-277,-278,-281,-290,-299,-293,-282,-295,-296,-290,-298,-298,-298,-310,-301,-290,-299,-303,-316,-313,-318,-311,-310,-324,-326,-322,-320,-326,-328,-333,-329,-321,-314,-340,-322,-319,-327,-335,-345,-354,-351,-370,-367,-359,-359,-361,-367,-406,-403,-403,-405,-411,-439,-409,-249,-101,-117,-446,-652,-647,-583,-471,-445,-422,-419,-427,-424,-421,-412,-416
2019-05-16,10:58:18.542,-405,-408,-407,-414,-399,-402,-413,-410,-402,-398,-392,-380,-383,-367,-349,-350,-346,-345,-328,-325,-337,-338,-360,-370,-379,-408,-436,-438,-436,-447,-449,-455,-456,-454,-451,-457,-462,-457,-468,-467,-473,-463,-460,-460,-455,-459,-455,-466,-465,-463,-466,-468,-464,-463,-460,-474,-474,-469,-471,-471,-481,-473,-466,-483,-486,-472,-471,-472,-472,-463,-451,-451,-458,-471,-475,-483,-500,-489,-497,-501,-508,-496,-507,-504,-520,-513,-513,-542,-539,-393,-244,-166,-440,-721,-769,-717,-603,-534,-531,-519,-513,-513,-519,-515,-518,-520,-515,-516,-510,-504,-504,-494,-504,-502,-495,-501,-486,-479,-469,-461,-444,-432,-427,-416,-428,-432,-429,-446
2019-05-16,10:58:19.570,-466,-479,-490,-503,-522,-536,-532,-526,-536,-550,-544,-546,-549,-538,-548,-553,-555,-547,-550,-549,-559,-548,-545,-548,-549,-536,-555,-547,-548,-536,-551,-562,-558,-558,-547,-554,-561,-545,-561,-559,-554,-560,-567,-560,-545,-552,-540,-535,-520,-517,-521,-540,-542,-563,-558,-561,-557,-567,-568,-572,-570,-574,-585,-579,-580,-591,-596,-482,-359,-266,-470,-754,-812,-772,-698,-615,-594,-581,-579,-580,-572,-566,-564,-568,-557,-565,-573,-558,-553,-563,-559,-544,-534,-529,-526,-534,-510,-503,-500,-483,-477,-471,-470,-476,-478,-489,-515,-535,-561,-562,-581,-576,-587,-588,-589,-584,-602,-603,-602,-611,-608,-598,-601,-608,-597,-591,-600,-597
2019-05-16,10:58:20.598,-609,-604,-602,-607,-609,-595,-610,-616,-607,-608,-604,-612,-615,-609,-616,-611,-613,-624,-608,-602,-606,-603,-591,-581,-586,-583,-586,-614,-631,-620,-629,-637,-629,-631,-634,-638,-627,-622,-643,-641,-656,-639,-503,-403,-366,-634,-831,-867,-821,-719,-667,-648,-641,-636,-623,-636,-631,-632,-632,-627,-619,-625,-635,-610,-620,-619,-618,-601,-596,-594,-593,-563,-566,-538,-542,-541,-534,-526,-531,-542,-562,-577,-596,-612,-640,-639,-654,-655,-652,-664,-660,-662,-655,-659,-673,-660,-675,-665,-664,-659,-662,-647,-649,-650,-661,-653,-650,-662,-663,-661,-660,-656,-666,-679,-679,-677,-671,-672,-676,-675,-664,-661,-676,-674,-682,-671,-667,-652
2019-05-16,10:58:21.626,-655,-638,-635,-641,-642,-653,-664,-667,-675,-676,-678,-690,-681,-684,-680,-680,-688,-684,-689,-710,-631,-501,-386,-460,-789,-913,-893,-829,-732,-697,-686,-690,-691,-680,-667,-680,-672,-681,-672,-669,-664,-670,-664,-660,-654,-647,-659,-647,-641,-626,-623,-608,-595,-596,-573,-569,-580,-583,-583,-596,-616,-635,-647,-662,-667,-667,-682,-675,-675,-682,-683,-676,-683,-680,-688,-681,-684,-682,-694,-684,-670,-673,-669,-677,-671,-664,-675,-676,-675,-676,-668,-669,-669,-669,-684,-665,-658,-680,-669,-670,-668,-671,-665,-675,-659,-660,-668,-660,-652,-646,-633,-624,-632,-636,-642,-656,-664,-666,-662,-662,-670,-676,-674,-673,-671,-674,-674,-673
2019-05-16,10:58:22.654,-701,-574,-435,-343,-519,-832,-910,-869,-758,-693,-668,-660,-660,-659,-657,-651,-649,-652,-650,-632,-643,-636,-630,-627,-626,-625,-621,-622,-609,-601,-594,-586,-572,-561,-553,-542,-536,-541,-529,-539,-565,-588,-595,-607,-624,-627,-633,-642,-634,-638,-637,-646,-647,-641,-636,-636,-640,-638,-642,-633,-630,-632,-636,-629,-616,-622,-624,-619,-620,-612,-622,-621,-616,-615,-605,-616,-618,-615,-611,-608,-622,-614,-609,-609,-619,-606,-605,-614,-613,-602,-600,-592,-584,-576,-565,-570,-569,-585,-598,-602,-600,-614,-601,-612,-608,-593,-602,-606,-608,-600,-619,-624,-494,-344,-266,-512,-805,-854,-780,-678,-620,-603,-598,-595,-582,-585,-585,-577
2019-05-16,10:58:23.682,-576,-584,-570,-573,-568,-563,-570,-555,-567,-541,-535,-544,-532,-513,-509,-492,-492,-476,-467,-460,-454,-466,-473,-499,-501,-512,-536,-548,-556,-546,-548,-548,-558,-569,-562,-561,-556,-557,-560,-554,-554,-545,-551,-563,-560,-547,-538,-545,-547,-534,-531,-523,-533,-544,-543,-541,-538,-535,-530,-539,-528,-517,-529,-529,-534,-541,-538,-526,-522,-519,-528,-526,-516,-510,-503,-500,-488,-489,-495,-485,-497,-511,-516,-519,-523,-516,-512,-529,-522,-523,-526,-516,-523,-552,-480,-340,-210,-261,-613,-756,-738,-662,-548,-527,-515,-503,-500,-506,-495,-488,-484,-482,-482,-479,-482,-472,-470,-470,-463,-461,-462,-456,-440,-429,-423,-410,-393,-394
2019-05-16,10:58:24.710,-387,-377,-383,-373,-384,-389,-405,-428,-434,-451,-462,-472,-477,-478,-474,-475,-477,-480,-468,-473,-484,-473,-474,-465,-463,-476,-472,-462,-464,-449,-447,-468,-447,-453,-451,-448,-448,-446,-453,-443,-451,-446,-449,-449,-457,-453,-450,-447,-445,-441,-450,-440,-430,-432,-425,-409,-396,-402,-414,-414,-419,-425,-420,-437,-435,-437,-436,-430,-436,-441,-433,-437,-439,-443,-323,-205,-124,-340,-610,-646,-613,-516,-435,-418,-408,-409,-414,-401,-396,-389,-386,-390,-371,-389,-370,-379,-362,-373,-367,-357,-345,-329,-321,-318,-304,-299,-291,-279,-281,-260,-266,-273,-282,-295,-323,-334,-350,-358,-355,-372,-378,-378,-368,-375,-373,-367,-376,-364
2019-05-16,10:58:25.738,-363,-376,-370,-364,-364,-356,-357,-350,-344,-346,-345,-345,-341,-359,-354,-351,-348,-342,-340,-347,-332,-336,-340,-349,-340,-344,-339,-327,-327,-313,-313,-292,-284,-308,-302,-313,-319,-321,-327,-332,-326,-330,-332,-334,-329,-330,-323,-324,-341,-295,-172,-70,-100,-403,-521,-537,-481,-369,-327,-326,-306,-308,-308,-299,-295,-294,-292,-281,-278,-284,-281,-275,-270,-268,-265,-252,-243,-239,-235,-222,-213,-204,-182,-184,-181,-180,-175,-186,-214,-225,-245,-258,-257,-272,-288,-285,-286,-283,-289,-288,-275,-283,-280,-279,-281,-282,-271,-270,-266,-255,-254,-259,-263,-265,-259,-267,-254,-257,-260,-260,-276,-256,-264,-273,-263,-259,-253,-270
2019-05-16,10:58:26.766,-250,-253,-250,-243,-246,-232,-223,-217,-223,-223,-209,-228,-249,-242,-255,-249,-248,-259,-260,-252,-251,-266,-253,-239,-275,-261,-118,4,40,-223,-460,-479,-414,-304,-269,-256,-237,-245,-242,-240,-228,-227,-234,-227,-225,-220,-228,-222,-216,-211,-212,-197,-196,-186,-182,-175,-156,-148,-141,-132,-122,-119,-120,-131,-140,-146,-164,-193,-185,-205,-212,-212,-224,-222,-217,-219,-214,-216,-218,-221,-219,-216,-209,-230,-222,-211,-212,-205,-209,-202,-214,-199,-210,-202,-198,-195,-200,-199,-184,-204,-206,-201,-203,-204,-196,-206,-202,-204,-191,-181,-173,-164,-156,-146,-147,-164,-175,-188,-187,-190,-189,-200,-187,-195,-202,-199,-196,-199
2019-05-16,10:58:27.795,-193,-213,-216,-86,65,130,-106,-400,-436,-389,-269,-210,-199,-200,-189,-175,-185,-184,-174,-177,-172,-167,-169,-165,-152,-161,-162,-146,-144,-135,-131,-129,-103,-92,-100,-79,-67,-61,-62,-48,-66,-64,-87,-105,-117,-135,-146,-144,-152,-154,-147,-161,-158,-152,-158,-156,-152,-162,-156,-157,-162,-153,-154,-154,-152,-150,-150,-137,-142,-139,-148,-133,-157,-146,-142,-141,-153,-137,-132,-145,-141,-132,-145,-124,-143,-137,-134,-127,-124,-118,-120,-99,-90,-84,-107,-95,-116,-122,-127,-125,-126,-139,-134,-128,-126,-142,-143,-131,-126,-150,-135,8,158,197,-113,-349,-360,-300,-180,-134,-139,-134,-117,-105,-115,-106,-111,-101
2019-05-16,10:58:28.823,-103,-107,-107,-111,-102,-91,-95,-89,-83,-73,-70,-69,-61,-42,-26,-20,-1,-3,6,1,-6,-24,-36,-52,-63,-77,-91,-81,-106,-103,-95,-107,-112,-108,-111,-109,-109,-103,-101,-95,-110,-99,-98,-95,-96,-97,-90,-96,-92,-89,-89,-86,-84,-86,-90,-89,-84,-83,-93,-91,-82,-79,-78,-80,-81,-71,-56,-74,-68,-63,-56,-45,-34,-34,-40,-42,-59,-72,-77,-80,-86,-79,-60,-72,-74,-70,-72,-73,-71,-96,-68,80,224,250,-74,-294,-308,-246,-123,-68,-50,-58,-59,-53,-50,-49,-47,-46,-44,-42,-41,-29,-28,-27,-24,-21,-18,-18,-13,5,20,29,37,38,49,59,61,64
2019-05-16,10:58:29.851,56,41,20,-7,-19,-31,-36,-35,-35,-46,-45,-48,-53,-55,-56,-50,-55,-56,-55,-57,-51,-56,-55,-31,-32,-42,-34,-31,-38,-34,-36,-43,-40,-43,-37,-40,-42,-39,-42,-39,-42,-50,-46,-29,-36,-46,-34,-25,-26,-17,-8,1,-2,-7,-14,-37,-21,-9,-29,-44,-45,-42,-44,-49,-44,-40,-37,-48,-64,50,159,243,68,-194,-254,-232,-159,-75,-51,-44,-34,-31,-28,-27,-18,-12,-3,0,-9,-11,-7,-3,4,10,15,27,40,34,55,66,63,80,90,94,96,95,90,91,72,55,36,20,5,-1,-5,5,-3,10,-1,-6,6,10,8,9,20,24,29,34
2019-05-16,10:58:30.879,41,55,46,53,60,55,59,76,66,66,70,75,81,88,89,96,98,106,112,127,137,144,153,169,190,177,180,175,169,173,174,180,191,199,205,215,223,226,233,241,241,235,344,484,577,428,145,86,134,235,307,332,337,360,375,376,388,394,404,414,424,432,445,458,464,495,519,488,502,517,539,552,574,596,608,626,639,648,666,678,680,649,651,644,633,636,640,642,659,667,668,678,687,693,695,700,710,722,728,738,758,759,765,779,781,786,802,809,819,839,847,830,839,845,856,860,868,876,883,891,903,915,929,939,960,961,990,1000
2019-05-16,10:58:31.907,998,999,998,994,989,994,1000,993,1005,1003,1010,1016,1018,1024,1028,1011,1056,1197,1327,1314,1011,853,865,943,1036,1062,1072,1079,1095,1098,1103,1117,1117,1124,1128,1128,1141,1135,1141,1157,1155,1158,1166,1176,1188,1196,1210,1222,1239,1241,1253,1274,1273,1257,1258,1256,1245,1230,1216,1207,1204,1196,1200,1208,1195,1201,1206,1210,1212,1209,1221,1210,1221,1224,1219,1224,1231,1233,1236,1240,1248,1254,1269,1250,1247,1253,1254,1259,1262,1257,1258,1257,1260,1265,1274,1277,1279,1272,1285,1292,1305,1326,1326,1318,1317,1308,1303,1305,1303,1302,1311,1307,1305,1312,1322,1324,1310,1321,1296,1373,1521,1645,1560,1238,1131,1163,1259,1344
2019-05-16,10:58:32.935,1352,1367,1389,1382,1377,1388,1396,1417,1429,1426,1429,1433,1446,1444,1450,1463,1466,1482,1485,1488,1507,1520,1521,1539,1555,1571,1566,1580,1575,1567,1564,1551,1533,1525,1521,1514,1512,1511,1508,1512,1509,1508,1503,1518,1521,1528,1521,1526,1530,1523,1530,1532,1531,1553,1548,1555,1566,1569,1576,1581,1589,1607,1603,1608,1590,1612,1613,1624,1629,1625,1629,1648,1642,1652,1650,1664,1672,1686,1673,1672,1660,1649,1642,1633,1630,1632,1628,1620,1614,1613,1588,1582,1582,1576,1554,1649,1793,1899,1754,1425,1344,1362,1470,1544,1559,1565,1566,1562,1562,1563,1564,1566,1546,1559,1554,1562,1565,1560,1566,1565,1570,1592,1590,1577,1589,1600,1611,1619
2019-05-16,10:58:33.963,1627,1628,1628,1624,1614,1598,1589,1584,1546,1536,1519,1513,1506,1513,1499,1486,1491,1492,1495,1490,1469,1495,1471,1462,1463,1464,1475,1468,1473,1469,1471,1470,1441,1453,1451,1448,1448,1442,1433,1442,1431,1430,1434,1414,1413,1416,1421,1411,1419,1425,1419,1429,1430,1451,1448,1432,1419,1406,1402,1408,1404,1396,1379,1384,1360,1350,1351,1358,1350,1349,1312,1421,1569,1687,1503,1164,1101,1130,1240,1304,1333,1330,1325,1344,1350,1342,1353,1365,1352,1355,1368,1368,1362,1369,1366,1365,1377,1377,1380,1390,1372,1379,1393,1397,1408,1410,1416,1411,1403,1400,1382,1377,1347,1332,1337,1319,1302,1317,1307,1302,1305,1305,1320,1303,1312,1313,1309,1315
2019-05-16,10:58:34.991,1314,1317,1318,1317,1319,1319,1317,1321,1335,1324,1322,1312,1317,1316,1321,1324,1327,1328,1325,1333,1337,1343,1346,1353,1346,1347,1341,1359,1362,1371,1374,1364,1358,1347,1331,1336,1341,1334,1335,1331,1329,1340,1330,1341,1338,1335,1307,1370,1528,1675,1636,1268,1123,1128,1208,1317,1337,1342,1330,1334,1331,1330,1336,1333,1335,1334,1323,1326,1342,1332,1327,1324,1332,1337,1339,1346,1352,1364,1364,1369,1370,1381,1379,1372,1367,1355,1343,1313,1293,1282,1256,1242,1233,1221,1209,1207,1201,1198,1189,1215,1180,1178,1186,1180,1170,1162,1166,1159,1154,1154,1147,1144,1135,1128,1118,1123,1106,1103,1092,1087,1094,1074,1069,1079,1058,1042,1040,1041
2019-05-16,10:58:36.019,1036,1035,1033,1033,1031,1041,1043,1031,1019,1000,975,964,954,944,938,925,910,903,898,895,884,875,855,825,951,1099,1234,998,664,610,618,687,780,782,778,781,780,776,768,763,758,752,745,752,727,715,716,713,719,715,717,714,725,720,725,724,725,729,724,716,711,694,683,660,651,635,607,595,581,576,583,588,562,560,562,556,545,548,548,543,532,536,520,511,513,508,507,494,485,483,475,470,453,450,442,439,433,429,421,411,418,411,408,411,413,411,396,380,365,347,344,334,322,325,314,307,295,292,287,288,287,244,264,400,533,563,236,14
2019-05-16,10:58:37.047,-11,52,162,208,196,198,204,205,199,200,194,199,194,196,176,175,183,170,177,179,182,183,200,209,208,212,216,214,223,228,226,212,193,186,169,135,122,114,106,95,82,81,67,66,52,49,43,36,38,36,34,28,25,25,23,16,21,17,5,7,-4,0,1,-11,-10,-15,-35,-37,-33,-37,-45,-46,-51,-60,-55,-37,-30,-31,-22,-32,-43,-48,-58,-72,-76,-85,-86,-76,-77,-75,-80,-75,-81,-83,-86,-119,-87,65,206,209,-157,-362,-370,-296,-185,-150,-148,-146,-150,-162,-143,-156,-152,-164,-166,-172,-173,-171,-172,-181,-180,-179,-175,-174,-184,-168,-163,-151
2019-05-16,10:58:38.075,-152,-146,-160,-157,-161,-169,-179,-195,-221,-235,-253,-259,-271,-283,-293,-296,-298,-303,-313,-315,-304,-306,-317,-316,-317,-310,-312,-307,-318,-316,-316,-325,-320,-326,-331,-328,-331,-336,-337,-337,-339,-346,-344,-346,-360,-354,-348,-342,-337,-328,-322,-339,-341,-354,-368,-374,-376,-380,-385,-388,-390,-391,-392,-388,-391,-393,-405,-411,-287,-183,-122,-364,-593,-633,-603,-505,-437,-427,-418,-414,-412,-408,-411,-414,-411,-413,-414,-409,-413,-413,-405,-400,-399,-400,-397,-385,-380,-371,-364,-359,-351,-339,-344,-334,-346,-353,-371,-394,-412,-426,-423,-462,-472,-472,-478,-479,-484,-488,-489,-486,-489,-496,-497,-490,-487,-486,-492,-492
2019-05-16,10:58:39.103,-491,-496,-499,-499,-505,-513,-496,-493,-525,-522,-522,-523,-524,-524,-533,-535,-536,-543,-540,-542,-537,-534,-535,-512,-514,-511,-517,-525,-533,-551,-557,-563,-565,-571,-574,-571,-579,-587,-581,-567,-575,-593,-611,-500,-355,-259,-454,-742,-806,-772,-675,-621,-609,-597,-595,-596,-594,-604,-584,-572,-587,-588,-586,-587,-586,-584,-585,-577,-571,-569,-566,-559,-550,-538,-530,-526,-513,-511,-518,-519,-521,-532,-545,-567,-581,-590,-607,-614,-620,-622,-622,-627,-641,-633,-627,-642,-643,-645,-641,-643,-643,-642,-637,-644,-623,-637,-652,-656,-650,-662,-652,-651,-656,-648,-667,-660,-664,-667,-666,-667,-669,-673,-669,-666,-667,-666,-657,-650
2019-05-16,10:58:40.131,-629,-639,-642,-638,-663,-678,-684,-687,-694,-697,-699,-697,-697,-701,-707,-700,-701,-736,-642,-493,-369,-495,-837,-938,-908,-811,-735,-719,-715,-709,-707,-699,-705,-697,-690,-696,-698,-699,-702,-700,-691,-692,-685,-682,-680,-672,-671,-661,-649,-645,-639,-636,-630,-628,-623,-625,-634,-645,-662,-673,-693,-709,-715,-722,-725,-733,-731,-728,-730,-733,-730,-727,-729,-728,-730,-734,-729,-731,-737,-732,-731,-725,-722,-724,-724,-725,-721,-723,-728,-727,-729,-732,-733,-732,-736,-727,-716,-715,-722,-729,-717,-712,-718,-713,-700,-694,-686,-693,-700,-702,-723,-721,-730,-725,-733,-738,-743,-745,-740,-739,-736,-748,-756,-746,-608,-467,-414,-715
2019-05-16,10:58:41.159,-941,-966,-909,-793,-752,-749,-741,-742,-734,-733,-734,-734,-728,-722,-729,-728,-730,-720,-717,-717,-710,-704,-695,-682,-684,-669,-660,-660,-656,-644,-644,-644,-639,-642,-653,-672,-692,-709,-718,-730,-731,-737,-737,-741,-737,-746,-740,-737,-744,-737,-738,-736,-726,-727,-728,-723,-723,-723,-720,-719,-722,-720,-708,-719,-723,-722,-728,-727,-719,-725,-733,-720,-722,-723,-721,-728,-727,-712,-708,-706,-698,-689,-674,-675,-682,-690,-706,-719,-726,-719,-722,-726,-718,-723,-719,-732,-732,-732,-739,-760,-645,-490,-376,-595,-920,-972,-929,-820,-764,-740,-729,-726,-725,-723,-719,-718,-713,-712,-711,-704,-702,-698,-697,-691,-689,-682,-677,-665
2019-05-16,10:58:42.187,-659,-644,-641,-642,-621,-621,-620,-612,-613,-617,-629,-650,-655,-682,-681,-698,-701,-705,-711,-706,-714,-721,-720,-720,-717,-707,-718,-713,-700,-705,-703,-699,-694,-699,-694,-703,-697,-693,-697,-699,-696,-695,-708,-709,-699,-707,-711,-697,-703,-711,-712,-704,-699,-700,-693,-684,-673,-670,-654,-657,-663,-666,-681,-698,-696,-694,-700,-701,-690,-711,-704,-711,-705,-709,-726,-748,-634,-483,-343,-527,-899,-986,-940,-825,-738,-720,-706,-710,-698,-692,-683,-681,-677,-675,-673,-671,-669,-667,-659,-661,-653,-629,-636,-627,-621,-617,-596,-586,-581,-572,-567,-561,-567,-574,-579,-594,-612,-625,-640,-654,-661,-668,-666,-668,-665,-667,-666,-664
2019-05-16,10:58:43.215,-663,-660,-660,-661,-655,-663,-660,-645,-641,-652,-652,-645,-644,-649,-644,-648,-641,-640,-644,-644,-645,-644,-642,-623,-636,-641,-625,-629,-623,-618,-611,-606,-601,-590,-577,-568,-568,-577,-582,-603,-610,-617,-619,-613,-612,-612,-613,-612,-614,-612,-609,-623,-670,-551,-387,-221,-344,-750,-881,-861,-755,-650,-622,-617,-607,-604,-590,-590,-593,-583,-582,-575,-576,-571,-548,-546,-541,-543,-554,-529,-530,-527,-502,-493,-480,-467,-460,-448,-443,-438,-436,-446,-457,-476,-495,-497,-484,-484,-503,-494,-482,-477,-462,-448,-444,-427,-417,-417,-400,-392,-382,-368,-348,-343,-328,-319,-309,-301,-286,-269,-258,-241,-227,-207,-189,-184,-166,-155
2019-05-16,10:58:44.243,-146,-128,-113,-105,-82,-66,-59,-46,-23,2,17,49,86,102,110,129,132,133,154,174,195,208,220,248,272,294,315,335,359,354,395,592,763,820,399,263,224,297,443,551,591,624,652,684,712,735,766,791,816,837,861,884,907,915,931,959,980,1009,1033,1062,1093,1126,1154,1173,1189,1209,1216,1218,1221,1208,1189,1167,1150,1142,1138,1135,1130,1128,1119,1124,1122,1106,1117,1117,1105,1101,1088,1106,1108,1094,1087,1070,1059,1041,1008,1013,1011,995,971,969,964,947,938,929,921,909,904,904,897,886,864,837,823,801,780,766,747,744,735,728,713,714,725,740,717,681,764,882
2019-05-16,10:58:45.271,963,875,588,503,483,553,651,725,744,762,790,798,778,760,766,773,775,772,780,803,804,812,819,832,843,859,878,891,887,894,891,896,905,911,905,893,891,876,859,874,858,867,877,854,845,844,847,830,831,837,832,821,811,804,805,797,802,810,801,810,816,819,813,815,813,811,810,796,807,805,784,808,799,798,822,823,816,817,824,832,817,808,803,789,781,774,775,771,761,747,740,755,762,755,762,759,751,868,1036,1166,1006,694,606,640,755,834,846,830,834,829,819,826,823,801,800,823,828,834,824,816,815,809,811,818,827,837,844,846
2019-05-16,10:58:46.300,867,875,874,877,870,863,856,843,826,801,762,745,726,723,709,688,678,672,662,672,676,677,674,680,663,676,686,702,660,660,673,674,684,689,696,687,681,680,673,671,672,655,663,664,659,657,646,643,649,661,682,655,634,632,622,610,590,582,578,575,571,562,555,551,555,553,525,511,663,819,915,675,343,267,326,443,494,507,505,521,510,507,510,501,495,503,499,488,486,480,476,477,476,471,477,480,476,480,476,481,502,492,499,490,470,466,456,439,416,395,374,361,354,349,335,327,318,311,321,313,311,319,322,289,292,297,293,295
2019-05-16,10:58:47.328,290,282,274,274,269,259,248,237,219,219,216,216,196,196,196,189,182,180,171,177,184,187,175,164,143,124,110,104,95,88,79,73,68,54,48,52,48,39,5,52,219,390,406,12,-210,-242,-169,-47,4,9,10,6,-1,4,5,-1,-6,-11,-13,-16,-17,-23,-21,-18,-23,-19,-17,-16,-2,9,17,22,44,18,10,15,11,-9,-20,-40,-64,-90,-107,-123,-125,-139,-149,-147,-155,-161,-162,-168,-165,-171,-172,-175,-177,-181,-186,-192,-187,-198,-199,-200,-209,-209,-204,-199,-208,-208,-192,-207,-208,-207,-211,-212,-210,-207,-206,-203,-195,-189,-188,-194,-200,-216,-234,-243
2019-05-16,10:58:48.356,-248,-250,-255,-253,-258,-261,-255,-265,-268,-270,-285,-304,-148,20,141,-134,-475,-561,-522,-407,-320,-304,-297,-297,-292,-290,-292,-294,-280,-283,-281,-281,-283,-283,-280,-269,-269,-266,-261,-252,-233,-223,-210,-203,-187,-188,-180,-170,-164,-163,-170,-186,-208,-224,-234,-263,-265,-264,-268,-273,-276,-276,-275,-282,-286,-281,-279,-273,-271,-287,-284,-277,-273,-279,-272,-272,-275,-275,-272,-285,-284,-277,-282,-283,-279,-281,-276,-273,-255,-258,-242,-232,-207,-211,-212,-214,-215,-231,-231,-242,-242,-244,-246,-243,-245,-253,-248,-247,-246,-261,-274,-136,-5,96,-125,-423,-488,-457,-362,-278,-256,-246,-249,-246,-240,-241,-242,-236
2019-05-16,10:58:49.384,-235,-228,-224,-228,-217,-209,-204,-209,-190,-185,-175,-178,-162,-150,-133,-132,-123,-115,-118,-117,-121,-136,-161,-187,-197,-215,-230,-231,-232,-241,-234,-233,-234,-237,-247,-242,-229,-233,-235,-237,-232,-236,-226,-217,-227,-230,-233,-229,-234,-236,-230,-233,-231,-233,-234,-233,-224,-230,-223,-217,-215,-195,-183,-192,-203,-210,-217,-221,-224,-229,-224,-225,-230,-241,-230,-233,-229,-234,-242,-259,-141,-4,110,-52,-386,-469,-449,-360,-265,-247,-235,-225,-211,-221,-219,-217,-216,-210,-202,-197,-194,-189,-186,-187,-173,-168,-160,-156,-151,-130,-115,-115,-109,-99,-91,-89,-86,-102,-114,-134,-155,-170,-185,-198,-214,-224,-221,-223
2019-05-16,10:58:50.412,-220,-222,-239,-231,-222,-231,-229,-219,-217,-218,-217,-211,-217,-215,-213,-205,-206,-207,-210,-216,-213,-215,-210,-214,-227,-217,-210,-214,-210,-209,-197,-196,-181,-168,-178,-184,-186,-212,-216,-209,-214,-216,-218,-218,-226,-221,-222,-223,-221,-237,-231,-90,65,135,-131,-423,-476,-411,-295,-226,-217,-218,-207,-203,-202,-198,-194,-183,-192,-184,-173,-183,-179,-171,-161,-157,-156,-147,-140,-127,-115,-100,-81,-72,-62,-54,-46,-51,-63,-71,-97,-119,-130,-144,-154,-154,-154,-166,-166,-160,-166,-170,-168,-171,-171,-175,-174,-175,-185,-169,-172,-173,-171,-168,-171,-171,-164,-163,-173,-170,-162,-164,-166,-164,-166,-171,-167,-166
2019-05-16,10:58:51.440,-175,-168,-162,-160,-144,-136,-129,-131,-130,-136,-151,-155,-157,-156,-158,-161,-156,-154,-153,-150,-149,-153,-159,-188,-149,25,184,191,-173,-413,-425,-342,-209,-179,-163,-156,-160,-161,-153,-154,-153,-153,-149,-151,-152,-157,-128,-120,-142,-138,-132,-122,-114,-108,-97,-77,-82,-66,-62,-52,-45,-55,-68,-84,-109,-131,-144,-159,-178,-169,-171,-178,-173,-179,-180,-179,-178,-184,-182,-180,-184,-186,-183,-180,-180,-180,-175,-170,-170,-171,-174,-170,-173,-176,-177,-182,-180,-180,-188,-187,-185,-180,-179,-187,-179,-170,-170,-160,-140,-132,-137,-152,-159,-176,-176,-179,-177,-178,-178,-176,-180,-182,-183,-185,-183,-186,-224,-110
2019-05-16,10:58:52.468,72,230,70,-329,-446,-425,-323,-218,-188,-184,-180,-173,-165,-169,-169,-150,-151,-162,-159,-152,-149,-146,-147,-145,-136,-132,-119,-110,-101,-93,-78,-68,-58,-54,-54,-29,-28,-64,-89,-111,-126,-141,-156,-175,-160,-157,-163,-180,-187,-188,-188,-187,-185,-190,-193,-179,-166,-151,-193,-199,-187,-181,-181,-182,-185,-160,-138,-200,-116,-176,-236,-206,-191,-186,-183,-181,-173,-179,-153,-167,-171,-161,-144,-130,-132,-137,-147,-161,-163,-167,-171,-172,-166,-167,-154,-144,-147,-156,-191,-186,-210,-115,45,186,82,-297,-426,-412,-333,-213,-175,-164,-156,-146,-138,-136,-136,-134,-129,-127,-125,-122,-120,-116,-106,-109,-93,-88
2019-05-16,10:58:53.496,-86,-72,-64,-57,-43,-19,-22,-23,-11,-11,-16,-32,-54,-77,-99,-123,-134,-147,-130,-146,-164,-165,-164,-165,-163,-166,-157,-140,-169,-172,-172,-151,-158,-170,-166,-162,-159,-153,-148,-155,-144,-152,-183,-181,-175,-168,-166,-164,-165,-169,-170,-167,-170,-167,-168,-161,-156,-155,-150,-164,-167,-182,-181,-182,-186,-192,-194,-196,-213,-208,-203,-193,-197,-192,-226,-208,-42,128,183,-171,-438,-485,-423,-284,-227,-215,-207,-200,-210,-196,-163,-171,-185,-182,-175,-176,-174,-171,-173,-155,-148,-154,-149,-147,-143,-134,-117,-101,-93,-77,-83,-80,-83,-96,-116,-142,-171,-159,-162,-185,-191,-198,-199,-207,-202,-198,-166,-204
2019-05-16,10:58:54.524,-231,-214,-209,-214,-217,-216,-171,-134,-181,-259,-239,-227,-214,-222,-221,-223,-227,-228,-235,-233,-246,-243,-237,-233,-245,-239,-228,-228,-218,-207,-177,-186,-187,-190,-211,-226,-244,-238,-239,-239,-241,-247,-255,-263,-241,-234,-250,-288,-237,-59,114,102,-306,-518,-537,-438,-287,-275,-266,-267,-259,-248,-249,-252,-249,-245,-231,-231,-221,-236,-230,-226,-221,-220,-210,-202,-194,-187,-170,-147,-142,-137,-128,-125,-127,-128,-135,-150,-177,-201,-212,-211,-216,-229,-241,-237,-234,-237,-234,-236,-224,-213,-227,-244,-236,-225,-211,-216,-209,-211,-207,-208,-190,-192,-194,-194,-192,-192,-183,-183,-181,-175,-176,-169,-170,-176,-161,-150
2019-05-16,10:58:55.552,-141,-123,-119,-100,-98,-112,-97,-98,-115,-129,-127,-128,-123,-121,-118,-116,-118,-104,-102,-105,-129,-95,81,262,284,-115,-351,-365,-278,-138,-85,-71,-65,-52,-61,-52,-49,-41,-35,-24,-26,-26,-21,-15,-16,6,19,15,24,41,48,64,81,94,107,107,123,124,123,114,95,72,52,36,21,13,14,11,12,3,-5,19,17,4,3,14,14,13,12,17,19,36,54,33,32,27,29,25,21,22,19,21,26,23,28,22,15,16,12,11,37,30,21,37,52,59,51,39,29,5,-1,-5,-3,-6,-13,-8,1,-10,-10,-15,-16,-23,-47,90,261,376,113,-234
2019-05-16,10:58:56.580,-301,-247,-124,-46,-37,-26,-17,-19,-8,-5,-9,-11,5,4,-3,0,-6,4,8,10,11,14,30,29,41,49,63,73,75,75,80,81,60,44,21,2,-21,-28,-48,-59,-65,-66,-74,-76,-77,-80,-73,-79,-92,-90,-86,-82,-92,-80,-87,-85,-73,-87,-79,-85,-83,-88,-93,-94,-96,-103,-102,-103,-114,-112,-108,-105,-102,-96,-81,-86,-89,-105,-119,-135,-134,-136,-140,-147,-153,-159,-158,-164,-163,-165,-172,-188,-171,-40,75,128,-164,-401,-438,-391,-286,-225,-203,-196,-197,-189,-180,-178,-173,-180,-178,-173,-170,-180,-180,-171,-158,-163,-165,-152,-153,-149,-139,-122,-106,-100,-97,-94
2019-05-16,10:58:57.608,-95,-103,-118,-144,-160,-186,-210,-220,-232,-242,-249,-238,-247,-250,-249,-261,-256,-257,-264,-259,-260,-246,-249,-250,-246,-243,-236,-242,-245,-250,-249,-250,-250,-244,-249,-254,-248,-252,-250,-251,-247,-248,-247,-219,-210,-211,-225,-232,-243,-251,-256,-261,-262,-257,-264,-261,-265,-258,-260,-266,-264,-296,-248,-121,-17,-25,-315,-467,-479,-430,-334,-281,-262,-261,-258,-258,-250,-240,-234,-238,-234,-229,-235,-232,-229,-223,-227,-220,-214,-206,-196,-185,-171,-164,-162,-155,-150,-148,-152,-161,-180,-190,-215,-228,-232,-260,-265,-271,-273,-277,-275,-277,-279,-273,-273,-275,-283,-274,-275,-278,-271,-267,-260,-265,-262,-256,-265,-267
2019-05-16,10:58:58.636,-262,-264,-262,-263,-264,-266,-262,-251,-253,-244,-234,-227,-235,-245,-252,-262,-263,-264,-255,-269,-276,-266,-272,-273,-271,-267,-265,-267,-280,-184,-88,-44,-195,-416,-455,-447,-379,-301,-271,-256,-261,-255,-247,-248,-242,-242,-248,-246,-238,-233,-228,-230,-225,-216,-210,-207,-212,-192,-186,-172,-157,-156,-153,-141,-139,-153,-166,-181,-204,-224,-238,-245,-242,-254,-258,-256,-250,-254,-250,-253,-264,-260,-257,-262,-261,-261,-249,-235,-251,-245,-242,-237,-244,-246,-243,-246,-248,-240,-257,-252,-239,-242,-238,-238,-227,-221,-224,-239,-240,-235,-258,-254,-253,-254,-261,-257,-258,-259,-256,-246,-263,-257,-258,-211,-126,-55,-85,-333
2019-05-16,10:58:59.664,-412,-415,-368,-287,-255,-247,-240,-223,-230,-241,-231,-225,-221,-218,-211,-220,-216,-208,-193,-190,-200,-188,-180,-176,-165,-153,-141,-134,-128,-118,-125,-120,-140,-145,-177,-189,-204,-199,-204,-220,-223,-219,-218,-218,-225,-228,-228,-226,-223,-225,-224,-223,-215,-221,-211,-210,-207,-205,-199,-205,-204,-203,-207,-204,-204,-212,-208,-196,-207,-209,-202,-201,-191,-181,-177,-184,-184,-198,-197,-198,-205,-205,-207,-211,-218,-217,-207,-211,-217,-218,-210,-221,-173,-44,47,1,-262,-381,-373,-317,-239,-194,-201,-206,-195,-196,-196,-192,-191,-180,-181,-188,-175,-185,-178,-168,-172,-173,-157,-154,-151,-142,-123,-112,-110,-107,-103,-79
2019-05-16,10:59:00.692,-89,-101,-110,-117,-129,-157,-174,-171,-175,-181,-177,-181,-178,-184,-172,-177,-182,-185,-191,-179,-180,-184,-180,-173,-170,-172,-175,-168,-162,-164,-160,-161,-159,-161,-163,-156,-155,-165,-163,-167,-159,-159,-160,-160,-149,-146,-146,-132,-131,-133,-119,-124,-130,-145,-151,-144,-142,-148,-147,-150,-139,-145,-146,-147,-138,-136,-152,-105,21,146,144,-145,-314,-311,-248,-162,-129,-122,-120,-103,-108,-112,-105,-106,-95,-93,-85,-78,-84,-84,-77,-73,-68,-57,-56,-37,-35,-28,-17,3,12,22,29,34,31,39,9,-2,-11,-29,-37,-46,-47,-46,-46,-44,-37,-36,-45,-34,-42,-39,-45,-40,-35,-38,-31,-30
2019-05-16,10:59:01.720,-25,-27,-28,-18,-13,-6,-7,-12,-4,-10,-4,-4,-2,7,4,6,11,4,1,2,5,10,14,17,35,23,40,46,51,48,53,43,46,28,20,26,20,19,24,21,29,30,31,28,26,24,5,99,242,350,217,-86,-171,-134,-37,20,28,36,37,47,51,46,53,46,53,52,54,57,60,61,64,81,86,82,77,92,103,114,123,135,142,156,158,158,158,150,124,112,96,87,70,63,66,54,66,69,68,68,62,58,56,64,50,46,60,61,61,67,62,60,55,58,62,63,66,62,55,80,71,65,61,57,57,69,61,59,63,71
2019-05-16,10:59:02.748,62,66,52,50,66,69,62,72,75,81,88,102,93,101,99,91,74,68,63,67,61,56,55,66,67,64,64,67,50,48,146,302,402,219,-99,-169,-117,-9,40,52,56,70,61,62,57,66,69,73,67,72,70,67,72,83,97,90,92,93,101,116,126,135,147,163,169,159,174,176,148,138,126,98,81,74,68,65,63,63,63,63,50,63,66,65,47,49,44,45,40,41,42,37,51,54,52,54,52,54,49,50,53,54,56,48,52,45,54,47,42,46,43,44,46,47,51,53,51,54,57,63,66,72,82,90,83,68,64,52
2019-05-16,10:59:03.776,49,48,39,38,43,36,53,47,28,39,37,15,49,190,327,347,55,-164,-169,-116,-6,26,32,35,37,48,56,45,50,50,57,59,57,58,58,62,69,74,78,81,85,92,103,113,124,128,140,148,153,144,139,122,114,87,77,52,44,42,49,41,38,44,46,42,36,35,36,33,36,34,32,30,37,49,45,38,45,44,42,41,43,49,54,35,43,45,42,43,40,41,43,42,47,35,39,33,56,47,36,51,47,50,64,74,76,70,68,58,49,52,51,46,40,43,41,39,51,46,42,47,22,64,196,304,320,43,-133,-143
2019-05-16,10:59:04.804,-77,-3,50,67,69,80,88,93,102,103,110,120,122,130,134,148,145,160,171,177,186,202,220,236,251,273,280,293,306,308,314,309,298,283,272,266,270,270,271,264,268,277,281,289,294,302,314,316,327,342,349,355,375,370,384,396,404,410,419,431,445,439,460,458,461,471,479,493,496,501,510,521,532,541,547,561,563,577,588,598,615,639,636,633,643,641,641,643,653,653,657,667,680,691,691,695,702,707,702,752,868,965,957,698,572,552,616,707,756,773,790,787,800,814,808,829,829,829,844,853,864,867,864,880,895,899,918,927
2019-05-16,10:59:05.833,936,956,972,984,1002,1008,1024,1025,1019,1013,997,977,975,951,946,936,937,938,944,942,942,938,942,949,949,944,954,962,956,963,972,964,972,979,975,974,978,988,975,978,983,981,988,982,980,983,983,989,992,982,985,984,985,983,986,984,986,997,996,1012,1013,1020,1025,1018,1020,1014,999,997,991,987,982,972,978,989,985,974,977,978,966,952,1063,1198,1288,1115,821,752,787,884,945,972,976,973,970,979,974,968,966,965,967,967,961,973,974,970,970,978,981,980,984,986,996,1006,1012,1019,1024,1029,1030,1021,999,996,978,951,936,918,912,902,898,904
2019-05-16,10:59:06.861,896,894,888,897,893,883,882,873,866,869,861,872,872,872,852,871,868,859,856,854,846,847,840,842,836,833,834,831,831,817,815,821,817,812,809,804,798,796,803,800,802,799,812,821,819,810,793,776,765,759,760,757,752,751,747,742,754,749,747,719,740,899,1052,1068,743,496,485,562,683,717,722,721,727,727,726,727,732,734,739,745,745,755,756,763,767,769,779,783,805,818,823,835,851,869,882,890,893,891,890,884,864,854,839,836,840,826,826,826,827,832,837,839,843,835,826,831,843,848,859,860,861,862,872,872,880,894,901,906
2019-05-16,10:59:07.889,908,906,892,883,883,885,887,886,882,890,904,896,903,896,896,903,901,903,908,908,916,900,892,870,840,837,827,817,804,793,777,767,755,753,754,744,721,847,1006,1079,783,472,423,479,603,657,666,650,644,639,630,628,626,633,618,613,616,620,626,629,626,621,624,630,635,646,644,652,673,707,715,721,704,714,717,703,679,673,666,642,625,618,620,616,618,621,627,631,612,617,639,632,637,632,607,611,606,611,614,626,631,635,627,619,621,626,650,663,669,664,669,694,687,694,700,721,729,718,710,711,688,671,674,662,655,650,642,633
2019-05-16,10:59:08.917,626,625,622,629,609,568,686,851,993,717,347,263,312,432,511,529,548,534,534,538,531,524,522,517,518,510,506,507,513,498,499,497,494,499,500,505,511,519,514,520,529,527,504,491,466,433,401,355,329,314,303,283,281,267,254,230,222,223,214,211,203,199,194,205,193,182,173,167,156,146,134,125,113,94,113,97,84,68,60,52,42,39,44,25,-4,7,14,-27,-42,-61,-75,-88,-102,-111,-123,-134,-148,-157,-164,-192,-236,-103,56,173,-83,-440,-528,-491,-371,-310,-293,-304,-305,-302,-310,-318,-345,-346,-352,-353,-363,-365,-373,-370,-373,-385,-369,-385
2019-05-16,10:59:09.945,-395,-392,-386,-382,-373,-369,-380,-372,-376,-393,-404,-438,-469,-487,-511,-533,-545,-553,-565,-571,-588,-587,-591,-586,-599,-609,-617,-619,-632,-641,-643,-647,-653,-649,-659,-652,-663,-669,-659,-674,-688,-693,-694,-702,-704,-698,-697,-702,-696,-679,-688,-699,-720,-737,-753,-754,-764,-777,-777,-776,-779,-802,-795,-795,-810,-816,-848,-776,-623,-504,-587,-960,-1090,-1075,-998,-891,-867,-862,-859,-847,-841,-836,-833,-836,-831,-836,-838,-830,-831,-834,-833,-825,-822,-816,-817,-810,-796,-788,-775,-765,-764,-753,-747,-745,-762,-773,-790,-817,-840,-848,-855,-860,-865,-876,-890,-892,-891,-897,-898,-911,-914,-905,-904,-924,-926,-922,-922,-933
2019-05-16,10:59:10.973,-934,-931,-936,-941,-930,-914,-925,-933,-924,-930,-921,-913,-910,-912,-914,-914,-922,-935,-944,-947,-943,-953,-956,-956,-953,-945,-947,-952,-947,-971,-893,-792,-720,-797,-1071,-1151,-1154,-1094,-998,-953,-951,-932,-935,-943,-935,-928,-923,-917,-925,-918,-900,-905,-900,-894,-894,-887,-876,-874,-868,-851,-823,-818,-820,-821,-798,-807,-812,-819,-834,-862,-876,-882,-880,-900,-910,-908,-914,-917,-912,-914,-916,-910,-909,-901,-884,-900,-898,-892,-887,-888,-882,-881,-884,-876,-880,-864,-861,-865,-863,-857,-847,-835,-833,-840,-829,-850,-869,-858,-865,-864,-860,-854,-851,-850,-856,-849,-833,-834,-854,-821,-705,-639,-657,-894,-998,-1018,-955,-873
2019-05-16,10:59:12.001,-826,-813,-814,-806,-806,-799,-784,-779,-789,-773,-774,-772,-765,-765,-757,-750,-740,-723,-710,-709,-696,-682,-669,-655,-651,-643,-641,-639,-644,-663,-689,-701,-705,-724,-730,-729,-727,-729,-729,-729,-732,-726,-735,-742,-730,-710,-719,-724,-713,-704,-709,-702,-697,-707,-701,-705,-708,-703,-697,-703,-700,-692,-693,-687,-674,-660,-659,-662,-676,-695,-693,-694,-697,-702,-709,-701,-694,-707,-700,-694,-696,-693,-713,-664,-533,-412,-418,-683,-852,-863,-805,-710,-682,-676,-666,-658,-653,-645,-638,-633,-634,-641,-621,-618,-619,-618,-614,-609,-603,-590,-580,-585,-579,-563,-547,-534,-525,-513,-510,-504,-502,-525,-541,-556,-568,-583,-585,-593
2019-05-16,10:59:13.029,-587,-588,-580,-584,-591,-576,-574,-585,-582,-580,-578,-576,-574,-573,-571,-567,-562,-569,-562,-558,-554,-550,-546,-540,-540,-546,-539,-528,-530,-514,-508,-503,-502,-504,-511,-524,-532,-531,-529,-541,-516,-520,-531,-531,-528,-526,-527,-524,-535,-498,-359,-237,-257,-551,-734,-710,-621,-534,-521,-520,-490,-488,-487,-486,-489,-476,-478,-472,-473,-466,-469,-464,-455,-458,-440,-429,-432,-418,-404,-399,-387,-381,-364,-354,-344,-343,-352,-351,-369,-383,-406,-406,-425,-432,-425,-432,-429,-428,-428,-428,-422,-423,-420,-435,-429,-423,-424,-423,-425,-419,-417,-411,-412,-410,-403,-401,-406,-397,-383,-392,-395,-394,-396,-394,-389,-371,-380,-371
2019-05-16,10:59:14.057,-357,-334,-333,-336,-331,-338,-355,-358,-362,-355,-363,-357,-348,-334,-340,-346,-334,-336,-344,-353,-330,-197,-46,-32,-341,-584,-594,-513,-403,-371,-365,-354,-349,-355,-345,-337,-342,-327,-329,-334,-331,-318,-321,-317,-314,-303,-290,-284,-276,-263,-255,-240,-229,-215,-209,-203,-198,-200,-189,-218,-242,-260,-272,-284,-291,-295,-292,-298,-289,-293,-299,-289,-297,-296,-302,-303,-300,-303,-307,-311,-301,-294,-288,-288,-294,-290,-285,-285,-285,-281,-283,-283,-277,-280,-282,-286,-281,-282,-282,-282,-281,-275,-270,-260,-264,-244,-228,-240,-246,-247,-261,-269,-275,-274,-281,-275,-260,-277,-272,-272,-263,-271,-269,-293,-202,-45,83,-26
2019-05-16,10:59:15.085,-382,-497,-466,-371,-280,-263,-258,-252,-244,-240,-234,-232,-240,-224,-215,-227,-205,-210,-218,-209,-204,-199,-197,-178,-170,-161,-142,-131,-124,-115,-110,-107,-101,-106,-117,-128,-144,-155,-171,-171,-162,-181,-178,-170,-160,-155,-160,-151,-148,-146,-143,-136,-131,-118,-114,-99,-90,-83,-73,-75,-60,-57,-55,-43,-42,-25,-14,-19,-14,-9,6,16,22,35,58,65,78,92,91,92,85,84,93,96,101,116,117,128,134,146,152,160,171,160,199,326,406,386,150,56,37,100,195,250,266,282,285,302,325,324,334,354,358,368,384,394,402,423,434,442,454,473,487,507,528,540,552,575
2019-05-16,10:59:16.113,587,596,595,605,604,589,572,562,559,561,566,575,579,580,587,605,615,611,629,628,651,663,670,676,687,695,698,723,736,729,730,736,747,753,763,769,770,778,780,796,806,812,822,828,848,841,855,848,844,840,839,849,852,863,867,859,872,875,872,875,878,917,1016,1090,1091,912,791,765,791,861,931,946,959,965,966,962,978,981,973,976,980,981,992,998,1006,1000,1009,1017,1012,1022,1035,1046,1054,1064,1070,1073,1080,1070,1060,1053,1040,1019,1002,994,983,980,981,961,960,974,958,953,954,953,948,941,940,940,938,935,931,939,926,939,929,913,908,906
2019-05-16,10:59:17.141,901,897,890,885,882,887,877,870,874,866,874,867,862,861,864,870,869,857,851,832,821,802,801,799,792,784,781,777,770,763,758,748,729,818,936,1012,873,604,538,552,617,679,698,689,703,695,687,685,684,666,671,670,681,675,669,664,652,649,647,653,656,660,667,662,668,682,675,671,666,653,645,626,607,584,567,559,537,529,515,510,501,487,485,483,478,463,461,452,445,440,433,435,430,420,419,411,411,407,405,393,388,380,381,378,366,353,352,356,342,337,322,334,322,310,320,312,306,304,308,316,311,303,299,286,272,266,255,239
2019-05-16,10:59:18.169,247,241,235,225,217,207,205,201,178,210,335,466,438,154,-32,-27,39,125,143,145,146,149,154,148,140,139,132,138,136,134,131,134,133,126,121,126,139,144,131,138,155,156,160,164,167,164,161,169,140,116,72,53,35,23,18,17,15,15,3,8,14,-4,-10,-11,-16,-14,-11,-16,-29,-24,-9,-26,-28,-29,-35,-32,-31,-30,-39,-28,-26,-31,-38,-37,-39,-40,-41,-47,-48,-43,-49,-43,-59,-61,-57,-49,-45,-41,-32,-29,-17,-23,-36,-43,-55,-68,-75,-71,-76,-78,-85,-76,-85,-79,-80,-88,-100,-100,28,176,241,-4,-285,-313,-247,-137,-107,-96
2019-05-16,10:59:19.197,-91,-78,-83,-89,-83,-76,-85,-90,-73,-70,-72,-75,-77,-73,-69,-66,-54,-59,-44,-34,-30,-12,-10,-5,5,13,3,-8,-10,-43,-58,-70,-81,-96,-102,-105,-112,-112,-116,-114,-120,-127,-116,-129,-130,-126,-135,-137,-132,-130,-132,-134,-132,-132,-130,-131,-123,-140,-154,-157,-154,-152,-155,-153,-151,-155,-164,-157,-167,-152,-154,-160,-159,-159,-164,-163,-172,-154,-150,-145,-142,-133,-127,-120,-130,-165,-173,-168,-176,-184,-178,-179,-182,-185,-185,-187,-173,-193,-223,-121,33,158,11,-349,-449,-414,-303,-222,-199,-213,-210,-197,-193,-192,-193,-193,-191,-193,-177,-192,-189,-180,-177,-175,-174,-175,-165,-148
2019-05-16,10:59:20.225,-154,-133,-127,-117,-116,-110,-112,-105,-104,-130,-147,-154,-170,-188,-203,-220,-217,-225,-227,-226,-232,-238,-236,-242,-247,-239,-230,-237,-232,-234,-241,-240,-238,-238,-238,-230,-231,-234,-225,-242,-246,-253,-252,-248,-249,-251,-251,-247,-258,-256,-247,-248,-252,-255,-261,-258,-255,-256,-259,-256,-246,-227,-230,-215,-217,-242,-243,-264,-278,-283,-282,-284,-282,-291,-291,-284,-287,-294,-300,-304,-319,-189,-31,92,-164,-508,-568,-523,-400,-331,-317,-308,-299,-300,-302,-298,-292,-296,-288,-285,-289,-296,-293,-286,-285,-286,-282,-276,-265,-257,-247,-233,-217,-214,-214,-207,-213,-208,-213,-229,-229,-257,-284,-301,-312,-314,-319,-320
2019-05-16,10:59:21.253,-322,-321,-319,-321,-320,-319,-330,-317,-321,-313,-333,-325,-314,-309,-308,-307,-312,-309,-315,-311,-316,-320,-318,-319,-321,-320,-323,-321,-317,-318,-320,-310,-312,-310,-321,-316,-309,-301,-299,-296,-278,-263,-276,-291,-305,-314,-313,-312,-317,-319,-318,-308,-322,-322,-310,-325,-335,-333,-218,-116,-57,-280,-498,-529,-499,-420,-324,-333,-316,-305,-304,-296,-294,-297,-290,-283,-277,-268,-270,-278,-259,-248,-253,-245,-233,-219,-205,-190,-170,-153,-143,-140,-132,-127,-128,-130,-138,-157,-171,-173,-176,-175,-187,-183,-177,-168,-160,-150,-145,-133,-121,-111,-96,-91,-81,-68,-60,-45,-52,-36,-9,-5,7,1,12,24,32,41
2019-05-16,10:59:22.281,52,60,77,89,99,105,120,136,146,166,185,200,216,242,239,234,245,260,265,277,284,301,305,331,357,354,362,369,376,486,593,657,531,333,312,327,400,506,543,564,579,605,623,640,654,675,683,713,730,747,763,781,795,810,831,855,887,896,915,947,976,982,996,1013,1024,1025,1023,1018,995,989,979,979,966,963,971,952,956,950,945,941,936,933,929,931,914,916,913,906,893,876,876,856,836,822,811,802,780,763,752,733,717,705,691,685,672,658,654,656,648,628,604,587,560,531,512,497,482,461,452,443,422,406,393,374,361,346,409,479
2019-05-16,10:59:23.309,529,439,233,163,144,196,261,286,287,292,287,290,299,296,276,281,296,312,333,319,332,348,349,366,371,374,389,401,419,412,394,410,425,430,433,427,417,399,397,375,365,365,363,360,365,365,353,339,341,345,338,340,325,332,329,331,341,337,355,364,343,336,342,339,330,328,316,307,308,318,301,291,290,288,288,288,299,299,308,297,286,271,250,245,243,240,240,232,222,224,221,206,211,205,184,192,285,359,382,182,25,-13,36,105,152,166,171,161,168,173,157,152,159,150,141,139,137,136,135,137,122,119,129,141,126,133,133,145
2019-05-16,10:59:24.337,131,138,127,112,119,101,70,41,20,9,-7,-25,-33,-45,-46,-41,-49,-69,-62,-78,-88,-91,-92,-96,-102,-104,-115,-117,-109,-110,-120,-122,-134,-147,-153,-157,-164,-166,-175,-173,-182,-200,-201,-196,-213,-218,-232,-242,-230,-237,-232,-236,-233,-235,-244,-247,-256,-271,-287,-296,-296,-304,-306,-314,-320,-319,-326,-331,-338,-323,-356,-314,-174,-68,-137,-421,-547,-522,-448,-391,-374,-376,-368,-370,-373,-375,-382,-380,-376,-373,-384,-381,-385,-378,-378,-383,-384,-383,-377,-383,-375,-372,-355,-344,-345,-332,-347,-342,-347,-358,-378,-394,-417,-421,-440,-429,-446,-459,-453,-460,-459,-461,-469,-471,-471,-464,-467,-478
2019-05-16,10:59:25.366,-475,-477,-493,-482,-491,-494,-484,-487,-493,-491,-480,-487,-496,-495,-491,-492,-500,-504,-507,-507,-503,-502,-505,-508,-498,-492,-496,-493,-484,-485,-481,-478,-487,-485,-488,-503,-523,-526,-532,-525,-529,-525,-541,-535,-529,-533,-532,-553,-532,-393,-253,-239,-523,-748,-748,-661,-580,-556,-542,-539,-536,-539,-535,-537,-534,-514,-532,-531,-530,-530,-528,-521,-518,-516,-515,-510,-494,-490,-464,-457,-451,-437,-418,-425,-422,-414,-425,-441,-456,-483,-482,-500,-516,-517,-515,-523,-521,-520,-521,-515,-514,-517,-496,-494,-514,-516,-519,-522,-517,-507,-503,-502,-501,-485,-483,-500,-490,-486,-483,-482,-480,-483,-480,-481,-472,-473,-480,-473
2019-05-16,10:59:26.394,-476,-478,-483,-483,-486,-469,-468,-468,-454,-449,-441,-431,-425,-433,-427,-441,-456,-473,-461,-466,-458,-463,-470,-455,-463,-455,-470,-455,-466,-484,-361,-175,-69,-291,-646,-712,-650,-528,-466,-456,-448,-440,-429,-428,-436,-456,-450,-447,-449,-446,-442,-438,-431,-422,-420,-413,-399,-406,-396,-375,-360,-351,-334,-319,-314,-315,-294,-306,-325,-337,-354,-382,-394,-405,-406,-411,-421,-419,-393,-405,-408,-419,-412,-410,-411,-417,-418,-417,-423,-400,-395,-397,-411,-401,-403,-395,-388,-385,-384,-384,-383,-386,-376,-357,-385,-384,-380,-383,-380,-372,-369,-373,-375,-363,-370,-371,-363,-368,-356,-346,-348,-345,-329,-318,-311,-315,-314,-336
2019-05-16,10:59:27.422,-349,-346,-347,-348,-355,-353,-348,-353,-346,-337,-354,-340,-369,-330,-173,-25,-17,-348,-548,-564,-507,-387,-347,-336,-327,-327,-312,-309,-316,-310,-305,-299,-296,-288,-285,-294,-284,-277,-273,-271,-265,-248,-242,-230,-218,-206,-191,-182,-180,-179,-184,-181,-204,-221,-230,-247,-269,-271,-280,-276,-281,-280,-275,-281,-282,-281,-282,-280,-272,-269,-266,-263,-259,-260,-254,-249,-254,-249,-245,-240,-240,-240,-237,-241,-247,-246,-243,-243,-241,-242,-242,-241,-234,-232,-225,-227,-221,-210,-195,-198,-204,-206,-211,-221,-230,-226,-224,-235,-230,-216,-224,-234,-232,-231,-220,-227,-251,-158,-35,46,-76,-343,-407,-412,-341,-249,-229,-213
2019-05-16,10:59:28.450,-215,-206,-205,-199,-185,-201,-191,-183,-172,-175,-171,-172,-172,-162,-160,-148,-137,-129,-123,-99,-87,-75,-74,-69,-62,-68,-76,-87,-107,-131,-150,-162,-164,-171,-176,-178,-177,-178,-180,-178,-180,-176,-171,-174,-170,-168,-167,-164,-156,-158,-154,-156,-150,-133,-126,-123,-122,-110,-118,-119,-119,-125,-128,-123,-118,-126,-116,-111,-108,-94,-88,-89,-80,-85,-95,-103,-114,-114,-118,-116,-119,-120,-114,-120,-113,-118,-113,-109,-135,-116,-10,74,89,-111,-267,-288,-254,-195,-130,-105,-93,-96,-87,-81,-92,-89,-75,-86,-85,-84,-79,-67,-61,-57,-44,-49,-47,-35,-19,-20,-13,0,2,23,17,21,13,-2
2019-05-16,10:59:29.478,-20,-37,-52,-60,-71,-70,-79,-78,-79,-78,-68,-86,-87,-84,-82,-77,-72,-74,-65,-60,-58,-47,-42,-55,-50,-44,-47,-43,-36,-47,-36,-32,-35,-29,-28,-27,-24,-24,-9,2,14,9,16,37,43,30,35,31,33,37,44,42,48,58,68,61,72,75,87,92,81,129,238,316,297,85,-16,-23,36,113,163,174,196,200,223,233,221,242,257,258,266,276,287,310,306,324,328,346,366,374,394,407,424,449,460,465,470,493,487,474,469,455,452,448,452,455,446,451,461,475,476,474,481,487,495,503,525,531,532,543,540,559,568,571,581,588,596,597
2019-05-16,10:59:30.506,599,618,631,620,626,634,635,637,648,650,657,671,678,685,679,694,697,711,718,727,744,742,745,747,732,732,733,734,739,735,729,723,726,745,736,742,747,723,772,902,1020,993,725,572,590,643,728,749,753,766,768,786,789,793,798,777,781,790,788,794,793,803,803,819,821,822,818,824,845,854,868,879,887,890,896,893,894,873,858,840,822,817,809,816,817,812,806,789,797,801,797,805,803,803,805,804,808,798,793,795,794,798,800,801,797,798,799,797,791,799,787,790,795,786,795,799,793,794,800,793,794,787,789,795,797,805,806,819
2019-05-16,10:59:31.534,828,835,818,816,795,779,787,787,780,778,782,782,779,768,765,772,761,742,870,1034,1099,894,571,528,586,701,747,774,765,764,777,767,752,745,740,738,742,745,740,749,748,744,751,748,749,751,759,767,780,794,803,813,809,818,816,811,803,783,762,735,738,697,698,690,682,677,681,677,676,674,668,672,648,648,650,648,640,642,632,637,637,640,644,640,638,633,632,622,617,615,613,612,613,604,591,583,590,585,588,585,574,566,569,568,576,575,577,584,589,594,581,577,561,551,544,527,531,521,519,509,514,506,503,502,500,478,476,632
2019-05-16,10:59:32.562,800,851,533,206,185,276,401,436,444,450,451,458,458,433,436,443,431,436,433,431,429,426,427,433,429,414,428,434,437,451,464,471,465,471,473,470,463,449,410,389,373,362,336,324,314,311,307,300,305,293,284,274,273,270,270,261,255,253,248,249,248,249,253,241,239,234,233,230,221,217,214,212,210,206,201,195,202,203,186,187,180,176,178,177,177,174,186,186,196,213,192,182,169,154,142,135,130,123,106,135,130,113,99,93,96,79,65,176,296,393,223,-77,-149,-118,-42,46,49,58,59,65,66,56,60,71,76,72,51,51
2019-05-16,10:59:33.590,56,62,59,56,55,65,73,75,76,83,100,106,108,111,99,100,90,70,50,30,10,-5,-17,-25,-22,-29,-46,-52,-55,-61,-57,-60,-70,-76,-82,-83,-78,-75,-70,-85,-82,-83,-93,-92,-95,-103,-105,-94,-96,-101,-108,-123,-122,-120,-121,-120,-118,-116,-119,-109,-105,-97,-106,-98,-110,-125,-132,-135,-147,-147,-156,-152,-159,-162,-156,-158,-156,-160,-174,-103,0,60,-47,-290,-346,-343,-286,-204,-179,-172,-165,-165,-167,-163,-159,-162,-172,-176,-170,-166,-163,-159,-161,-156,-146,-147,-145,-128,-127,-123,-117,-102,-97,-96,-94,-89,-104,-116,-136,-162,-174,-181,-197,-200,-185,-184,-189,-188
2019-05-16,10:59:34.618,-194,-191,-183,-189,-197,-188,-197,-186,-185,-185,-185,-186,-182,-188,-188,-185,-184,-181,-181,-190,-207,-208,-208,-201,-206,-211,-207,-200,-207,-193,-184,-184,-180,-193,-191,-203,-212,-215,-219,-230,-225,-228,-215,-221,-219,-230,-230,-233,-238,-233,-154,-73,-51,-219,-355,-411,-387,-325,-260,-236,-237,-236,-218,-225,-227,-236,-230,-225,-230,-226,-224,-219,-209,-221,-210,-198,-188,-187,-184,-182,-167,-162,-160,-154,-151,-162,-167,-164,-191,-212,-218,-229,-246,-246,-250,-247,-256,-259,-260,-257,-264,-260,-268,-271,-261,-264,-259,-253,-252,-253,-244,-256,-259,-249,-243,-248,-255,-252,-256,-249,-252,-260,-261,-261,-258,-263,-265,-264
2019-05-16,10:59:35.646,-248,-242,-245,-238,-228,-229,-239,-243,-246,-252,-258,-258,-265,-261,-256,-264,-267,-262,-263,-256,-258,-260,-267,-190,-100,-31,-128,-346,-397,-391,-328,-268,-240,-227,-221,-212,-211,-200,-203,-199,-197,-190,-184,-186,-167,-159,-160,-149,-139,-134,-130,-122,-108,-89,-72,-69,-64,-59,-46,-37,-54,-57,-66,-82,-94,-96,-98,-93,-90,-90,-83,-76,-80,-72,-71,-63,-65,-58,-47,-43,-30,-14,-12,-18,-8,5,8,11,12,15,5,14,20,23,26,28,27,42,35,46,45,53,58,66,66,73,83,97,91,110,113,109,115,114,100,100,105,100,107,120,117,115,117,120,116,119,118,106
