2019-06-01,11:35:31.560,-40,-38,-38,-41,-34,-38,-32,-34,-39,-44,-39,-40,-43,-44,-53,-46,-41,-43,-40,-44,-50,-55,-56,-46,-45,-51,-51,-53,-49,-49,-50,-48,-50,-33,-40,-20,-16,-24,-21,-32,-44,-52,-48,-47,-60,-59,-46,-42,-49,-56,-67,-46,254,588,415,60,56,31,1,-8,-26,-30,-33,-42,-29,-29,-24,-29,-22,-13,-3,7,4,9,14,28,39,37,48,60,66,73,79,93,119,136,136,116,87,55,28,7,-17,-18,-21,-15,-15,-24,-26,-17,-19,-23,-31,-28,-21,-24,-29,-30,-30,-24,-27,-34,-40,-38,-45,-30,-30,-38,-37,-42,-40,-39,-35,-34,-38,-36,-42,-51
2019-06-01,11:35:32.586,-65,-58,-56,-58,-56,-68,-58,-45,-44,-50,-48,-46,-31,-28,-31,-27,-25,-49,-62,-54,-52,-51,-58,-65,-54,-51,-53,-64,-13,324,609,322,38,50,35,2,-24,-37,-31,-35,-35,-40,-37,-34,-25,-22,-14,-13,-6,5,12,17,22,21,32,39,45,51,67,86,102,116,129,132,116,88,56,23,-4,-13,-27,-32,-23,-21,-20,-23,-23,-25,-29,-37,-22,-28,-23,-17,-15,-17,-25,-29,-34,-39,-20,-26,-31,-32,-37,-47,-49,-38,-42,-46,-35,-42,-53,-47,-37,-42,-42,-20,-13,-47,-16,-13,-23,-32,-25,-50,-49,-17,-32,-52,-54,-58,-60,-59,-60,-58,-79,21
2019-06-01,11:35:33.611,369,600,226,24,33,16,-16,-29,-46,-57,-50,-53,-60,-44,-25,-11,-13,-20,-5,-5,-5,-9,10,14,22,32,48,58,67,85,94,110,123,133,128,100,66,30,2,-13,-25,-41,-48,-58,-55,-46,-48,-27,-19,-44,-48,-36,-30,-31,-34,-32,-35,-37,-37,-38,-40,-36,-36,-43,-41,-44,-44,-53,-63,-29,-42,-52,-51,-42,-36,-23,-42,-39,-30,-20,-14,-17,-25,-26,-39,-42,-48,-50,-49,-60,-57,-54,-59,-57,-55,-79,-2,365,632,303,43,44,25,-5,-27,-36,-37,-40,-36,-38,-45,-30,-25,-27,-7,-8,-8,-2,-4,-1,11,30,40,43,59,73,90,104
2019-06-01,11:35:34.637,125,139,165,161,133,92,46,50,21,7,-23,-10,-12,-16,-18,-17,-16,-16,-15,-18,-20,-18,-16,-12,-17,-18,-18,-26,-28,-14,-19,-13,-21,-21,-19,-35,-27,-19,-30,-54,-42,-27,-25,-22,-25,-20,-13,-7,-14,-20,-22,-37,-45,-34,-35,-47,-42,-47,-56,-42,-54,-51,-63,94,460,578,117,12,17,8,-14,-22,-32,-31,-33,-30,-23,-23,-21,-19,-18,-8,-5,7,17,18,28,37,52,57,72,70,90,98,121,129,138,143,126,98,57,21,1,-9,-18,-29,-42,-38,-30,-33,-34,-32,-26,-26,-27,-34,-35,-24,-22,-33,-38,-43,-31,-30,-26,-33,-35,-35
2019-06-01,11:35:35.663,-49,-38,-46,-51,-48,-50,-44,-56,-57,-39,-50,-50,-37,-43,-44,-31,-25,-17,-24,-29,-33,-51,-64,-61,-58,-54,-50,-53,-63,-60,-59,-66,-74,120,510,571,96,36,43,15,-15,-29,-28,-45,-34,-27,-26,-22,-19,-22,-16,-11,-5,-12,-2,2,20,40,52,57,63,73,92,101,118,128,139,153,133,84,68,41,6,-9,-16,-22,-27,-26,-29,-30,-28,-27,-29,-22,-23,-26,-25,-21,-24,-28,-31,-21,-17,-21,-37,-32,-35,-39,-35,-40,-33,-31,-33,-40,-47,-50,-52,-41,-31,-26,-19,-14,-19,-20,-18,-42,-55,-61,-49,-51,-56,-52,-51,-59,-69,-63,-60,-66
2019-06-01,11:35:36.688,145,511,488,17,-18,-12,-26,-43,-52,-51,-56,-61,-60,-55,-44,-37,-42,-48,-33,-21,-11,-9,-1,9,20,27,38,55,71,89,101,108,125,128,124,88,53,22,-4,-14,-43,-54,-40,-57,-47,-36,-43,-79,-63,-57,-46,-38,-44,-51,-54,-49,-45,-39,-46,-52,-55,-44,-42,-54,-47,-50,-40,-42,-46,-29,-21,-45,-20,-12,-18,-24,-30,-61,-54,-48,-43,-43,-48,-60,-62,-54,-53,-78,-70,77,403,558,109,-51,-20,-7,-18,-27,-22,-20,-17,-26,-11,-16,-11,-5,11,9,9,33,47,57,55,58,78,94,116,116,125,147,172,192,181,166,138,97,68,27
2019-06-01,11:35:37.714,22,-2,-16,-14,-5,-26,-23,-51,-39,-17,-8,-19,-32,-18,-10,-21,-29,-20,-17,-23,-29,-14,-19,-41,-32,-26,-26,-39,-45,-39,-48,-42,-33,-31,-33,-28,-26,-27,-37,-54,-65,-72,-67,-62,-64,-66,-67,-65,-73,-71,-70,-55,175,524,499,41,-4,13,8,-3,-14,-21,-20,-23,-20,-20,-19,-13,-10,-6,-1,10,17,22,25,28,41,47,60,74,80,89,106,118,133,145,143,112,74,40,9,-18,-30,-40,-49,-50,-55,-57,-55,-53,-43,-45,-44,-38,-36,-37,-42,-50,-40,-25,-27,-23,-30,-35,-37,-42,-46,-46,-56,-53,-45,-42,-48,-40,-37,-41,-38,-28
2019-06-01,11:35:38.740,-45,-56,-64,-70,-82,-82,-90,-92,-92,-87,-84,-91,-94,-90,-95,-112,-79,227,534,322,-23,-12,-27,-38,-51,-72,-78,-62,-57,-61,-59,-51,-65,-43,-30,-18,-15,-3,1,5,17,25,44,55,72,99,116,126,141,169,168,150,113,64,28,-1,-22,-39,-45,-47,-52,-52,-49,-50,-52,-49,-36,-45,-45,-42,-45,-43,-48,-43,-42,-48,-55,-58,-56,-50,-55,-55,-59,-51,-49,-55,-52,-47,-46,-42,-37,-36,-48,-60,-61,-72,-76,-72,-62,-65,-72,-78,-74,-67,-39,160,455,375,-93,-96,-52,-31,-44,-47,-42,-33,-33,-29,-24,-13,-13,-9,-4,1,-2,11,41,46
2019-06-01,11:35:39.765,39,51,66,82,99,115,130,142,148,163,171,139,107,66,25,-7,-30,-40,-45,-55,-54,-56,-52,-48,-48,-46,-50,-44,-45,-47,-50,-47,-41,-48,-47,-46,-50,-51,-53,-47,-50,-40,-36,-36,-36,-31,-15,-22,-22,-24,-28,-42,-52,-46,-56,-55,-53,-56,-55,-49,-51,-51,-47,36,329,555,210,-79,-38,-11,-11,-15,-20,-21,-21,-11,-6,-2,-4,-1,3,9,12,23,43,55,64,77,82,97,116,137,149,164,178,178,197,199,169,127,90,51,17,5,-4,-14,-20,-24,-23,-25,-27,-19,-12,-13,-10,-9,-13,-15,-13,-13,-13,-18,-31,-35,-26,-17,-21,-21
2019-06-01,11:35:40.791,-44,-49,-51,-47,-51,-53,-57,-57,-51,-43,-40,-24,-22,-36,-40,-38,-49,-59,-59,-66,-60,-53,-54,-59,-61,-60,-66,-70,52,384,578,179,-27,-2,0,-25,-32,-28,-32,-34,-23,-23,-21,-21,-15,-9,-4,-6,4,25,28,33,42,55,63,77,95,109,113,139,159,166,166,142,107,68,39,3,-17,-24,-35,-33,-29,-30,-32,-40,-39,-36,-41,-51,-40,-32,-27,-37,-45,-42,-39,-47,-49,-48,-47,-51,-50,-50,-49,-61,-61,-58,-57,-60,-59,-60,-61,-55,-55,-50,-46,-38,-34,-35,-44,-45,-46,-59,-64,-62,-68,-66,-69,-60,-51,-58,-66,-70,-11,305,569,309
2019-06-01,11:35:41.817,-35,-19,-15,-33,-43,-54,-51,-52,-53,-56,-46,-41,-34,-32,-27,-10,-1,3,9,22,20,35,52,66,83,86,100,112,129,149,158,146,113,75,38,8,-12,-31,-41,-43,-36,-32,-30,-38,-35,-34,-31,-20,-22,-32,-36,-39,-43,-48,-49,-45,-38,-42,-53,-60,-58,-53,-51,-49,-49,-54,-51,-54,-57,-59,-56,-49,-30,-31,-39,-39,-42,-57,-62,-67,-67,-70,-73,-67,-67,-70,-75,-72,-54,159,500,510,25,-25,-3,-7,-28,-43,-40,-34,-33,-24,-21,-25,-25,-10,-4,0,4,12,11,23,34,44,62,75,89,104,114,133,142,157,167,162,129,90,53,25
2019-06-01,11:35:42.842,-13,-26,-37,-43,-46,-41,-47,-49,-43,-47,-57,-54,-48,-49,-56,-56,-49,-48,-50,-53,-54,-48,-48,-59,-67,-55,-50,-59,-65,-55,-56,-58,-54,-54,-46,-24,-36,-44,-39,-41,-56,-69,-69,-64,-68,-76,-73,-74,-86,-81,-82,-31,247,542,362,-49,-26,-12,-28,-28,-44,-51,-40,-38,-31,-31,-27,-25,-17,-8,0,8,0,10,23,35,40,46,53,68,85,101,118,132,135,134,138,113,84,50,16,-5,-19,-17,-25,-36,-33,-32,-33,-31,-26,-29,-41,-27,-37,-45,-34,-36,-36,-40,-45,-43,-44,-57,-53,-35,-48,-44,-57,-42,-35,-44,-41,-46,-52,-47,-43,-36
2019-06-01,11:35:43.868,-19,-21,-26,-36,-41,-71,-58,-46,-59,-71,-68,-57,-65,-74,-64,-70,-82,105,446,516,74,12,16,-9,-36,-31,-20,-33,-43,-59,-40,-21,-12,-17,-13,1,-11,-9,2,27,46,54,61,75,93,85,116,115,148,182,177,172,148,106,68,31,1,-7,-22,-21,-28,-29,-32,-34,-21,-36,-54,-47,-31,-27,-40,-43,-28,-25,-51,-48,-53,-48,-43,-43,-59,-51,-59,-58,-52,-36,-40,-50,-38,-31,-38,-44,-60,-69,-75,-71,-57,-55,-68,-74,-84,-85,-84,-71,-82,57,362,497,45,-106,-49,-39,-34,-42,-53,-46,-41,-42,-32,-39,-22,-21,-16,-5,0,12,16,24
2019-06-01,11:35:44.894,55,62,74,87,108,119,142,144,158,171,176,162,141,113,61,26,12,-2,-13,-27,-33,-22,-33,-17,-29,-31,-16,-15,-14,-29,-33,-19,-27,-36,-24,-27,-34,-30,-31,-26,-48,-32,-45,-32,-25,-17,-9,-8,-20,-31,-40,-41,-51,-54,-66,-52,-46,-54,-58,-68,-64,-70,-16,206,478,355,-65,-63,-9,-8,-27,-20,-20,-23,-32,-23,-18,-11,0,-2,-17,8,19,22,31,37,44,52,82,78,104,113,127,133,150,163,157,153,112,75,38,6,-2,-39,-44,-40,-36,-52,-49,-46,-59,-56,-59,-56,-59,-61,-54,-49,-64,-66,-56,-61,-71,-70,-66,-61,-54,-53
2019-06-01,11:35:45.919,-34,-8,-16,-40,-48,-53,-67,-61,-64,-58,-67,-89,-77,-65,-87,-91,-81,-64,93,397,443,-44,-108,-58,-35,-34,-40,-42,-31,-23,-27,-14,-30,-18,-9,6,16,20,31,50,61,67,73,90,102,121,139,156,170,188,193,191,178,149,108,65,36,8,-5,-23,-31,-30,-35,-33,-37,-39,-40,-42,-46,-44,-52,-51,-51,-47,-51,-51,-54,-49,-46,-39,-39,-29,-17,-23,-33,-35,-46,-65,-71,-69,-68,-75,-86,-107,-97,-86,-77,-69,-67,110,430,457,0,-40,-20,-27,-47,-54,-64,-62,-60,-52,-47,-49,-47,-34,-34,-30,-24,-14,-5,7,14,24,36,45,60,69
2019-06-01,11:35:46.945,91,103,110,122,131,125,95,61,26,0,-22,-33,-43,-44,-43,-41,-39,-40,-43,-44,-45,-47,-47,-47,-50,-43,-41,-42,-43,-38,-43,-47,-45,-38,-23,-8,-15,-36,-31,-31,-50,-73,-57,-55,-62,-55,-46,-51,-54,-60,-67,-64,132,464,483,39,14,13,-5,-30,-40,-48,-48,-51,-44,-37,-27,-19,-13,-9,-6,0,1,6,16,21,26,36,47,58,60,70,87,100,111,115,128,116,77,37,13,-8,-17,-29,-33,-34,-39,-42,-46,-39,-40,-39,-36,-42,-57,-51,-43,-46,-44,-46,-51,-50,-51,-51,-34,-18,-23,-36,-42,-55,-70,-73,-81,-88,-65,-64,-69,-75
2019-06-01,11:35:47.971,-71,-70,-71,-64,104,431,448,-16,-38,-14,-18,-28,-31,-38,-43,-41,-39,-35,-31,-27,-25,-15,-5,4,5,15,29,37,44,58,65,83,101,114,122,129,134,134,133,97,65,35,5,-19,-32,-32,-37,-38,-40,-43,-40,-42,-48,-49,-43,-40,-45,-47,-46,-47,-50,-46,-40,-40,-37,-19,-13,-23,-34,-34,-42,-55,-62,-62,-63,-65,-80,-74,-60,-59,-62,-71,-17,270,532,247,-54,-17,-12,-23,-29,-38,-37,-32,-30,-28,-27,-23,-17,-11,0,2,13,19,24,28,40,60,66,73,81,97,107,117,125,130,127,110,78,48,20,-4,-24,-36,-40,-43,-40,-43
2019-06-01,11:35:48.996,-41,-39,-42,-45,-36,-33,-31,-41,-43,-45,-50,-51,-47,-34,-35,-35,-22,-9,-21,-26,-31,-55,-59,-49,-52,-54,-61,-62,-67,-68,-69,-72,-83,-87,53,392,549,118,0,6,-1,-13,-32,-43,-53,-48,-41,-34,-37,-33,-22,-12,-18,-5,5,19,21,26,29,40,51,62,77,83,93,109,122,138,133,106,66,32,5,-13,-34,-38,-40,-36,-32,-40,-37,-42,-41,-39,-49,-46,-47,-52,-55,-61,-54,-51,-51,-53,-58,-59,-49,-49,-32,-28,-40,-38,-46,-58,-63,-68,-69,-67,-70,-73,-75,-80,-86,-82,-84,-38,259,555,313,-32,-10,-11,-36,-44,-43,-50,-50,-44
2019-06-01,11:35:50.022,-36,-34,-39,-25,-18,-18,-6,-5,3,22,32,38,39,45,69,86,89,103,104,120,144,134,117,90,49,15,-12,-30,-35,-44,-42,-45,-49,-43,-39,-38,-43,-49,-44,-50,-58,-48,-44,-42,-46,-47,-48,-54,-52,-49,-52,-39,-31,-21,-23,-34,-45,-46,-58,-62,-63,-73,-65,-66,-67,-69,-70,-76,-85,-79,131,475,498,18,-28,-3,-6,-29,-40,-43,-42,-42,-40,-37,-34,-26,-18,-15,-7,0,9,2,18,38,53,60,67,75,89,97,107,124,132,137,139,105,66,36,9,-18,-39,-32,-34,-37,-37,-30,-28,-39,-39,-38,-33,-39,-44,-46,-31,-32,-38,-40
2019-06-01,11:35:51.048,-46,-50,-60,-59,-58,-54,-57,-45,-42,-45,-36,-28,-45,-50,-35,-47,-58,-63,-62,-62,-68,-78,-83,-70,-68,-72,-75,-33,257,563,346,-26,-11,-9,-25,-39,-38,-50,-45,-39,-45,-44,-36,-32,-29,-14,-1,2,2,8,19,32,37,47,54,69,91,114,121,141,156,142,120,84,42,20,0,-22,-29,-41,-48,-42,-41,-46,-46,-41,-39,-47,-50,-49,-41,-42,-48,-53,-49,-47,-54,-56,-63,-57,-48,-50,-55,-55,-40,-25,-32,-44,-41,-41,-59,-63,-69,-65,-63,-66,-69,-70,-72,-67,-74,-69,111,443,512,47,-21,-8,-12,-28,-47,-53,-44,-41,-43,-35,-22,-17
2019-06-01,11:35:52.073,-16,-10,-2,-2,6,21,26,36,46,50,77,93,100,112,119,134,149,149,129,103,53,29,5,-19,-34,-41,-39,-44,-56,-46,-42,-44,-47,-46,-40,-37,-42,-41,-40,-41,-39,-38,-42,-47,-45,-47,-46,-52,-59,-60,-42,-41,-41,-42,-41,-40,-35,-19,-33,-39,-35,-42,-53,-59,-57,-55,-62,-62,-68,-68,-65,-70,-78,19,363,579,202,-14,-1,0,-16,-27,-35,-44,-44,-46,-32,-37,-30,-25,-14,-10,-3,0,5,17,24,32,35,56,76,88,101,117,139,165,160,147,126,90,49,21,-6,-30,-39,-39,-35,-41,-38,-38,-45,-42,-46,-38,-28,-33,-41,-45
2019-06-01,11:35:53.099,-43,-45,-49,-57,-58,-48,-45,-45,-49,-55,-49,-58,-60,-68,-60,-56,-52,-49,-43,-54,-60,-23,-28,-35,-40,-47,-57,-59,-69,-75,-80,-75,-72,-64,-65,-69,-70,-55,180,517,428,-27,-31,-14,-19,-35,-43,-45,-45,-42,-36,-29,-25,-16,-12,-6,1,-1,16,35,42,55,69,82,94,108,120,134,141,146,171,174,146,119,82,43,4,-16,-15,-26,-32,-22,-24,-26,-29,-34,-31,-33,-17,-20,-28,-35,-33,-27,-28,-33,-36,-37,-37,-50,-40,-45,-55,-48,-45,-50,-49,-49,-43,-45,-52,-58,-47,-47,-39,-43,-31,-17,-21,-29,-28,-38,-54,-72,-53,-39,-40,-52
2019-06-01,11:35:54.125,-76,-83,-84,-83,-94,2,343,562,185,-61,-29,-20,-31,-48,-59,-65,-46,-51,-42,-32,-29,-29,-21,-13,-8,1,3,14,22,40,55,68,80,96,115,128,136,148,144,140,136,110,57,11,-9,-26,-43,-52,-57,-41,-54,-62,-55,-44,-47,-47,-51,-59,-52,-40,-58,-49,-40,-43,-50,-50,-55,-67,-69,-54,-46,-48,-59,-61,-55,-53,-57,-59,-59,-60,-66,-55,-45,-40,-32,-21,-17,-26,-29,-26,-39,-58,-53,-55,-59,-52,-62,-65,-59,-48,-56,-63,-8,277,556,317,-32,-9,-2,-5,-12,-19,-36,-31,-25,-6,-1,-1,-3,0,2,3,20,31,32,48,57,68
2019-06-01,11:35:55.150,80,101,118,132,146,163,175,172,164,148,118,77,33,5,-12,-16,-33,-40,-37,-34,-39,-42,-40,-45,-43,-41,-31,-34,-38,-40,-43,-39,-40,-40,-48,-40,-46,-43,-45,-45,-57,-58,-52,-51,-50,-51,-54,-62,-53,-45,-50,-56,-57,-50,-52,-62,-51,-50,-58,-37,-30,-29,-23,-34,-35,-44,-63,-66,-61,-54,-57,-69,-67,-59,-57,-66,-63,79,416,548,94,-48,-10,1,-14,-25,-29,-29,-30,-27,-30,-23,-16,-9,-10,-2,1,2,14,25,32,49,64,73,89,109,126,130,142,165,173,169,143,96,55,21,0,-20,-36,-35,-37,-38,-47,-43,-45,-41,-36,-38
2019-06-01,11:35:56.176,-14,-15,-13,-21,-24,-24,-23,-27,-33,-48,-34,-26,-30,-37,-34,-32,-31,-44,-45,-38,-37,-35,-44,-41,-46,-37,-38,-49,-37,-35,-39,-39,-39,-41,-39,-32,-29,-39,-19,-1,-4,-11,-22,-26,-44,-54,-55,-42,-38,-43,-51,-46,-43,-45,-54,20,330,566,260,-26,2,11,-3,-18,-23,-25,-29,-20,-19,-20,-12,-4,-1,-7,-2,22,28,32,41,55,68,82,89,97,111,126,141,155,173,179,163,112,74,41,12,-7,-29,-28,-31,-33,-32,-32,-43,-40,-38,-38,-40,-37,-38,-49,-44,-28,-35,-39,-46,-43,-50,-53,-48,-50,-52,-51,-53,-51,-48,-49,-48,-51
2019-06-01,11:35:57.202,-55,-45,-46,-51,-54,-61,-49,-49,-48,-43,-45,-51,-50,-43,-36,-37,-38,-30,-17,-27,-30,-30,-44,-51,-47,-49,-49,-54,-58,-59,-64,-69,-75,-62,159,488,459,18,-3,4,-5,-20,-27,-33,-36,-44,-33,-29,-27,-13,-10,-5,-1,8,8,14,23,33,39,53,65,79,95,107,114,124,141,160,166,138,92,48,20,2,-18,-38,-41,-27,-30,-24,-36,-38,-32,-25,-29,-35,-21,-26,-36,-31,-39,-36,-36,-38,-40,-44,-47,-41,-34,-37,-41,-43,-43,-49,-56,-43,-39,-42,-47,-48,-46,-48,-51,-49,-50,-45,-48,-47,-39,-31,-35,-37,-32,-36,-23,-26,-33,-33
2019-06-01,11:35:58.228,-43,-63,-53,-48,-57,-60,-58,-67,-65,-59,-64,-69,154,500,474,38,23,20,0,-25,-39,-45,-42,-40,-33,-36,-28,-21,-17,-12,-12,2,4,9,17,24,27,39,49,53,64,90,103,117,129,150,148,129,91,48,27,3,-11,-23,-22,-21,-27,-30,-30,-25,-33,-34,-39,-36,-27,-29,-27,-25,-23,-29,-44,-35,-24,-26,-30,-34,-35,-32,-38,-52,-43,-35,-30,-29,-34,-39,-45,-55,-41,-34,-43,-32,-33,-38,-40,-37,-35,-36,-29,-18,-21,-21,-30,-45,-49,-52,-63,-50,-48,-56,-54,-49,-53,-68,4,344,586,250,56,54,34,0,-23,-35,-38,-40,-32,-21
2019-06-01,11:35:59.253,-22,-33,-31,-20,-5,-5,-6,0,5,14,20,23,42,46,58,73,76,86,102,121,128,107,104,80,46,18,0,-10,-21,-21,-25,-27,-29,-32,-33,-34,-36,-31,-33,-36,-41,-36,-43,-32,-22,-30,-35,-42,-51,-39,-43,-37,-33,-42,-39,-32,-33,-40,-45,-52,-51,-52,-46,-43,-48,-46,-36,-36,-42,-32,-34,-18,-23,-21,-23,-29,-48,-53,-51,-50,-53,-52,-49,-52,-46,-48,-76,30,392,586,206,71,56,33,-2,-29,-31,-31,-45,-43,-33,-34,-36,-32,-33,-20,-24,-17,5,1,3,8,14,21,28,34,39,46,64,76,99,122,112,90,56,19,6,-18
2019-06-01,11:36:00.279,-15,-27,-21,-22,-36,-23,-17,-16,-23,-24,-20,-21,-19,-19,-25,-27,-21,-18,-26,-28,-21,-23,-28,-35,-35,-41,-40,-32,-24,-31,-38,-38,-40,-47,-40,-40,-33,-25,-8,-11,-19,-20,-32,-38,-35,-52,-44,-42,-36,-49,-55,-57,-46,-60,30,409,640,254,81,61,29,-3,-25,-43,-31,-34,-36,-32,-32,-35,-29,-21,-28,-9,14,12,19,16,24,54,68,79,89,94,111,127,127,148,157,141,104,56,18,2,-30,-35,-41,-41,-34,-38,-46,-38,-36,-46,-51,-39,-41,-34,-49,-52,-46,-52,-59,-63,-72,-57,-41,-38,-45,-52,-54,-51,-44,-41,-44,-35,-18,-17
2019-06-01,11:36:01.305,-16,-30,-47,-59,-62,-74,-68,-53,-59,-52,-52,-60,-63,14,303,483,91,-81,-32,-8,-17,-38,-42,-29,-23,-26,-26,-14,-20,-6,-7,-7,10,16,37,35,46,53,59,71,86,111,132,140,146,156,158,155,131,102,58,20,-7,-34,-44,-42,-44,-30,-30,-32,-36,-39,-45,-56,-61,-42,-34,-27,-34,-50,-46,-45,-43,-38,-42,-42,-44,-46,-52,-60,-57,-51,-51,-38,-34,-38,-42,-25,-17,-25,-24,-35,-51,-64,-74,-69,-57,-55,-49,-58,-64,-72,-68,-63,172,487,414,-3,-6,-1,-12,-27,-42,-45,-39,-29,-28,-33,-33,-26,-24,-12,-4,3,6,9,25,31
2019-06-01,11:36:02.330,38,60,85,96,108,115,134,152,159,162,159,128,82,45,19,1,-25,-35,-25,-32,-34,-38,-42,-36,-30,-35,-33,-32,-34,-29,-35,-46,-42,-39,-37,-42,-40,-40,-41,-42,-48,-54,-62,-61,-61,-50,-55,-50,-47,-42,-44,-34,-19,-35,-40,-36,-52,-67,-65,-61,-64,-70,-76,-73,-73,-76,-71,-87,21,355,544,143,-23,0,-2,-21,-33,-41,-41,-37,-43,-38,-36,-31,-30,-19,-3,4,11,18,28,35,40,52,57,73,79,92,105,122,126,147,147,135,101,55,13,4,-8,-20,-35,-28,-25,-28,-35,-49,-44,-30,-26,-30,-28,-30,-34,-32,-34,-54,-49,-32
2019-06-01,11:36:03.356,-14,-22,-21,-19,-25,-29,-28,-33,-37,-31,-30,-37,-31,-30,-25,-24,-28,-22,-9,-23,-21,-10,-16,-34,-36,-38,-42,-53,-58,-44,-37,-35,-34,-39,-5,276,536,279,-74,-31,-1,1,-15,-26,-22,-13,-12,-9,-8,-5,-5,2,22,22,22,39,54,67,75,83,95,113,126,142,162,175,194,202,205,175,128,76,37,-1,-28,-25,-35,-47,-47,-41,-40,-48,-51,-47,-37,-45,-48,-40,-37,-41,-50,-57,-57,-65,-59,-57,-65,-69,-62,-69,-62,-63,-43,-28,-21,-34,-46,-50,-62,-76,-77,-75,-81,-82,-85,-92,-95,-83,-71,-43,89,343,404,-85,-179,-95,-57,-47
2019-06-01,11:36:04.382,-42,-37,-32,-34,-24,-19,-12,-6,0,3,9,24,29,37,52,66,79,96,113,132,149,165,175,189,193,185,159,117,69,32,0,-20,-36,-42,-45,-48,-51,-53,-51,-49,-48,-47,-42,-39,-41,-37,-35,-41,-32,-31,-34,-48,-55,-41,-35,-43,-48,-50,-51,-44,-38,-24,-28,-36,-36,-39,-57,-67,-75,-73,-67,-64,-68,-72,-63,-65,-67,-41,113,371,393,-78,-162,-83,-39,-31,-28,-31,-32,-38,-32,-25,-23,-17,-13,-10,6,18,26,29,46,61,80,90,103,121,141,151,157,165,179,185,165,125,73,31,3,-18,-31,-42,-47,-49,-50,-56,-59,-52,-44,-44
2019-06-01,11:36:05.407,-57,-56,-54,-53,-50,-58,-72,-60,-56,-59,-52,-59,-63,-65,-64,-69,-69,-69,-67,-69,-61,-55,-51,-42,-42,-58,-60,-52,-61,-74,-75,-83,-82,-76,-76,-80,-89,-83,-77,-47,125,403,398,-75,-127,-61,-31,-37,-39,-47,-41,-29,-24,-21,-20,-17,-6,0,10,16,22,33,41,60,80,96,111,128,152,162,169,177,186,182,165,123,79,37,-1,-23,-35,-37,-33,-35,-38,-43,-46,-42,-40,-41,-39,-51,-54,-37,-38,-46,-45,-40,-37,-40,-46,-48,-46,-55,-55,-54,-55,-62,-67,-72,-66,-55,-52,-49,-47,-40,-40,-25,-19,-21,-30,-33,-47,-55,-60,-57,-62,-66
2019-06-01,11:36:06.433,-100,-98,-99,-87,-94,-95,-50,196,445,269,-159,-121,-62,-46,-52,-52,-57,-47,-44,-42,-41,-28,-22,-18,-7,6,17,27,42,52,65,75,83,102,129,147,161,169,182,180,179,156,113,63,27,9,-4,-24,-33,-35,-37,-49,-51,-45,-38,-32,-31,-33,-33,-45,-47,-39,-29,-34,-28,-35,-46,-40,-53,-45,-49,-47,-50,-48,-54,-58,-50,-59,-64,-53,-47,-46,-47,-45,-41,-28,-27,-35,-41,-34,-44,-63,-71,-70,-69,-76,-81,-76,-68,-67,-69,-67,4,289,508,199,-96,-41,-17,-28,-38,-35,-39,-36,-25,-26,-29,-22,-11,-10,-7,-2,14,12,31,46,51,63
2019-06-01,11:36:07.459,62,82,101,121,135,155,163,167,169,124,80,38,5,-21,-44,-53,-68,-67,-68,-58,-70,-71,-66,-60,-57,-57,-56,-56,-56,-60,-61,-59,-67,-70,-72,-75,-63,-64,-69,-69,-70,-76,-76,-68,-65,-60,-57,-49,-46,-39,-31,-42,-46,-48,-61,-72,-74,-74,-76,-76,-79,-81,-80,-82,-79,-65,39,323,494,92,-142,-81,-41,-35,-45,-47,-46,-55,-37,-20,-18,-13,-11,-3,5,14,17,16,30,64,76,94,107,122,136,151,165,163,177,202,180,137,94,47,11,-13,-32,-45,-42,-31,-42,-44,-45,-46,-45,-43,-45,-39,-34,-36,-36,-44,-46,-43,-44,-48,-47,-47
2019-06-01,11:36:08.484,-43,-37,-37,-39,-43,-48,-51,-55,-56,-54,-71,-56,-39,-39,-42,-47,-45,-35,-29,-34,-55,-43,-40,-58,-59,-60,-60,-61,-65,-73,-64,-67,-70,-54,45,352,541,147,-79,-33,-15,-17,-24,-29,-31,-23,-17,-17,-16,-5,6,4,2,13,27,33,32,56,70,82,99,114,135,150,159,170,195,200,190,157,113,66,27,1,-21,-35,-29,-32,-33,-40,-47,-40,-37,-39,-39,-40,-23,-33,-27,-30,-31,-33,-41,-38,-45,-57,-43,-42,-41,-42,-47,-41,-45,-46,-49,-53,-53,-51,-62,-59,-39,-38,-35,-25,-25,-27,-29,-32,-55,-58,-61,-58,-58,-62,-64,-66,-62,-68
2019-06-01,11:36:09.510,-62,10,261,497,245,-129,-87,-37,-21,-29,-27,-27,-28,-37,-27,-22,-14,-4,-1,3,17,31,34,47,58,68,83,99,110,131,153,164,171,179,193,176,150,109,66,29,1,-21,-30,-42,-45,-36,-40,-38,-35,-35,-33,-34,-35,-36,-30,-36,-51,-48,-37,-42,-37,-35,-35,-38,-43,-51,-58,-57,-50,-47,-52,-49,-52,-47,-44,-45,-43,-51,-51,-55,-58,-48,-33,-39,-23,-15,-14,-32,-33,-30,-40,-55,-60,-59,-60,-71,-74,-66,-60,-69,-69,-63,36,332,515,133,-113,-63,-21,-27,-29,-30,-44,-39,-40,-27,-13,-2,-4,-3,1,4,16,29,35,38,62,82
2019-06-01,11:36:10.536,107,120,133,145,171,180,191,199,187,155,117,76,38,6,-6,-11,-19,-21,-22,-27,-32,-28,-31,-33,-29,-22,-23,-34,-26,-24,-37,-32,-38,-48,-36,-32,-46,-47,-41,-56,-46,-38,-44,-52,-51,-52,-46,-48,-59,-53,-50,-48,-49,-50,-57,-60,-51,-40,-44,-51,-27,-22,-30,-33,-38,-51,-65,-68,-62,-67,-69,-71,-67,-67,-70,-65,-60,69,382,507,66,-82,-35,-8,-15,-29,-38,-34,-28,-17,-9,-12,-8,0,3,8,10,26,23,35,58,67,83,92,102,114,132,148,153,173,185,177,144,108,67,31,2,-22,-30,-28,-38,-37,-22,-32,-36,-37,-44,-35
2019-06-01,11:36:11.561,-3,-6,-9,-11,-18,-5,-12,-14,-23,-15,-5,-15,-20,-12,-22,-27,-23,-18,-24,-26,-21,-24,-27,-24,-22,-37,-34,-18,-25,-31,-35,-24,-21,-20,-28,-10,-9,-10,-17,-39,-59,-51,-46,-51,-47,-44,-48,-53,-57,-55,-45,93,402,519,53,-98,-51,-21,-19,-27,-35,-35,-29,-30,-34,-20,-12,-11,-13,2,10,13,14,38,56,59,72,100,120,134,141,147,146,163,180,158,133,101,52,14,-2,-16,-14,-28,-39,-45,-43,-53,-55,-34,-29,-41,-26,-29,-23,-31,-40,-45,-37,-26,-40,-51,-47,-42,-42,-39,-44,-46,-53,-51,-46,-43,-48,-54,-46,-46,-47,-46
2019-06-01,11:36:12.587,-28,-31,-7,1,-15,-11,-12,-30,-53,-52,-38,-40,-43,-51,-56,-57,-60,-60,-61,18,311,535,217,-86,-42,-20,-14,-22,-36,-32,-16,-1,-4,-2,1,4,7,13,18,22,16,37,60,71,84,94,112,128,140,146,162,173,174,181,158,117,70,37,12,-7,-14,-26,-36,-26,-28,-27,-35,-37,-26,-20,-32,-34,-26,-13,-14,-20,-27,-30,-34,-39,-40,-29,-32,-34,-33,-38,-41,-44,-46,-50,-46,-44,-32,-33,-41,-49,-50,-40,-25,-30,-26,-25,-17,-11,-13,-23,-33,-40,-51,-54,-49,-47,-46,-51,-57,-56,-58,-57,-47,48,344,534,148,-68,-22,-4,-10,-29
2019-06-01,11:36:13.613,-37,-23,-16,-9,-16,-5,-3,1,9,17,22,27,36,40,28,49,81,97,109,121,130,138,151,154,166,160,150,117,78,37,7,-12,-26,-33,-30,-40,-31,-29,-30,-33,-38,-32,-36,-36,-24,-35,-41,-48,-40,-37,-47,-40,-42,-52,-50,-44,-54,-48,-46,-41,-47,-51,-58,-55,-58,-54,-51,-53,-56,-55,-53,-52,-50,-42,-31,-45,-49,-35,-45,-48,-47,-44,-53,-52,-59,-67,-66,-76,-61,-53,31,321,528,159,-74,-32,-16,-22,-39,-51,-40,-34,-31,-19,-16,-24,-19,-1,-1,-1,0,21,43,50,52,71,77,70,78,117,128,145,173,175,164,139,105,65
2019-06-01,11:36:14.638,36,11,-11,-29,-31,-19,-13,-15,-20,-25,-25,-27,-26,-26,-21,-23,-35,-28,-27,-20,-21,-29,-34,-40,-38,-34,-35,-34,-38,-44,-45,-46,-47,-48,-46,-41,-43,-49,-49,-47,-50,-42,-37,-39,-37,-43,-30,-29,-27,-22,-27,-48,-53,-59,-55,-55,-62,-65,-64,-71,-71,-66,-64,117,430,471,31,-17,0,-7,-27,-35,-33,-39,-39,-37,-32,-27,-15,-13,-6,-4,2,17,25,36,39,33,51,63,83,96,104,110,122,144,153,149,121,79,45,20,-1,-17,-28,-40,-47,-46,-42,-51,-44,-36,-36,-32,-20,-33,-43,-32,-30,-40,-38,-44,-42,-39,-33,-39,-42,-46
2019-06-01,11:36:15.664,-30,-41,-43,-35,-36,-32,-38,-40,-35,-31,-33,-37,-34,-35,-35,-29,-21,-21,-32,-34,-34,-43,-42,-45,-47,-50,-45,-33,-36,-46,-51,-52,-42,191,516,449,27,17,23,11,-7,-24,-33,-17,-13,-17,-16,-18,-8,-1,-1,-3,15,22,15,22,48,59,61,69,81,85,108,121,137,148,155,150,117,86,54,17,-2,-6,-18,-24,-23,-22,-26,-37,-34,-24,-26,-19,-22,-31,-29,-27,-30,-32,-30,-36,-37,-37,-35,-37,-31,-28,-37,-36,-38,-43,-43,-46,-50,-57,-37,-23,-33,-26,-24,-12,-12,-24,-27,-27,-48,-51,-54,-56,-49,-57,-60,-54,-58,-60,-65,-81
2019-06-01,11:36:16.690,59,416,558,139,41,36,15,-14,-34,-40,-38,-38,-42,-37,-40,-42,-32,-16,-12,-3,1,-1,9,15,22,31,39,48,59,73,88,103,119,134,132,117,84,46,11,-12,-31,-31,-25,-28,-36,-33,-28,-34,-29,-34,-27,-25,-33,-35,-40,-34,-35,-32,-27,-27,-34,-33,-31,-26,-27,-31,-33,-35,-32,-33,-30,-38,-37,-33,-28,-22,-24,-26,-23,-15,-10,-18,-6,-18,-35,-45,-41,-48,-55,-59,-54,-53,-55,-61,-72,-83,138,515,571,155,105,60,15,-17,-37,-50,-56,-40,-42,-37,-41,-26,-23,-25,-24,-21,-12,-4,3,13,18,25,43,56,69,80,95,112
2019-06-01,11:36:17.715,136,142,159,138,96,49,19,-2,-19,-30,-32,-31,-25,-26,-34,-31,-29,-34,-31,-31,-37,-38,-44,-48,-32,-22,-26,-33,-36,-44,-38,-37,-38,-40,-44,-45,-46,-41,-24,-10,-20,-22,-23,-39,-56,-58,-58,-53,-45,-59,-52,-53,-55,-65,-69,-36,195,493,358,-43,-13,16,-3,-25,-30,-23,-24,-29,-24,-21,-14,-4,-4,-4,5,16,20,20,30,52,60,71,82,94,104,110,122,137,151,156,137,97,58,31,4,-17,-28,-38,-36,-36,-37,-44,-41,-44,-33,-31,-34,-31,-28,-34,-45,-35,-38,-51,-49,-32,-47,-46,-41,-53,-50,-51,-38,-48,-50,-44,-40,-42
2019-06-01,11:36:18.741,-20,-15,0,2,-14,-19,-7,-18,-21,-23,-29,-34,-34,-35,-37,-34,-36,-42,-57,56,384,573,183,25,37,25,2,-12,-20,-20,-22,-19,-14,-10,-7,0,4,5,4,12,23,23,30,38,47,54,60,74,86,95,97,126,153,160,144,106,65,25,2,-18,-21,-26,-34,-35,-41,-36,-46,-42,-42,-47,-40,-41,-41,-40,-51,-58,-58,-50,-67,-53,-43,-48,-45,-37,-52,-67,-58,-48,-41,-44,-49,-39,-27,-23,-34,-27,-25,-38,-48,-44,-43,-60,-64,-52,-45,-47,-54,-57,-67,-16,273,524,237,-28,4,7,-9,-24,-32,-33,-36,-30,-21,-23,-23,-12,-9,-5
2019-06-01,11:36:19.767,4,1,16,35,45,52,55,60,81,86,98,110,121,129,139,144,123,84,44,11,-1,-14,-25,-29,-30,-33,-29,-37,-39,-37,-20,-16,-18,-23,-24,-25,-23,-26,-31,-29,-30,-33,-35,-36,-35,-38,-42,-43,-50,-59,-39,-24,-25,-27,-21,-7,-15,-25,-26,-34,-48,-41,-38,-41,-43,-45,-47,-52,-51,-55,-65,-31,236,528,360,12,24,16,2,-16,-26,-25,-28,-22,-19,-15,-14,-11,-2,7,15,16,15,29,34,41,52,63,76,88,96,105,124,141,151,160,145,108,73,44,14,0,-11,-12,-15,-13,-19,-16,-19,-21,-16,-8,-11,-10,-13,-16,-16,-19
2019-06-01,11:36:20.792,-48,-45,-49,-51,-68,-52,-42,-34,-36,-46,-47,-41,-29,-50,-62,-51,-47,-37,-18,-24,-33,-30,-37,-51,-56,-62,-63,-57,-56,-56,-59,-57,-58,-74,-41,252,559,360,37,44,18,-12,-31,-36,-37,-39,-38,-34,-28,-22,-16,-16,-8,0,0,7,11,15,24,32,40,50,64,77,85,92,106,125,129,117,91,57,26,3,-11,-20,-23,-27,-30,-29,-28,-29,-29,-19,-21,-26,-24,-25,-27,-27,-29,-29,-34,-34,-36,-39,-38,-45,-39,-38,-41,-37,-38,-39,-40,-31,-34,-33,-26,-12,-6,-11,-12,-19,-35,-46,-43,-47,-51,-49,-49,-51,-52,-55,-64,-85,-10,312
2019-06-01,11:36:21.818,548,248,41,36,13,-18,-36,-43,-46,-43,-42,-40,-39,-34,-29,-28,-24,-29,-17,-4,-2,4,10,15,26,33,43,52,65,80,96,117,130,116,85,54,26,3,-10,-19,-24,-22,-23,-27,-29,-28,-23,-26,-29,-29,-32,-37,-34,-31,-33,-38,-38,-37,-41,-41,-43,-43,-45,-44,-48,-50,-52,-55,-53,-46,-38,-35,-34,-22,-13,-19,-28,-32,-44,-52,-51,-50,-46,-44,-46,-52,-55,-56,-63,-83,20,371,584,229,87,70,36,-3,-24,-33,-38,-43,-46,-46,-31,-28,-27,-25,-18,-13,-14,-7,0,0,3,19,30,39,46,54,60,75,89,106,112,105,78,44
2019-06-01,11:36:22.844,55,34,19,11,10,6,11,16,14,13,7,6,7,3,-2,0,0,0,-6,-7,-4,-5,-8,-10,-5,-2,-8,-12,-10,-14,-14,-12,-5,-4,-8,-3,1,18,20,8,4,-6,-23,-23,-21,-23,-30,-33,-28,-26,-30,-33,-38,-24,149,434,392,-25,-28,0,7,-3,-13,-18,-28,-13,-1,3,5,6,9,18,24,32,42,49,57,67,73,89,101,114,123,130,142,152,160,163,146,114,78,43,19,0,-14,-19,-21,-20,-24,-23,-20,-22,-18,-19,-18,-17,-15,-22,-27,-19,-19,-21,-23,-26,-33,-32,-34,-33,-29,-23,-25,-17,-6,-20,-30,-29,-38,-53
2019-06-01,11:36:23.869,-82,-78,-78,-84,-84,-85,-84,-83,-82,-78,-38,208,475,232,-111,-74,-41,-39,-47,-50,-50,-49,-43,-35,-33,-34,-26,-22,-17,-7,2,17,19,25,35,54,68,81,97,107,117,125,136,145,127,103,68,36,7,-15,-30,-35,-42,-46,-42,-46,-44,-41,-38,-36,-39,-39,-41,-41,-36,-40,-45,-39,-46,-48,-46,-50,-51,-51,-51,-59,-55,-53,-42,-39,-34,-22,-23,-37,-39,-41,-52,-67,-65,-60,-68,-62,-61,-67,-64,-65,-67,-65,84,404,514,68,-49,-18,-10,-23,-33,-35,-35,-32,-23,-28,-23,-9,-8,-5,0,8,20,28,35,45,58,67,83,95,104,119
2019-06-01,11:36:24.895,124,138,152,155,141,109,70,35,9,-8,-24,-32,-37,-46,-44,-38,-42,-39,-36,-35,-36,-37,-39,-37,-39,-37,-31,-33,-36,-38,-40,-38,-41,-43,-45,-48,-48,-45,-49,-53,-48,-36,-33,-34,-29,-21,-15,-23,-26,-22,-35,-41,-47,-49,-56,-53,-52,-52,-54,-56,-56,-58,-14,250,529,351,-21,-2,5,-4,-20,-21,-23,-17,-17,-14,-10,-8,-6,4,4,12,18,27,39,47,53,66,78,88,106,128,135,145,159,170,172,150,112,78,46,19,6,-7,-13,-12,-15,-13,-14,-12,-15,-21,-17,-16,-16,-22,-16,-10,-15,-13,-10,-20,-22,-17,-19,-16,-17,-15
2019-06-01,11:36:25.921,-43,-46,-45,-47,-52,-54,-45,-51,-45,-39,-37,-34,-26,-14,-20,-32,-35,-34,-44,-55,-64,-54,-56,-54,-58,-66,-70,-62,-62,-67,15,315,536,206,-30,-1,0,-20,-30,-37,-31,-26,-25,-25,-23,-21,-12,-4,0,6,10,18,29,41,51,62,71,81,91,99,112,123,142,149,151,133,96,63,30,1,-11,-22,-27,-26,-27,-25,-25,-32,-37,-27,-27,-21,-20,-22,-27,-29,-26,-32,-45,-38,-32,-32,-33,-34,-40,-42,-40,-41,-43,-42,-38,-40,-39,-32,-31,-30,-21,-14,-4,-15,-23,-24,-36,-44,-44,-45,-41,-47,-51,-53,-51,-54,-62,-67,-41,196,491,378
2019-06-01,11:36:26.946,-27,-16,-13,-15,-29,-45,-44,-43,-42,-49,-41,-37,-35,-27,-18,-5,-2,4,11,23,28,36,52,68,79,93,97,105,120,136,139,129,95,63,28,0,-16,-21,-20,-26,-40,-31,-28,-29,-30,-31,-29,-27,-29,-33,-36,-33,-37,-39,-36,-37,-38,-41,-40,-45,-39,-41,-42,-47,-49,-45,-46,-48,-49,-48,-49,-45,-36,-28,-17,-8,-19,-29,-32,-36,-46,-49,-50,-50,-51,-57,-56,-58,-51,-55,-67,-18,263,522,271,-6,18,13,-10,-21,-26,-32,-30,-30,-27,-23,-18,-11,-16,-13,0,9,13,20,24,29,36,45,55,66,72,76,91,107,123,125,114,86
2019-06-01,11:36:27.972,50,15,-3,-16,-22,-24,-24,-32,-35,-37,-36,-30,-26,-28,-33,-31,-34,-43,-46,-44,-40,-42,-44,-44,-45,-46,-45,-44,-46,-46,-46,-47,-49,-43,-44,-38,-36,-34,-32,-19,-22,-29,-37,-40,-50,-48,-51,-58,-57,-60,-68,-69,-61,-63,-62,-46,155,453,354,-27,-26,-7,-10,-26,-35,-40,-36,-36,-31,-28,-27,-23,-12,-2,3,3,11,16,26,32,39,50,58,79,83,92,102,113,124,124,117,91,56,26,9,-10,-15,-16,-24,-26,-24,-17,-10,-17,-20,-18,-23,-21,-25,-26,-27,-28,-31,-42,-44,-42,-39,-44,-43,-42,-42,-38,-39,-38,-34,-33,-26,-15
2019-06-01,11:36:28.998,-21,-29,-34,-37,-47,-52,-53,-53,-51,-55,-57,-56,-59,-67,-66,-61,116,422,448,11,-24,-3,4,-11,-26,-28,-26,-26,-29,-24,-15,-18,-10,0,3,9,19,24,31,38,51,56,71,82,88,105,113,123,131,130,116,92,53,24,-1,-20,-26,-31,-32,-32,-34,-35,-33,-36,-43,-37,-31,-30,-32,-35,-48,-42,-42,-41,-51,-46,-32,-37,-45,-41,-36,-44,-48,-55,-51,-41,-34,-27,-13,-15,-29,-29,-31,-51,-57,-58,-65,-62,-62,-65,-68,-70,-74,-73,-70,118,424,431,11,-11,0,-10,-31,-37,-34,-44,-40,-28,-25,-27,-22,-10,-9,-4,4,8,17,21
2019-06-01,11:36:30.024,27,36,46,59,72,83,84,88,106,124,133,114,84,49,24,-7,-23,-30,-41,-41,-39,-36,-41,-38,-37,-36,-40,-41,-39,-38,-35,-37,-33,-37,-40,-38,-41,-41,-49,-48,-50,-54,-49,-51,-46,-38,-36,-35,-26,-13,-18,-23,-25,-30,-46,-54,-53,-59,-53,-51,-54,-58,-61,-61,-76,-50,197,484,332,-4,17,7,-7,-25,-38,-37,-36,-26,-22,-25,-25,-24,-21,-19,-13,-5,-7,9,21,29,37,41,48,64,74,81,94,105,114,117,107,78,47,15,-4,-14,-24,-31,-35,-34,-30,-32,-28,-30,-36,-30,-30,-31,-34,-33,-31,-29,-35,-39,-38,-41,-45,-47
2019-06-01,11:36:31.049,-37,-36,-39,-40,-34,-34,-34,-36,-34,-31,-13,-7,-19,-29,-30,-40,-51,-56,-55,-44,-51,-59,-55,-52,-53,-62,-67,96,402,437,50,24,18,8,-10,-27,-34,-29,-25,-30,-27,-29,-19,-4,-5,-4,2,2,8,12,15,29,32,45,55,64,80,87,94,109,117,106,83,57,24,5,-15,-23,-29,-20,-19,-20,-20,-21,-21,-24,-28,-24,-28,-29,-31,-30,-32,-34,-38,-44,-44,-39,-42,-42,-41,-38,-42,-41,-37,-34,-42,-39,-24,-15,-25,-26,-34,-44,-55,-56,-57,-60,-59,-64,-66,-67,-72,-80,-92,-27,283,497,177,19,26,5,-17,-34,-37,-40,-42,-38
2019-06-01,11:36:32.075,-41,-38,-32,-27,-24,-17,-15,-12,-7,0,5,9,21,25,25,28,39,58,78,96,108,106,88,58,19,2,-4,-32,-41,-48,-39,-40,-37,-36,-31,-31,-41,-33,-35,-27,-29,-28,-31,-34,-35,-32,-33,-31,-31,-37,-35,-31,-37,-30,-25,-32,-24,-30,-27,-16,-1,-9,-17,-18,-35,-45,-39,-41,-47,-44,-35,-33,-47,-53,-59,-74,17,351,557,226,112,92,41,-15,-27,-33,-32,-31,-34,-36,-38,-33,-26,-7,0,-6,-4,-11,5,20,30,33,41,47,55,62,72,81,92,108,107,93,85,51,20,-2,-11,-21,-25,-23,-22,-34,-44,-27,-14,-11,-19,-18
2019-06-01,11:36:33.101,-35,-37,-41,-41,-41,-46,-49,-54,-49,-56,-58,-56,-52,-51,-49,-56,-62,-53,-51,-46,-33,-23,-32,-37,-46,-63,-69,-71,-71,-74,-75,-76,-77,-72,-79,-66,-42,149,406,209,-122,-74,-36,-34,-42,-55,-53,-48,-48,-44,-35,-25,-24,-13,-4,0,3,13,26,36,47,55,67,81,93,105,113,123,132,135,124,99,65,30,6,-12,-23,-33,-33,-32,-32,-38,-41,-39,-36,-34,-34,-37,-36,-38,-36,-36,-36,-40,-46,-47,-43,-46,-46,-39,-38,-36,-28,-18,-17,-24,-31,-38,-52,-55,-59,-57,-59,-62,-65,-64,-68,-70,-70,-34,163,409,254,-76,-55,-31,-23,-32
2019-06-01,11:36:34.126,-56,-55,-58,-53,-46,-42,-38,-34,-27,-19,-16,0,7,10,30,46,53,65,84,101,112,123,124,133,138,125,111,63,12,-4,-24,-37,-46,-50,-54,-52,-49,-44,-41,-41,-46,-44,-40,-41,-42,-42,-37,-40,-42,-43,-40,-48,-45,-43,-47,-44,-35,-23,-15,-26,-36,-39,-47,-56,-57,-58,-62,-64,-62,-67,-70,-70,-75,-81,-43,192,464,317,-29,-22,-15,-14,-28,-35,-40,-39,-34,-30,-31,-28,-21,-14,-9,0,6,10,21,32,40,52,66,80,95,104,116,125,137,146,137,104,64,28,1,-24,-26,-27,-50,-61,-52,-48,-47,-44,-38,-39,-37,-36,-38,-34
2019-06-01,11:36:35.152,-36,-37,-40,-43,-47,-51,-46,-38,-33,-41,-41,-43,-44,-39,-26,-25,-37,-36,-41,-57,-64,-65,-68,-67,-67,-67,-65,-64,-63,-66,-78,-27,265,532,292,-10,2,8,-5,-24,-28,-36,-38,-37,-36,-34,-39,-29,-21,-13,-4,0,7,18,24,23,33,55,69,85,99,109,122,134,143,130,103,65,27,1,-13,-32,-30,-39,-50,-44,-41,-35,-38,-40,-41,-38,-38,-37,-43,-42,-48,-45,-42,-35,-42,-40,-46,-44,-47,-50,-54,-51,-59,-50,-49,-44,-39,-26,-22,-33,-44,-38,-48,-52,-58,-59,-61,-73,-67,-55,-57,-59,-65,-81,35,375,559,178,11,10,2,-25
2019-06-01,11:36:36.178,-36,-43,-43,-39,-37,-32,-29,-30,-17,-12,-10,-7,5,12,12,18,28,38,52,62,75,85,101,117,130,135,131,102,59,26,-6,-24,-24,-29,-38,-43,-40,-40,-41,-41,-38,-31,-36,-34,-36,-40,-42,-46,-38,-37,-38,-35,-36,-38,-43,-44,-41,-36,-53,-49,-48,-49,-46,-44,-45,-34,-21,-28,-38,-36,-41,-48,-49,-46,-54,-55,-56,-56,-53,-52,-67,-79,-70,139,494,531,109,52,32,10,-16,-29,-31,-34,-35,-28,-26,-27,-22,-16,-14,-7,5,6,12,18,21,23,33,55,63,74,81,91,109,120,125,113,93,61,33,7,-10,-19,-27,-34,-34,-36
2019-06-01,11:36:37.203,-34,-27,-32,-30,-28,-31,-32,-34,-36,-29,-36,-30,-38,-41,-41,-46,-48,-46,-36,-33,-37,-43,-44,-42,-45,-44,-42,-39,-38,-34,-36,-24,-22,-26,-33,-34,-44,-51,-50,-45,-45,-53,-56,-49,-41,-46,-57,-67,127,498,556,136,63,40,12,-17,-26,-33,-38,-45,-42,-38,-30,-25,-21,-16,-14,-9,-3,1,2,4,20,34,40,51,61,70,77,90,114,120,114,91,53,19,-3,-20,-18,-26,-27,-30,-35,-34,-32,-34,-33,-35,-34,-33,-35,-35,-34,-31,-31,-38,-41,-43,-36,-39,-43,-39,-36,-38,-39,-40,-40,-45,-43,-48,-48,-52,-48,-38,-31,-23,-16,-21
2019-06-01,11:36:38.229,-25,-27,-33,-47,-51,-50,-53,-52,-46,-47,-46,-51,-53,-77,-43,261,611,447,112,83,48,11,-14,-21,-28,-33,-28,-30,-27,-28,-21,-18,-19,-21,-16,-8,-3,8,8,16,26,33,40,53,64,74,93,108,119,110,79,49,20,0,-19,-21,-22,-25,-32,-29,-30,-40,-37,-25,-29,-28,-31,-34,-40,-35,-33,-39,-38,-37,-40,-43,-45,-43,-46,-53,-44,-47,-47,-49,-49,-49,-48,-57,-55,-47,-42,-38,-24,-24,-34,-44,-45,-54,-60,-62,-57,-64,-74,-70,-65,-59,-62,-70,-68,180,536,443,65,43,30,1,-28,-39,-44,-50,-51,-35,-40,-29,-24,-24,-17,-16
2019-06-01,11:36:39.255,-5,7,15,19,29,44,56,67,84,98,114,122,128,140,137,116,83,42,14,-7,-22,-30,-31,-31,-33,-36,-38,-37,-37,-36,-40,-35,-36,-34,-37,-30,-31,-34,-40,-43,-40,-41,-41,-46,-45,-48,-42,-35,-36,-28,-14,-12,-25,-27,-24,-38,-53,-50,-46,-58,-55,-53,-50,-52,-46,-52,-68,66,423,591,166,3,25,20,-7,-31,-74,-79,-40,-18,-15,-23,-24,-28,-26,-19,-9,-3,2,7,22,31,41,54,58,74,91,102,115,133,141,131,76,34,20,7,-18,-27,-25,-29,-34,-39,-44,-41,-46,-48,-36,-36,-37,-36,-40,-41,-44,-45,-47,-48,-48,-48
2019-06-01,11:36:40.280,-46,-47,-51,-47,-51,-57,-45,-43,-45,-47,-37,-32,-17,-16,-26,-31,-35,-50,-55,-51,-51,-56,-49,-54,-57,-55,-63,-70,-68,139,509,578,133,71,49,19,-12,-30,-36,-40,-38,-40,-25,-15,-22,-23,-16,-9,-5,-3,1,10,17,23,31,43,52,63,76,92,106,121,132,122,90,58,27,4,-14,-29,-38,-39,-36,-31,-31,-29,-33,-42,-36,-33,-33,-33,-36,-33,-39,-42,-40,-42,-35,-42,-40,-40,-39,-37,-44,-47,-45,-44,-42,-38,-40,-40,-54,-38,-16,-6,-11,-20,-26,-31,-37,-46,-44,-46,-51,-52,-54,-51,-53,-57,-62,-66,188,571,558,150,100,53
2019-06-01,11:36:41.306,24,-10,-24,-24,-24,-27,-27,-26,-19,-17,-15,-7,-8,1,4,8,16,17,31,33,40,52,62,72,87,104,118,125,111,85,39,14,2,-9,-18,-16,-28,-28,-29,-27,-31,-31,-29,-33,-39,-34,-28,-31,-33,-32,-33,-34,-37,-40,-43,-45,-55,-49,-52,-49,-47,-41,-43,-54,-55,-45,-48,-56,-51,-45,-33,-16,-21,-30,-36,-41,-61,-64,-62,-59,-59,-61,-61,-60,-57,-68,-88,-53,284,634,425,117,92,47,4,-20,-40,-43,-44,-44,-49,-40,-26,-35,-36,-22,-12,-21,-21,-17,-9,-4,4,12,20,30,40,54,64,80,94,98,81,62,36,12,-3,-17
2019-06-01,11:36:42.332,-14,-13,-10,-10,-14,-18,-13,-16,-23,-18,-17,-17,-15,-16,-16,-17,-23,-29,-23,-24,-27,-31,-28,-28,-33,-32,-36,-31,-31,-33,-32,-31,-35,-33,-37,-29,-26,-11,2,-5,-19,-23,-28,-33,-33,-39,-43,-46,-49,-49,-47,-42,-54,-86,44,443,668,281,138,92,39,-1,-24,-38,-46,-47,-44,-47,-51,-44,-37,-32,-32,-26,-23,-21,-16,-15,-10,-3,1,17,23,26,34,58,82,98,102,86,61,32,7,-5,-14,-23,-36,-46,-47,-30,-24,-17,-14,-18,-20,-21,-25,-26,-29,-37,-36,-42,-49,-25,-14,-19,-29,-34,-33,-36,-40,-36,-37,-51,-40,-36,-34,-37
2019-06-01,11:36:43.357,-31,-25,-18,-5,-15,-36,-26,-8,-19,-27,-34,-42,-39,-44,-46,-46,-47,-50,-64,-78,125,513,580,168,114,75,31,-6,-22,-33,-39,-41,-43,-44,-36,-23,-19,-15,-12,-7,-5,-2,0,7,21,29,40,48,64,78,82,101,115,121,115,84,58,23,5,-6,-24,-35,-33,-30,-37,-40,-39,-39,-47,-42,-39,-43,-43,-37,-42,-43,-44,-44,-48,-54,-54,-53,-55,-58,-56,-59,-62,-61,-58,-57,-59,-52,-46,-38,-32,-38,-45,-47,-54,-57,-58,-60,-63,-65,-68,-66,-67,-68,-74,-78,43,390,561,168,48,41,23,-15,-38,-35,-42,-30,-20,-18,-21,-17,-15,-14
2019-06-01,11:36:44.383,-1,9,14,23,24,20,37,55,71,81,89,95,105,120,119,118,118,87,63,25,5,-13,-25,-29,-40,-44,-43,-50,-52,-40,-35,-35,-34,-34,-31,-24,-27,-34,-36,-41,-37,-43,-40,-36,-36,-44,-39,-39,-45,-48,-47,-48,-41,-43,-40,-34,-36,-31,-15,-13,-25,-28,-35,-44,-47,-50,-54,-58,-56,-62,-59,-60,-67,-71,-79,131,521,579,139,72,41,13,-19,-40,-43,-50,-47,-45,-40,-31,-29,-26,-24,-23,-16,-13,-10,-2,2,8,23,44,56,61,70,84,97,114,120,114,83,53,21,-7,-24,-28,-39,-38,-35,-38,-36,-38,-36,-31,-32,-39,-37,-44
2019-06-01,11:36:45.409,-30,-24,-30,-27,-24,-30,-31,-31,-33,-44,-41,-40,-46,-51,-39,-40,-44,-42,-34,-38,-37,-40,-29,-15,-21,-24,-26,-38,-47,-54,-56,-58,-64,-58,-57,-51,-55,-59,-84,-16,329,617,305,48,40,23,2,-29,-33,-32,-34,-32,-34,-27,-12,-16,-16,-13,0,11,17,21,28,40,47,65,84,90,109,123,140,148,150,138,105,65,28,-2,-13,-20,-30,-40,-45,-44,-40,-39,-40,-39,-36,-37,-29,-36,-42,-31,-32,-45,-39,-33,-34,-36,-46,-44,-42,-47,-46,-47,-44,-45,-42,-42,-51,-49,-37,-34,-22,-14,-25,-27,-28,-41,-52,-43,-42,-44,-49,-48,-53,-56
2019-06-01,11:36:46.434,-72,-80,-85,-35,266,578,362,15,18,1,-16,-45,-43,-45,-50,-49,-43,-33,-28,-27,-26,-21,-17,-6,8,9,21,32,44,60,68,84,94,109,123,147,151,125,105,67,29,-4,-34,-37,-46,-44,-39,-49,-60,-67,-46,-45,-44,-48,-50,-49,-42,-39,-39,-44,-53,-42,-39,-39,-48,-43,-50,-60,-51,-38,-47,-44,-46,-50,-45,-52,-53,-39,-40,-42,-28,-22,-19,-30,-31,-29,-40,-54,-49,-50,-57,-52,-53,-60,-57,-60,-62,-79,0,355,644,344,65,58,23,-7,-24,-31,-37,-44,-38,-33,-29,-28,-29,-17,-2,3,-3,0,11,25,29,48,65,73,90,100
2019-06-01,11:36:47.460,101,113,126,133,139,115,72,36,3,-21,-40,-49,-45,-43,-37,-42,-42,-46,-52,-52,-49,-50,-49,-43,-49,-59,-50,-45,-52,-42,-38,-45,-50,-55,-58,-46,-49,-59,-60,-52,-51,-60,-63,-64,-61,-56,-57,-53,-45,-42,-24,-26,-38,-45,-57,-56,-50,-52,-57,-56,-59,-60,-61,-64,-64,-75,-46,249,613,487,92,72,42,7,-25,-37,-46,-48,-51,-48,-52,-39,-29,-26,-29,-22,-12,-1,4,6,10,17,38,49,68,89,101,111,127,146,143,118,67,36,15,-7,-29,-26,-27,-34,-42,-43,-48,-63,-46,-43,-37,-45,-45,-47,-53,-45,-39,-43,-58,-46,-34,-37
2019-06-01,11:36:48.486,-34,-32,-25,-25,-34,-37,-39,-29,-27,-30,-26,-17,-9,-19,-20,-23,-45,-44,-40,-47,-51,-49,-50,-53,-54,-51,-58,-83,129,532,613,170,98,57,25,-6,-25,-27,-33,-33,-32,-34,-31,-30,-33,-23,-7,0,0,5,11,19,29,42,48,57,84,101,123,138,148,138,109,70,34,9,-16,-25,-31,-34,-32,-35,-37,-40,-48,-48,-38,-37,-46,-54,-37,-26,-32,-42,-36,-38,-44,-41,-46,-50,-44,-37,-39,-45,-45,-44,-45,-52,-37,-31,-20,-16,-30,-32,-31,-36,-47,-47,-48,-57,-53,-59,-57,-49,-54,-66,-82,-20,330,651,401,94,66,36,10,-12,-25,-35
2019-06-01,11:36:49.511,-39,-46,-44,-40,-28,-22,-23,-22,-16,-10,-12,0,13,16,27,42,63,84,93,104,125,140,146,138,109,71,31,8,-12,-31,-36,-41,-42,-43,-43,-48,-46,-48,-40,-44,-41,-41,-30,-34,-39,-41,-44,-45,-46,-46,-54,-44,-43,-52,-50,-48,-45,-55,-55,-60,-60,-56,-66,-61,-55,-56,-52,-53,-43,-31,-23,-34,-48,-46,-51,-65,-58,-53,-53,-63,-65,-67,-61,-63,-65,-76,-56,200,565,506,65,33,20,-4,-31,-50,-46,-39,-39,-42,-41,-30,-22,-21,-20,-11,-4,3,11,5,26,43,53,66,78,93,98,120,136,135,143,137,99,61,28,0,-16,-27
2019-06-01,11:36:50.537,-26,-32,-24,-22,-32,-32,-38,-33,-35,-32,-27,-16,-20,-30,-33,-30,-35,-36,-34,-34,-34,-39,-45,-39,-42,-40,-38,-46,-50,-45,-52,-62,-50,-48,-51,-62,-55,-48,-45,-50,-44,-41,-40,-32,-28,-38,-52,-47,-54,-60,-54,-49,-53,-54,-57,-61,-67,-77,-59,-70,112,482,610,141,13,15,3,-17,-27,-32,-38,-36,-31,-31,-23,-20,-17,-17,-14,-7,7,20,23,30,40,54,62,84,102,116,124,139,150,152,135,103,69,31,0,-25,-33,-38,-29,-36,-44,-35,-36,-35,-40,-36,-28,-22,-20,-23,-30,-32,-34,-37,-40,-34,-30,-27,-35,-38,-41,-56,-57,-49
2019-06-01,11:36:51.563,-43,-45,-36,-34,-43,-48,-50,-59,-56,-48,-47,-43,-40,-36,-35,-40,-43,-17,-18,-31,-30,-34,-48,-55,-59,-58,-53,-52,-52,-59,-55,-58,-66,-52,182,552,562,76,15,12,9,-9,-33,-30,-21,-15,-14,-16,-11,-10,-7,2,4,25,30,27,35,51,62,74,92,117,135,150,161,177,178,182,166,131,88,56,26,14,1,-5,-11,-15,-30,-17,-9,-2,0,0,-2,-9,-5,-4,-4,-8,-7,-11,8,8,0,0,-1,-3,-6,-16,-10,-3,-13,-6,0,-8,-11,-13,-18,-16,-20,-3,0,-6,-12,-4,-3,-9,-6,-7,-1,8,18,23,11,-2,8,-1
2019-06-01,11:36:52.588,-75,-82,-70,-62,-72,-79,-84,-78,-83,-85,-84,61,417,601,184,-12,-4,-19,-37,-43,-49,-53,-48,-42,-44,-43,-35,-30,-28,-14,-10,-8,4,19,20,25,50,74,88,100,113,117,134,155,157,144,119,85,41,11,-8,-22,-32,-41,-42,-44,-48,-47,-46,-45,-40,-34,-34,-37,-42,-46,-23,-25,-31,-42,-50,-32,-33,-40,-47,-41,-38,-44,-48,-54,-67,-53,-44,-46,-53,-45,-44,-50,-52,-53,-58,-56,-57,-55,-60,-45,-38,-46,-51,-52,-50,-53,-55,-55,-53,-39,-34,-37,-39,-31,-21,-16,-21,-27,-37,-54,-46,-45,-52,-54,-50,-59,-58,-51,-56,-30,239,585
2019-06-01,11:36:53.614,477,27,12,4,-6,-24,-36,-36,-33,-32,-30,-30,-32,-26,-32,-29,-5,0,10,12,23,39,49,55,68,80,99,104,126,147,162,174,159,125,85,41,5,-5,-12,-22,-24,-25,-25,-27,-27,-30,-36,-24,-22,-23,-31,-20,-17,-22,-21,-18,-22,-30,-23,-30,-34,-33,-31,-35,-25,-22,-27,-28,-36,-34,-33,-37,-33,-37,-44,-41,-37,-32,-33,-34,-31,-32,-29,-32,-31,-34,-37,-35,-29,-30,-27,-19,-22,-19,3,-5,-14,-26,-23,-36,-44,-39,-46,-37,-37,-39,-47,-47,-55,-55,-27,251,581,465,48,36,23,6,-16,-18,-20,-17,-14,-16,-13,-15,-8,0
2019-06-01,11:36:54.640,23,23,27,40,51,58,65,75,82,93,114,125,137,154,169,182,184,178,148,109,73,49,24,10,-4,0,2,-1,0,-1,-4,-2,-7,-8,-1,-1,-9,-8,-16,-7,-10,-7,-12,-12,-17,-20,-23,-25,-29,-31,-31,-27,-32,-29,-27,-29,-31,-31,-33,-34,-30,-33,-30,-29,-32,-36,-34,-33,-34,-40,-37,-32,-24,-21,-23,-22,-16,-4,-15,-22,-8,-13,-29,-30,-33,-36,-34,-39,-53,-51,-58,-36,-40,22,349,638,375,69,64,40,6,-19,-19,-14,-15,-16,-12,-13,-15,-6,-2,-2,-1,10,17,20,22,29,37,47,58,76,88,95,112,127,147,155
2019-06-01,11:36:55.665,137,107,75,39,14,0,-15,-23,-31,-35,-36,-37,-40,-37,-39,-47,-51,-26,-24,-29,-39,-41,-37,-44,-48,-41,-40,-33,-34,-39,-40,-44,-46,-51,-50,-51,-54,-56,-53,-57,-63,-47,-46,-49,-46,-46,-46,-48,-51,-49,-46,-40,-39,-37,-28,-31,-21,-33,-45,-53,-44,-51,-52,-62,-55,-53,-54,-55,-64,-67,-11,285,555,265,-11,7,6,-11,-28,-30,-33,-34,-37,-31,-21,-19,-15,-13,-10,-2,6,11,20,36,39,56,76,93,101,116,137,150,155,162,155,134,101,64,30,1,-18,-28,-42,-42,-47,-44,-57,-54,-40,-38,-41,-33,-32,-37,-44,-53,-45,-37
2019-06-01,11:36:56.691,-30,-35,-32,-34,-36,-37,-44,-49,-52,-53,-42,-37,-39,-42,-42,-41,-49,-42,-40,-43,-34,-13,-6,-21,-21,-30,-43,-50,-53,-53,-61,-64,-64,-47,-40,-47,-59,-40,204,551,485,59,37,20,0,-29,-27,-25,-29,-35,-35,-28,-30,-29,-19,-15,-6,-2,1,3,8,21,40,53,70,90,102,116,129,146,159,166,144,108,60,29,9,-10,-24,-23,-25,-36,-41,-41,-35,-29,-27,-28,-29,-28,-32,-30,-35,-30,-25,-25,-30,-33,-34,-42,-44,-39,-42,-46,-44,-42,-42,-40,-37,-45,-49,-46,-51,-53,-51,-45,-45,-52,-49,-43,-41,-37,-38,-26,-8,-13,-27,-33
2019-06-01,11:36:57.717,-42,-53,-64,-62,-60,-52,-51,-53,-56,-57,-61,-73,-17,301,597,367,34,35,17,-7,-24,-32,-37,-43,-36,-46,-43,-23,-15,-7,-3,-1,3,8,13,26,35,41,56,70,65,79,107,119,142,166,169,151,118,73,35,-3,-16,-33,-27,-26,-28,-31,-35,-40,-41,-39,-33,-41,-22,-22,-28,-31,-35,-33,-31,-34,-38,-37,-36,-33,-33,-35,-36,-35,-36,-37,-42,-42,-34,-35,-35,-39,-30,-24,-27,-28,-35,-32,-35,-45,-46,-34,-27,-26,-18,-4,-5,-17,-19,-28,-34,-41,-46,-51,-57,-47,-38,-40,-41,-44,-51,-62,133,505,589,137,55,43,30,4,-8,-19
2019-06-01,11:36:58.742,-30,-32,-34,-40,-47,-30,-19,-14,-4,-1,0,7,14,16,25,32,45,44,70,98,103,114,131,155,152,124,88,56,27,2,-17,-24,-29,-37,-34,-36,-37,-32,-29,-31,-35,-33,-36,-34,-37,-33,-34,-36,-33,-33,-33,-40,-45,-46,-43,-41,-36,-39,-33,-34,-38,-43,-45,-43,-41,-48,-44,-43,-48,-44,-48,-51,-46,-39,-36,-42,-37,-32,-39,-47,-33,-8,-9,-19,-22,-27,-40,-57,-54,-42,-44,-48,-56,-52,-54,-65,-75,-59,184,550,557,120,75,39,7,-14,-34,-47,-42,-31,-32,-34,-31,-35,-30,-23,-20,-22,-14,-6,0,3,9,16,23,34,48,63
2019-06-01,11:36:59.768,79,96,111,128,129,109,81,40,19,0,-11,-26,-28,-22,-23,-24,-25,-31,-37,-34,-23,-27,-26,-20,-28,-38,-32,-31,-37,-42,-46,-38,-35,-38,-41,-44,-46,-47,-46,-45,-48,-40,-41,-45,-51,-52,-44,-40,-45,-45,-45,-42,-39,-41,-51,-42,-19,-15,-26,-27,-27,-40,-50,-55,-61,-57,-49,-52,-48,-48,-59,-66,-75,46,401,612,213,45,34,24,-5,-23,-35,-40,-38,-30,-22,-24,-22,-15,-13,-19,-15,-4,17,26,30,32,38,55,64,80,92,116,129,140,149,144,119,85,47,16,-20,-27,-29,-37,-45,-36,-37,-48,-45,-44,-47,-47,-43,-38,-40,-42
2019-06-01,11:37:00.794,-32,-30,-30,-33,-36,-39,-42,-36,-40,-31,-33,-40,-45,-39,-36,-42,-44,-41,-42,-37,-40,-46,-45,-39,-36,-39,-32,-18,-17,-20,-19,-27,-41,-43,-45,-44,-47,-53,-55,-51,-45,-50,-59,-65,81,434,608,181,55,49,25,1,-11,-19,-20,-16,-17,-12,-14,-4,0,3,6,5,12,16,26,45,55,67,71,80,104,112,125,138,163,175,169,143,102,64,35,10,-3,-14,-22,-16,-6,-14,-24,-23,-16,-20,-15,-20,-26,-19,-17,-16,-17,-19,-21,-22,-22,-28,-23,-18,-20,-25,-38,-30,-19,-18,-23,-25,-23,-27,-36,-37,-37,-34,-39,-29,-27,-26,-32,-36
2019-06-01,11:37:01.819,-62,-59,-51,-41,-45,-53,-53,-52,-56,-57,-56,-58,-62,-61,-66,-73,-82,-65,-71,-25,287,599,402,65,55,33,1,-27,-36,-39,-43,-34,-34,-35,-27,-21,-16,-15,-17,-9,8,13,16,19,35,50,62,76,88,107,125,142,152,154,152,125,82,44,16,-7,-26,-32,-19,-20,-27,-26,-30,-32,-30,-30,-26,-28,-25,-22,-24,-32,-32,-27,-27,-24,-26,-20,-27,-29,-30,-29,-34,-31,-33,-30,-33,-34,-35,-37,-34,-34,-37,-42,-53,-46,-45,-37,-39,-33,-29,-32,-31,-18,-15,-24,-28,-35,-44,-51,-50,-38,-40,-42,-49,-53,-49,-57,-73,-47,45,378,622,256
2019-06-01,11:37:02.845,-27,-17,-9,-29,-43,-42,-39,-38,-44,-46,-46,-40,-30,-28,-38,-24,0,11,15,16,29,44,50,66,93,111,124,142,155,158,151,130,94,43,18,-16,-37,-43,-49,-52,-51,-56,-56,-58,-55,-53,-46,-45,-43,-48,-48,-45,-48,-50,-61,-52,-51,-50,-48,-53,-53,-54,-64,-62,-62,-69,-55,-56,-53,-57,-58,-55,-60,-51,-48,-51,-50,-49,-38,-25,-20,-22,-30,-29,-33,-45,-52,-61,-58,-58,-59,-62,-68,-60,-57,-64,-75,109,481,596,119,7,5,-12,-27,-28,-34,-34,-35,-29,-25,-22,-22,-19,-16,-14,-6,5,10,19,20,34,51,67,80,92,115,128
2019-06-01,11:37:03.871,130,152,160,146,120,87,58,23,-9,-26,-33,-43,-45,-41,-42,-40,-45,-51,-50,-35,-31,-36,-37,-42,-43,-37,-44,-49,-47,-43,-35,-36,-34,-39,-42,-48,-41,-47,-53,-61,-59,-44,-43,-48,-46,-46,-43,-46,-52,-47,-52,-52,-57,-45,-31,-37,-35,-20,-23,-36,-38,-43,-55,-54,-59,-62,-50,-51,-57,-59,-61,-61,-68,-15,295,612,415,31,31,14,-5,-26,-30,-40,-42,-44,-33,-27,-21,-16,-10,-8,-10,-14,-7,3,15,22,30,39,54,66,83,95,112,131,147,154,141,108,73,34,7,-17,-26,-36,-40,-35,-39,-39,-39,-40,-39,-47,-42,-36,-36,-38
2019-06-01,11:37:04.896,-27,-24,-26,-26,-25,-29,-34,-38,-41,-32,-28,-29,-31,-33,-34,-37,-35,-34,-42,-41,-38,-40,-42,-41,-37,-40,-40,-43,-46,-44,-38,-40,-34,-30,-29,-27,-16,-5,-7,-9,-15,-26,-32,-40,-48,-32,-27,-32,-32,-34,-40,-49,-35,219,583,562,108,59,45,24,2,-13,-17,-23,-25,-33,-29,-8,-7,-3,0,0,6,6,13,23,23,29,43,60,75,81,88,108,125,134,147,154,132,96,51,17,-1,-17,-27,-25,-27,-32,-38,-32,-36,-33,-31,-32,-31,-34,-36,-41,-36,-34,-35,-42,-43,-46,-41,-42,-40,-35,-34,-45,-43,-44,-47,-43,-39,-38,-37,-43
2019-06-01,11:37:05.922,-47,-47,-53,-46,-45,-45,-50,-39,-45,-44,-42,-45,-41,-33,-36,-34,-16,-11,-18,-25,-27,-43,-46,-43,-44,-48,-51,-56,-53,-56,-59,-62,-70,164,537,584,147,79,49,19,-8,-27,-33,-39,-33,-27,-29,-27,-15,-10,-5,-5,-8,2,15,21,21,27,31,37,52,68,73,92,117,136,144,143,129,100,59,15,6,-8,-17,-28,-33,-34,-34,-35,-37,-39,-40,-32,-32,-35,-37,-43,-39,-32,-33,-31,-37,-40,-37,-43,-45,-46,-51,-48,-37,-37,-40,-41,-47,-44,-50,-55,-49,-49,-49,-39,-40,-47,-51,-44,-47,-49,-46,-47,-54,-44,-38,-35,-23,-18,-23,-28
2019-06-01,11:37:06.948,-28,-38,-47,-45,-44,-45,-48,-46,-47,-49,-47,-63,-41,240,608,513,121,93,64,23,-11,-22,-18,-26,-25,-28,-23,-24,-21,-13,-18,-17,-1,5,6,14,19,25,27,42,63,75,93,103,118,139,156,155,131,91,58,26,3,-5,-9,-20,-20,-20,-26,-26,-23,-23,-25,-25,-22,-25,-31,-30,-21,-25,-27,-35,-41,-30,-27,-34,-27,-26,-29,-32,-42,-43,-30,-31,-37,-38,-37,-34,-38,-43,-46,-44,-44,-39,-41,-33,-25,-28,-28,-23,-20,-20,-17,-23,-31,-37,-41,-39,-38,-44,-50,-53,-47,-52,-53,-54,-55,90,438,590,145,23,27,26,0,-16,-35,-35
2019-06-01,11:37:07.973,-42,-37,-31,-23,-23,-21,-14,-7,-4,0,6,13,19,25,47,54,70,84,90,108,117,126,147,138,119,90,53,27,1,-14,-29,-37,-35,-39,-36,-39,-45,-46,-32,-29,-29,-31,-36,-42,-40,-41,-41,-35,-36,-42,-36,-38,-41,-46,-47,-41,-39,-43,-51,-54,-50,-44,-47,-49,-43,-40,-47,-46,-50,-47,-55,-46,-41,-43,-40,-31,-15,-15,-23,-28,-29,-45,-46,-49,-50,-56,-56,-55,-58,-56,-70,-64,-71,37,415,656,284,69,51,27,-3,-24,-32,-38,-37,-35,-36,-30,-26,-20,-12,-7,0,4,10,16,19,24,53,65,71,87,101,113,123,141,161,163
2019-06-01,11:37:08.999,144,109,84,51,18,-8,-23,-26,-33,-36,-42,-41,-41,-46,-48,-38,-37,-35,-38,-39,-39,-39,-41,-44,-46,-48,-46,-50,-44,-40,-50,-54,-56,-58,-59,-57,-54,-51,-44,-47,-53,-56,-50,-47,-64,-65,-50,-53,-53,-54,-49,-46,-40,-43,-58,-42,-17,-15,-36,-38,-36,-43,-49,-54,-61,-65,-65,-56,-56,-63,-53,-63,-59,139,492,560,80,2,2,2,-25,-34,-42,-34,-31,-34,-36,-26,-20,-11,-3,-12,-12,-1,11,24,41,48,58,70,86,102,110,125,141,151,172,168,141,100,57,13,-12,-27,-33,-33,-40,-41,-42,-40,-41,-46,-46,-43,-37,-33,-40,-44
2019-06-01,11:37:10.025,-33,-38,-33,-39,-38,-30,-32,-37,-38,-33,-32,-37,-44,-41,-49,-52,-46,-46,-40,-39,-46,-47,-45,-49,-41,-41,-42,-32,-41,-50,-35,-13,-8,-18,-25,-31,-43,-44,-47,-50,-48,-48,-50,-56,-49,-48,-50,-52,16,339,615,340,14,16,4,3,-3,-13,-24,-26,-32,-23,-16,-13,-2,4,9,9,18,27,29,22,37,61,76,94,110,126,141,151,163,171,173,149,120,84,44,10,2,-14,-27,-30,-28,-35,-46,-35,-35,-44,-36,-30,-28,-31,-38,-32,-37,-36,-41,-36,-37,-40,-41,-43,-44,-44,-50,-45,-47,-49,-47,-49,-50,-43,-41,-45,-52,-49,-48,-51
2019-06-01,11:37:11.050,-67,-61,-49,-52,-54,-57,-60,-53,-49,-49,-50,-43,-34,-33,-43,-42,-44,-49,-50,-52,-55,-68,-65,-61,-54,-59,-60,-69,-49,199,559,535,70,27,12,-4,-21,-36,-39,-39,-47,-41,-36,-30,-31,-25,-10,0,7,9,14,13,28,33,53,67,76,85,105,118,135,143,152,164,153,111,77,37,5,-7,-16,-23,-25,-31,-33,-24,-27,-30,-46,-31,-11,-18,-20,-25,-28,-25,-21,-23,-29,-38,-50,-34,-29,-39,-36,-42,-39,-47,-35,-34,-34,-34,-43,-47,-32,-35,-33,-30,-29,-31,-33,-33,-28,-28,-28,-33,-39,-41,-36,-26,-25,-27,-30,-28,-14,-9,-16,-17
2019-06-01,11:37:12.076,-36,-52,-65,-67,-48,-42,-55,-61,-50,-53,-57,-67,17,342,612,318,2,12,10,-14,-30,-35,-38,-44,-38,-22,-20,-26,-21,-23,-16,-9,-7,-8,6,20,29,40,45,59,73,84,92,109,128,141,151,156,134,95,58,25,5,-13,-28,-30,-25,-28,-38,-40,-36,-32,-28,-27,-30,-32,-40,-29,-27,-25,-31,-34,-32,-39,-42,-49,-39,-32,-38,-40,-47,-45,-51,-41,-44,-49,-51,-42,-40,-54,-47,-45,-47,-43,-47,-50,-50,-46,-44,-51,-40,-37,-43,-49,-44,-33,-31,-19,-17,-19,-30,-33,-39,-44,-47,-39,-39,-50,-54,-61,-53,-55,-55,-29,222,566,510,70
2019-06-01,11:37:13.102,35,17,6,-11,-22,-31,-25,-29,-23,-20,-18,-18,-17,-6,-3,4,18,19,22,30,37,46,58,70,83,94,113,128,135,162,166,146,110,71,34,8,-11,-20,-27,-34,-37,-38,-39,-36,-38,-41,-40,-41,-39,-40,-39,-42,-40,-39,-40,-41,-40,-35,-39,-42,-39,-40,-44,-47,-44,-48,-55,-54,-51,-51,-57,-52,-49,-46,-49,-48,-49,-52,-55,-54,-53,-50,-52,-55,-45,-41,-39,-38,-22,-17,-27,-27,-29,-32,-40,-49,-44,-41,-44,-48,-53,-51,-51,-55,-59,109,460,597,166,44,43,23,-1,-19,-30,-28,-31,-28,-27,-19,-15,-11,-9,-4,10,18,18,19
2019-06-01,11:37:14.128,39,51,59,68,83,94,110,126,135,149,163,176,164,133,95,61,30,6,-13,-9,-22,-24,-21,-24,-20,-21,-22,-23,-22,-21,-23,-24,-25,-27,-23,-21,-25,-31,-30,-32,-28,-27,-31,-37,-34,-35,-40,-48,-46,-42,-41,-43,-50,-48,-46,-43,-48,-46,-42,-44,-43,-41,-39,-39,-31,-20,-24,-23,-26,-28,-40,-47,-49,-49,-55,-62,-47,-48,-53,-55,-67,-33,261,578,411,51,48,26,1,-28,-45,-52,-51,-37,-36,-47,-45,-42,-36,-20,-20,-22,-16,1,4,2,22,19,36,49,64,84,104,108,132,147,146,123,87,38,20,-5,-11,-23,-28,-40,-42,-39
2019-06-01,11:37:15.153,-17,-14,-18,-14,-18,-20,-19,-14,-15,-22,-22,-20,-11,-32,-32,-8,-24,-34,-27,-31,-38,-21,0,-30,-39,-34,-39,-36,-30,-39,-26,-38,-50,-46,-44,-41,-28,-29,-9,-6,-21,-22,-21,-23,-33,-46,-42,-40,-39,-42,-43,-42,-42,-45,-62,-24,296,617,404,68,73,48,11,-15,-25,-26,-32,-33,-31,-29,-20,-15,-15,-2,-3,4,4,10,21,19,24,37,56,60,74,89,98,114,127,150,148,124,95,61,19,-3,-13,-17,-30,-32,-27,-20,-28,-33,-29,-28,-31,-33,-29,-24,-25,-27,-30,-35,-34,-39,-33,-38,-33,-39,-40,-45,-44,-44,-43,-49,-46,-46
2019-06-01,11:37:16.179,-32,-33,-36,-38,-37,-33,-31,-28,-30,-29,-17,-9,-21,-30,-34,-48,-59,-60,-59,-60,-63,-65,-72,-69,-69,-70,-72,-45,210,522,367,-22,-14,-6,-13,-23,-34,-35,-36,-34,-32,-25,-24,-10,-10,-15,-1,13,19,28,37,44,61,76,84,107,133,144,159,171,181,184,172,133,90,51,14,-12,-31,-46,-47,-53,-50,-51,-57,-51,-57,-55,-52,-52,-53,-55,-51,-52,-60,-61,-62,-60,-62,-61,-66,-66,-61,-66,-70,-65,-65,-56,-55,-45,-42,-48,-47,-53,-68,-81,-76,-76,-79,-82,-77,-74,-81,-80,-83,-76,8,291,514,176,-93,-64,-35,-31,-36,-43,-40,-32
2019-06-01,11:37:17.205,-30,-28,-20,-22,-20,-16,1,17,11,19,30,40,54,73,93,110,134,145,165,182,194,193,180,145,107,64,31,4,-16,-36,-41,-47,-44,-50,-52,-49,-47,-40,-38,-37,-48,-39,-42,-38,-37,-41,-37,-40,-41,-45,-48,-50,-47,-50,-47,-48,-50,-49,-42,-41,-35,-28,-23,-25,-31,-32,-39,-57,-59,-60,-60,-60,-63,-64,-65,-66,-69,-69,-54,142,468,505,46,-33,-20,-13,-26,-36,-42,-37,-39,-33,-28,-25,-21,-16,-13,-7,2,9,17,25,33,47,60,78,96,113,131,147,161,170,171,164,131,85,39,2,-20,-29,-38,-44,-48,-49,-48,-52,-51,-46
2019-06-01,11:37:18.230,-39,-40,-41,-37,-40,-37,-40,-40,-40,-44,-46,-42,-54,-52,-53,-57,-54,-56,-59,-60,-66,-71,-64,-57,-52,-52,-49,-37,-38,-41,-46,-49,-58,-65,-63,-61,-66,-68,-68,-69,-71,-73,-68,-62,75,398,543,123,-42,-31,-16,-21,-32,-34,-39,-42,-39,-36,-26,-23,-18,-12,-2,0,8,14,21,34,49,63,79,99,115,126,140,157,172,179,168,142,99,55,20,-7,-23,-36,-41,-44,-46,-47,-47,-50,-48,-45,-47,-44,-42,-43,-45,-50,-51,-49,-48,-47,-48,-47,-48,-48,-49,-48,-48,-50,-53,-55,-56,-52,-52,-52,-54,-54,-49,-46,-40,-32,-25,-30,-37,-41
2019-06-01,11:37:19.256,-43,-57,-61,-57,-61,-63,-59,-59,-59,-60,-66,-66,-53,146,473,513,59,-10,-11,-9,-22,-27,-30,-32,-34,-33,-28,-21,-12,-9,-3,2,7,17,24,31,40,51,67,78,93,111,128,148,157,169,181,170,146,103,61,24,1,-16,-28,-33,-35,-32,-35,-33,-35,-35,-33,-31,-36,-32,-32,-37,-34,-30,-29,-33,-33,-37,-38,-34,-32,-38,-37,-43,-41,-33,-38,-37,-38,-41,-40,-41,-41,-40,-41,-42,-43,-42,-48,-43,-40,-34,-30,-25,-15,-16,-23,-24,-26,-36,-44,-42,-41,-40,-45,-48,-47,-45,-46,-51,-45,167,513,562,112,37,24,19,0,-13,-21,-21
2019-06-01,11:37:20.282,-40,-38,-36,-34,-30,-24,-17,-8,-1,0,3,8,16,22,32,40,53,66,82,92,106,121,134,137,120,92,60,26,1,-12,-23,-28,-30,-32,-36,-40,-40,-39,-37,-38,-37,-34,-31,-35,-38,-36,-37,-43,-40,-38,-42,-45,-45,-44,-44,-42,-39,-42,-43,-40,-39,-40,-42,-48,-45,-43,-44,-47,-44,-42,-41,-41,-41,-40,-37,-30,-15,-18,-30,-32,-32,-42,-53,-55,-55,-55,-56,-56,-61,-60,-61,-68,-78,107,500,633,209,90,52,21,-11,-29,-38,-35,-35,-33,-38,-34,-31,-29,-25,-17,-12,-11,-6,0,5,15,22,33,46,55,68,78,92,112,134,139
2019-06-01,11:37:21.307,127,101,67,35,9,-9,-15,-22,-30,-33,-30,-26,-29,-30,-32,-34,-33,-35,-36,-36,-35,-31,-31,-35,-36,-35,-38,-39,-42,-42,-43,-41,-43,-45,-46,-48,-45,-39,-45,-47,-44,-45,-41,-43,-43,-42,-40,-41,-38,-42,-45,-46,-45,-43,-39,-34,-31,-21,-12,-19,-28,-31,-39,-47,-52,-54,-50,-56,-54,-59,-55,-56,-61,-79,76,465,659,247,92,55,27,-4,-20,-31,-34,-36,-34,-32,-29,-25,-19,-17,-12,-8,-5,0,2,5,16,25,36,46,60,69,85,98,116,137,145,138,110,76,42,11,-8,-22,-29,-34,-35,-38,-36,-35,-37,-36,-38,-38,-37,-41
2019-06-01,11:37:22.333,-28,-26,-28,-30,-33,-34,-36,-37,-35,-34,-36,-37,-41,-39,-42,-40,-45,-41,-42,-40,-35,-35,-36,-36,-37,-36,-35,-33,-32,-28,-26,-13,-12,-19,-21,-27,-42,-44,-40,-42,-42,-45,-51,-50,-48,-51,-61,-56,193,566,560,132,84,44,16,-7,-18,-24,-25,-29,-31,-27,-21,-21,-19,-17,-7,-1,4,11,17,22,30,38,46,56,63,79,95,108,125,139,142,127,92,54,24,2,-14,-30,-34,-31,-38,-40,-39,-40,-41,-41,-45,-42,-41,-39,-39,-38,-36,-39,-39,-37,-36,-38,-39,-36,-37,-39,-40,-40,-44,-46,-46,-48,-47,-44,-46,-42,-44,-39,-41,-41
2019-06-01,11:37:23.359,-35,-32,-34,-38,-33,-29,-29,-19,-13,-17,-22,-26,-36,-40,-39,-40,-46,-48,-49,-45,-49,-51,-58,-75,111,511,650,216,97,60,30,-5,-23,-32,-34,-35,-36,-35,-31,-30,-25,-19,-12,-12,-8,-3,1,5,17,25,32,40,55,67,77,94,111,128,136,125,102,62,29,2,-15,-29,-35,-46,-48,-46,-44,-47,-45,-43,-44,-47,-47,-45,-44,-46,-44,-40,-43,-41,-44,-46,-46,-45,-49,-54,-54,-54,-54,-57,-57,-50,-45,-43,-37,-29,-31,-39,-41,-50,-59,-61,-63,-61,-64,-65,-66,-64,-62,-68,-77,-51,243,602,482,83,52,26,2,-20,-31,-39,-40,-41
2019-06-01,11:37:24.384,-36,-34,-31,-28,-22,-15,-12,-6,0,4,14,18,28,39,50,68,82,98,113,128,142,148,141,107,73,38,4,-20,-30,-37,-44,-47,-45,-47,-44,-44,-41,-44,-42,-44,-40,-42,-39,-41,-44,-42,-44,-43,-42,-45,-44,-46,-49,-48,-49,-50,-47,-48,-52,-54,-52,-44,-41,-31,-21,-28,-34,-35,-40,-54,-59,-55,-60,-59,-61,-58,-58,-60,-64,-76,-63,221,589,520,103,65,27,5,-23,-40,-43,-46,-45,-40,-39,-37,-31,-30,-22,-15,-7,-3,2,9,16,25,31,43,58,78,87,102,120,137,148,141,116,77,40,9,-11,-23,-33,-40,-44,-46,-45,-44
2019-06-01,11:37:25.410,-46,-48,-45,-45,-46,-47,-46,-51,-48,-51,-51,-49,-51,-52,-52,-51,-49,-48,-49,-50,-53,-49,-50,-46,-50,-51,-51,-52,-51,-49,-50,-48,-46,-41,-34,-27,-15,-23,-30,-33,-36,-52,-56,-56,-58,-54,-55,-59,-61,-63,-61,-66,-75,120,515,622,184,81,44,17,-12,-29,-39,-40,-40,-43,-41,-33,-32,-25,-26,-16,-8,-2,2,7,11,17,27,35,46,61,73,83,97,116,134,142,127,96,63,30,6,-12,-23,-27,-34,-35,-37,-38,-39,-36,-35,-36,-31,-33,-33,-29,-31,-33,-29,-34,-36,-35,-38,-37,-39,-40,-41,-43,-42,-43,-42,-44,-47,-46,-43,-41
2019-06-01,11:37:26.436,-43,-45,-43,-40,-42,-41,-44,-43,-43,-45,-46,-43,-38,-37,-30,-19,-14,-27,-26,-29,-46,-56,-55,-50,-55,-57,-50,-57,-56,-55,-65,-74,149,546,620,170,86,47,22,-8,-26,-37,-40,-39,-39,-34,-28,-30,-25,-23,-17,-11,-6,-3,7,13,22,28,42,58,67,84,92,112,128,141,150,141,111,74,38,6,-11,-22,-26,-30,-34,-39,-36,-36,-36,-38,-35,-34,-34,-35,-37,-36,-36,-37,-42,-42,-43,-46,-47,-45,-42,-44,-53,-47,-50,-53,-53,-54,-56,-51,-52,-53,-56,-57,-57,-59,-55,-54,-51,-48,-39,-32,-25,-34,-35,-36,-47,-55,-56,-61,-61,-61
2019-06-01,11:37:27.461,-68,-69,-69,-67,-70,-83,2,351,624,315,42,31,16,-8,-28,-38,-40,-41,-40,-38,-37,-36,-28,-18,-16,-10,0,5,15,22,25,31,41,52,66,84,97,113,127,146,155,148,120,84,51,25,0,-7,-19,-23,-27,-30,-27,-28,-29,-22,-20,-14,-15,-17,-15,-15,-19,-20,-20,-22,-27,-28,-27,-29,-33,-28,-34,-37,-39,-36,-36,-34,-35,-29,-34,-36,-34,-37,-35,-36,-36,-33,-35,-33,-40,-45,-39,-37,-32,-24,-12,-6,-17,-27,-31,-38,-51,-52,-46,-52,-49,-49,-50,-56,-64,-56,-60,68,425,622,209,12,16,3,-12,-26,-28,-33,-33,-26,-25,-14
2019-06-01,11:37:28.487,-39,-31,-19,-13,-4,1,12,13,26,35,45,62,72,92,109,118,135,148,158,164,156,129,84,43,10,-7,-21,-31,-36,-43,-47,-48,-50,-49,-45,-42,-37,-38,-37,-40,-37,-36,-38,-36,-33,-39,-42,-46,-52,-50,-47,-49,-49,-52,-51,-55,-58,-56,-57,-60,-59,-55,-57,-60,-58,-55,-53,-51,-52,-52,-50,-53,-53,-47,-41,-40,-30,-18,-20,-26,-26,-33,-44,-47,-47,-52,-50,-51,-50,-52,-54,-59,-73,-50,247,617,544,113,81,42,9,-15,-28,-32,-35,-38,-39,-32,-30,-28,-22,-19,-17,-12,-9,-4,1,7,15,24,31,45,56,65,77,92,112,132
2019-06-01,11:37:29.513,138,132,105,70,38,12,-6,-21,-22,-29,-31,-30,-29,-31,-31,-30,-28,-33,-32,-30,-28,-30,-29,-29,-28,-29,-32,-29,-24,-26,-28,-30,-31,-38,-39,-38,-39,-39,-37,-38,-41,-44,-40,-37,-40,-44,-43,-45,-48,-46,-43,-44,-45,-45,-43,-40,-42,-40,-40,-38,-29,-17,-14,-25,-32,-34,-45,-48,-50,-49,-53,-54,-56,-58,-53,-60,-72,-81,148,554,638,180,91,49,14,-18,-33,-41,-39,-39,-40,-42,-37,-33,-33,-30,-24,-14,-14,-6,0,7,13,21,31,44,55,67,85,102,125,140,151,143,117,78,45,15,-9,-21,-29,-29,-33,-36,-39,-38,-39,-37
2019-06-01,11:37:30.538,-26,-25,-25,-20,-22,-24,-26,-25,-25,-24,-31,-35,-36,-36,-34,-32,-32,-36,-40,-37,-37,-40,-36,-35,-34,-37,-35,-33,-35,-38,-35,-34,-35,-34,-34,-38,-35,-34,-37,-35,-35,-35,-32,-30,-24,-19,-9,-11,-19,-22,-27,-35,-38,-36,-40,-38,-40,-41,-42,-41,-45,-66,-2,359,689,445,118,88,47,12,-11,-23,-28,-32,-30,-27,-26,-24,-20,-16,-14,-6,-3,1,6,11,18,24,31,43,57,71,80,94,111,132,149,155,143,109,71,38,12,-5,-12,-20,-25,-29,-32,-31,-27,-28,-30,-28,-26,-30,-31,-29,-28,-28,-30,-28,-29,-32,-34,-33,-34,-41
2019-06-01,11:37:31.564,-45,-48,-47,-48,-49,-47,-45,-47,-51,-50,-47,-50,-50,-46,-47,-49,-48,-50,-53,-52,-54,-52,-52,-49,-48,-48,-44,-42,-40,-42,-35,-27,-27,-15,-22,-28,-32,-40,-48,-53,-53,-51,-53,-54,-56,-62,-60,-60,-77,15,384,668,350,84,61,37,2,-20,-30,-35,-34,-35,-28,-28,-24,-20,-16,-10,-10,-4,1,5,7,14,23,33,41,56,67,80,94,109,127,143,147,131,102,63,35,14,0,-15,-21,-22,-23,-21,-20,-20,-28,-23,-22,-17,-23,-20,-21,-26,-24,-26,-26,-27,-33,-32,-28,-30,-33,-34,-39,-41,-39,-40,-43,-40,-37,-40,-42,-43,-46,-41
2019-06-01,11:37:32.590,-42,-45,-48,-42,-48,-48,-48,-47,-45,-50,-48,-47,-45,-43,-45,-41,-32,-23,-20,-27,-36,-40,-48,-56,-54,-59,-54,-60,-59,-57,-59,-61,-71,-63,183,552,549,77,28,17,4,-22,-32,-35,-36,-35,-36,-36,-32,-27,-19,-14,-11,-13,-6,1,9,18,26,34,45,53,65,77,92,110,126,137,149,143,115,80,43,13,-4,-20,-26,-31,-35,-34,-36,-37,-32,-30,-30,-31,-27,-28,-29,-28,-29,-31,-31,-30,-29,-29,-30,-28,-29,-32,-31,-31,-35,-40,-37,-36,-40,-38,-36,-37,-38,-39,-40,-41,-40,-38,-40,-41,-43,-41,-43,-41,-35,-34,-30,-19,-21,-23
2019-06-01,11:37:33.615,-22,-30,-40,-40,-41,-46,-45,-44,-48,-48,-47,-50,-65,-53,233,617,584,147,92,49,19,-9,-21,-31,-33,-31,-32,-27,-20,-15,-10,-8,-2,0,3,5,13,13,21,34,46,58,68,87,100,124,136,156,163,158,130,84,48,27,3,-18,-18,-20,-37,-29,-33,-37,-46,-27,-21,-18,-19,-27,-22,-18,-17,-24,-24,-25,-25,-28,-29,-31,-34,-34,-37,-42,-43,-42,-38,-42,-43,-39,-39,-38,-40,-42,-40,-35,-34,-33,-37,-39,-41,-41,-35,-32,-33,-27,-19,-17,-20,-24,-28,-39,-47,-47,-46,-47,-45,-42,-43,-45,-46,-51,-31,204,549,538,76,32,21,11
2019-06-01,11:37:34.641,-22,-32,-38,-40,-40,-36,-31,-26,-28,-27,-19,-15,-9,-5,3,11,21,31,37,54,67,88,103,113,128,149,162,168,149,113,74,33,7,-13,-27,-31,-35,-36,-37,-40,-41,-42,-41,-44,-39,-37,-39,-35,-33,-33,-31,-34,-32,-35,-38,-37,-38,-41,-45,-45,-47,-48,-49,-55,-54,-52,-54,-48,-53,-52,-44,-43,-38,-41,-43,-36,-30,-20,-20,-26,-31,-34,-41,-53,-61,-56,-56,-63,-68,-66,-63,-61,-68,-71,66,426,624,210,3,-4,1,-19,-38,-44,-47,-43,-43,-46,-39,-28,-19,-14,-12,-7,0,11,13,24,39,48,62,73,90,108,122,134,148,164
2019-06-01,11:37:35.667,173,161,127,88,51,19,-5,-18,-26,-32,-37,-39,-39,-36,-34,-31,-33,-33,-31,-29,-30,-32,-30,-32,-34,-33,-35,-37,-38,-40,-38,-38,-35,-40,-46,-49,-50,-48,-49,-51,-53,-53,-53,-50,-47,-42,-40,-39,-29,-18,-24,-33,-37,-35,-45,-57,-54,-56,-59,-58,-61,-66,-66,-64,-67,-68,86,439,592,165,5,4,2,-17,-34,-41,-40,-43,-40,-35,-33,-31,-25,-16,-12,-7,-3,5,16,22,28,47,61,79,100,115,131,147,164,173,172,156,129,86,45,9,-13,-28,-39,-45,-49,-46,-44,-45,-46,-45,-46,-46,-44,-43,-47,-47,-48,-45,-47,-49,-50,-50
2019-06-01,11:37:36.692,-30,-28,-31,-35,-39,-41,-42,-37,-40,-44,-39,-39,-38,-41,-40,-41,-39,-38,-37,-36,-42,-44,-40,-40,-38,-37,-35,-35,-31,-20,-16,-23,-26,-24,-40,-44,-42,-42,-45,-48,-47,-44,-42,-46,-51,-62,89,466,652,230,52,35,23,-1,-19,-27,-28,-28,-28,-27,-23,-19,-16,-10,-8,-3,3,6,11,21,27,37,49,61,79,90,102,118,133,147,162,158,134,96,61,29,4,-11,-17,-23,-22,-24,-26,-30,-29,-30,-27,-30,-24,-23,-21,-24,-23,-24,-27,-26,-31,-33,-31,-31,-34,-36,-35,-38,-40,-32,-30,-35,-36,-34,-37,-39,-41,-38,-42,-43,-41,-43
2019-06-01,11:37:37.718,-54,-54,-57,-53,-52,-56,-50,-47,-45,-40,-33,-19,-19,-26,-27,-27,-42,-51,-56,-58,-58,-59,-55,-56,-53,-58,-68,-75,131,523,638,186,83,54,24,-9,-28,-38,-39,-36,-36,-33,-30,-28,-27,-24,-18,-12,-11,-6,2,7,18,28,33,44,59,70,83,97,105,130,144,139,114,73,31,5,-6,-10,-22,-30,-37,-36,-35,-37,-40,-39,-39,-36,-37,-38,-35,-39,-39,-41,-40,-40,-35,-41,-40,-47,-30,-36,-41,-38,-42,-42,-41,-42,-44,-46,-43,-45,-46,-46,-44,-44,-46,-44,-40,-35,-37,-40,-42,-41,-43,-45,-49,-41,-35,-33,-27,-16,-18,-27,-29,-29
2019-06-01,11:37:38.744,-52,-54,-58,-61,-64,-70,-69,-66,-77,-70,-72,-86,102,499,637,169,55,31,10,-17,-34,-44,-50,-50,-49,-47,-45,-39,-33,-23,-24,-21,-14,-3,-2,12,28,34,42,53,81,88,101,129,141,150,164,157,128,86,48,19,-9,-25,-34,-35,-38,-40,-40,-39,-42,-39,-43,-35,-40,-39,-37,-39,-38,-39,-38,-36,-37,-41,-38,-37,-41,-38,-37,-37,-38,-37,-40,-43,-41,-39,-39,-33,-35,-36,-39,-41,-43,-43,-46,-45,-43,-48,-44,-41,-39,-33,-31,-28,-18,-15,-22,-27,-23,-36,-47,-44,-44,-48,-43,-49,-52,-47,-49,-58,-65,111,496,635,185,64,42,23
2019-06-01,11:37:39.769,-11,-26,-36,-42,-43,-42,-40,-34,-33,-27,-25,-19,-12,-10,-4,2,14,20,30,42,52,66,85,95,110,131,150,158,154,126,88,49,20,-3,-16,-23,-32,-40,-35,-30,-33,-31,-28,-27,-30,-26,-28,-32,-29,-32,-31,-28,-32,-31,-25,-26,-34,-36,-37,-39,-34,-35,-33,-31,-32,-31,-32,-31,-32,-35,-38,-40,-43,-37,-37,-40,-33,-35,-40,-37,-36,-33,-32,-34,-33,-34,-33,-29,-24,-23,-15,-16,-15,-17,-21,-27,-33,-38,-42,-42,-45,-46,-48,-48,-51,-54,-47,150,522,601,118,30,23,17,-2,-17,-22,-26,-28,-16,-13,-10,-5,-1,1,5,11,16
2019-06-01,11:37:40.795,3,6,14,23,31,41,56,75,92,104,116,132,142,149,144,126,92,54,19,-2,-16,-26,-31,-37,-42,-37,-31,-34,-34,-32,-33,-32,-32,-34,-33,-37,-36,-33,-38,-42,-41,-38,-37,-37,-34,-36,-36,-38,-37,-40,-42,-42,-40,-35,-36,-41,-41,-40,-40,-42,-41,-39,-42,-44,-41,-43,-46,-42,-41,-41,-42,-43,-42,-40,-37,-36,-22,-17,-23,-30,-34,-41,-52,-54,-54,-50,-49,-51,-50,-45,-46,-53,-68,85,475,668,249,77,52,27,-7,-21,-26,-28,-25,-23,-19,-18,-19,-21,-17,-19,-3,5,6,7,15,25,31,42,62,78,96,110,127,146,162,174
2019-06-01,11:37:41.821,166,142,104,59,23,-1,-17,-25,-36,-38,-35,-39,-41,-39,-41,-38,-41,-39,-40,-41,-42,-38,-41,-40,-40,-37,-38,-40,-40,-44,-47,-51,-50,-46,-49,-46,-52,-53,-51,-55,-54,-53,-51,-52,-50,-55,-53,-55,-53,-49,-46,-47,-46,-47,-45,-46,-50,-45,-41,-43,-42,-30,-27,-33,-39,-35,-43,-56,-57,-56,-57,-56,-54,-57,-54,-55,-61,-64,81,442,614,188,17,18,12,-10,-25,-31,-37,-38,-35,-28,-25,-22,-21,-12,-7,-4,0,6,13,22,32,41,53,68,82,103,114,131,147,163,174,168,145,104,67,32,6,-9,-22,-27,-31,-32,-30,-36,-33,-30
2019-06-01,11:37:42.846,-13,-14,-15,-21,-20,-12,-13,-15,-18,-14,-12,-10,-11,-14,-15,-14,-13,-17,-20,-23,-24,-26,-25,-27,-25,-31,-36,-33,-30,-29,-31,-27,-31,-35,-29,-32,-31,-32,-35,-36,-31,-33,-34,-32,-31,-28,-24,-12,-6,-10,-16,-14,-28,-36,-38,-40,-43,-43,-41,-43,-43,-43,-51,-46,179,537,569,111,45,33,12,-11,-21,-21,-21,-23,-22,-21,-21,-17,-16,-13,-9,-3,4,9,19,23,29,37,53,67,78,93,106,118,141,155,163,157,130,94,53,20,-3,-22,-30,-36,-39,-34,-36,-39,-42,-44,-40,-38,-36,-33,-34,-33,-34,-32,-36,-39,-37,-36,-39,-41
2019-06-01,11:37:43.872,-37,-42,-40,-37,-39,-37,-39,-39,-42,-50,-46,-39,-36,-39,-42,-40,-39,-43,-47,-41,-39,-44,-45,-45,-47,-47,-43,-40,-42,-40,-39,-37,-38,-39,-34,-21,-12,-23,-30,-32,-40,-47,-47,-48,-46,-45,-48,-54,-51,-49,-55,-69,94,472,644,223,68,47,24,-2,-19,-28,-33,-33,-32,-30,-28,-22,-24,-20,-15,-12,-7,-3,-3,6,19,26,33,45,61,74,85,100,112,132,155,162,143,114,74,38,10,-10,-23,-28,-35,-35,-30,-22,-25,-27,-30,-33,-35,-38,-35,-29,-32,-30,-31,-32,-37,-42,-39,-36,-34,-40,-45,-48,-45,-45,-46,-43,-41,-49,-47,-47
2019-06-01,11:37:44.898,-47,-47,-49,-51,-53,-54,-51,-49,-55,-54,-52,-53,-53,-57,-48,-42,-44,-45,-47,-29,-24,-32,-39,-39,-51,-55,-56,-59,-57,-58,-58,-56,-57,-60,-62,-51,169,518,520,50,3,1,-3,-17,-29,-34,-36,-38,-35,-30,-24,-23,-22,-19,-11,-6,3,9,15,23,31,40,52,66,79,94,111,125,139,152,162,152,122,85,44,17,-1,-13,-30,-36,-41,-44,-42,-43,-41,-34,-33,-30,-30,-31,-33,-32,-27,-31,-34,-32,-32,-35,-36,-38,-40,-44,-39,-42,-41,-43,-47,-49,-45,-47,-48,-46,-47,-45,-47,-45,-48,-40,-39,-43,-47,-47,-46,-53,-55,-53,-48,-41
2019-06-01,11:37:45.923,-35,-33,-28,-21,-17,-21,-28,-31,-39,-51,-51,-47,-47,-49,-53,-49,-49,-51,-57,-38,236,597,532,98,66,42,18,-7,-22,-27,-28,-26,-25,-24,-16,-11,-6,-2,-3,-4,6,17,24,32,37,47,63,78,94,113,123,143,165,182,185,178,151,106,67,31,3,-8,-16,-18,-18,-19,-25,-24,-28,-26,-23,-26,-24,-24,-30,-32,-34,-35,-43,-40,-33,-34,-41,-39,-40,-43,-45,-47,-45,-48,-47,-41,-41,-43,-41,-42,-41,-40,-43,-42,-42,-41,-42,-44,-45,-44,-44,-44,-42,-45,-47,-48,-45,-43,-37,-30,-20,-17,-20,-23,-27,-37,-44,-44,-47,-46,-48,-41
2019-06-01,11:37:46.949,-44,-47,-48,-53,-37,194,535,511,50,20,17,9,-8,-22,-21,-27,-26,-21,-23,-23,-15,-7,-1,0,6,14,22,31,39,47,50,62,79,94,106,126,136,146,163,170,162,138,98,55,23,0,-11,-19,-25,-33,-36,-36,-35,-38,-36,-30,-29,-28,-28,-26,-27,-32,-31,-31,-30,-29,-26,-29,-31,-33,-36,-37,-36,-42,-39,-41,-44,-46,-44,-46,-44,-41,-44,-43,-42,-40,-42,-43,-42,-42,-42,-43,-42,-43,-42,-43,-40,-37,-40,-44,-45,-46,-42,-40,-37,-39,-31,-17,-16,-23,-28,-32,-42,-50,-48,-47,-51,-53,-51,-51,-52,-53,-64,-32,258,595,479,71
2019-06-01,11:37:47.975,67,46,19,-6,-16,-21,-27,-23,-22,-15,-14,-11,-8,-4,-1,5,7,18,25,30,36,47,59,70,86,100,118,136,152,169,178,170,147,108,69,35,12,-9,-19,-21,-26,-30,-29,-27,-28,-23,-27,-28,-27,-26,-29,-33,-31,-36,-33,-33,-30,-32,-33,-32,-36,-40,-37,-39,-36,-39,-38,-40,-42,-39,-35,-33,-34,-34,-35,-32,-28,-31,-30,-36,-34,-35,-35,-34,-33,-31,-33,-33,-30,-32,-33,-31,-27,-27,-18,-5,-9,-16,-19,-24,-35,-37,-36,-36,-36,-33,-32,-35,-36,-42,-51,62,407,627,244,23,30,26,5,-6,-14,-16,-20,-19,-14,-11,-6,-2
2019-06-01,11:37:49.000,-5,-3,0,6,13,22,28,36,49,63,78,94,111,127,144,159,172,182,181,160,120,76,39,5,-19,-29,-37,-39,-40,-43,-45,-42,-41,-40,-39,-43,-39,-38,-38,-39,-35,-38,-39,-42,-41,-43,-43,-44,-45,-41,-39,-39,-44,-48,-48,-53,-53,-50,-50,-52,-47,-47,-44,-44,-44,-45,-47,-48,-47,-45,-43,-43,-42,-39,-28,-20,-23,-28,-30,-38,-48,-52,-55,-50,-55,-52,-52,-53,-56,-57,-58,-21,261,574,432,10,10,7,-6,-22,-34,-38,-37,-36,-31,-28,-26,-18,-11,-5,0,4,16,20,30,37,48,60,72,90,101,120,137,156,170,183,184,171
2019-06-01,11:37:50.026,154,109,66,36,15,-1,-9,-18,-24,-18,-23,-22,-23,-25,-19,-18,-18,-19,-18,-18,-20,-21,-19,-18,-22,-21,-23,-23,-21,-22,-27,-30,-33,-32,-32,-33,-34,-37,-35,-34,-36,-37,-43,-44,-44,-43,-44,-47,-49,-50,-44,-42,-40,-42,-39,-42,-39,-41,-47,-44,-39,-35,-34,-29,-20,-22,-27,-32,-37,-44,-44,-56,-56,-58,-59,-63,-60,-59,-56,-67,9,346,631,337,20,24,13,-11,-31,-36,-43,-37,-35,-42,-33,-31,-28,-16,-12,-9,-3,-3,8,16,21,27,38,53,68,85,101,106,128,144,159,166,158,128,87,49,20,-6,-20,-31,-35,-31,-36,-42
2019-06-01,11:37:51.052,-9,-15,-14,-24,-4,-27,-20,-12,-14,-9,-10,-10,-5,-10,-22,-24,-20,-20,-28,-25,-28,-26,-35,-33,-19,-34,-39,-32,-35,-29,-27,-27,-20,-19,-18,-22,-27,-24,-29,-32,-31,-29,-30,-29,-28,-21,-21,-19,-13,-9,-9,-14,-18,-19,-43,-55,-48,-49,-47,-46,-45,-47,-46,-50,-65,108,472,622,192,39,24,9,-13,-22,-29,-35,-33,-32,-24,-25,-24,-20,-16,-18,-9,-3,11,20,40,32,38,53,68,80,98,109,123,139,154,167,161,144,113,78,36,10,-12,-28,-35,-40,-38,-43,-40,-38,-37,-35,-33,-30,-30,-33,-36,-33,-32,-34,-35,-35,-37,-36
2019-06-01,11:37:52.077,-23,-25,-25,-28,-31,-32,-32,-34,-32,-34,-32,-30,-33,-36,-39,-37,-32,-34,-37,-38,-37,-36,-34,-36,-42,-37,-30,-28,-27,-21,-9,-16,-21,-25,-30,-43,-45,-45,-46,-44,-45,-48,-50,-52,-54,-59,23,339,582,307,29,22,12,-4,-21,-27,-29,-30,-29,-27,-27,-22,-17,-17,-10,-1,2,5,12,20,26,35,39,53,64,77,92,103,116,137,149,154,146,117,80,45,14,-7,-21,-30,-33,-35,-32,-34,-37,-36,-34,-37,-37,-35,-34,-36,-35,-39,-36,-38,-34,-35,-39,-39,-38,-39,-38,-41,-45,-44,-40,-46,-45,-42,-44,-41,-44,-41,-40,-43,-45,-44
2019-06-01,11:37:53.103,-39,-37,-36,-35,-35,-32,-29,-18,-8,-14,-20,-24,-37,-49,-55,-51,-47,-48,-55,-59,-59,-58,-60,-67,18,343,577,245,15,13,10,-9,-30,-35,-34,-35,-37,-33,-31,-29,-28,-24,-12,-7,0,10,16,27,33,38,48,65,81,94,109,124,138,154,160,163,148,112,71,34,9,-10,-23,-33,-34,-33,-32,-32,-32,-35,-33,-27,-28,-31,-29,-28,-33,-42,-37,-35,-36,-36,-35,-35,-34,-39,-37,-36,-38,-39,-42,-38,-34,-34,-31,-30,-26,-17,-11,-17,-23,-27,-35,-44,-48,-51,-48,-50,-51,-54,-52,-52,-50,-51,-36,166,481,485,63,13,12,4,-12,-19
2019-06-01,11:37:54.129,-21,-24,-24,-23,-20,-15,-11,-8,-5,1,8,17,24,29,34,43,61,72,84,98,116,128,141,155,174,175,159,130,93,53,18,-3,-20,-24,-25,-25,-25,-31,-32,-28,-29,-26,-27,-28,-24,-25,-26,-31,-33,-31,-32,-31,-34,-39,-39,-42,-37,-40,-42,-45,-42,-47,-48,-49,-49,-53,-51,-56,-56,-51,-48,-48,-45,-33,-31,-35,-42,-42,-46,-56,-62,-63,-63,-61,-63,-61,-63,-66,-69,-78,-1,306,557,298,25,17,3,-16,-33,-41,-46,-48,-45,-42,-36,-33,-27,-21,-17,-9,-4,-2,1,5,0,8,20,30,40,48,67,80,99,118,136,143,134,108
2019-06-01,11:37:55.154,106,72,40,23,13,6,1,0,-4,-7,-4,-4,-4,-8,-14,-10,-10,-7,-12,-15,-16,-19,-23,-24,-27,-30,-32,-37,-37,-37,-45,-47,-41,-42,-41,-41,-39,-31,-30,-27,-16,-5,-8,-12,-16,-21,-32,-32,-33,-32,-32,-36,-35,-40,-42,-48,-61,-79,151,535,588,212,133,73,27,-13,-27,-39,-40,-41,-38,-37,-40,-39,-40,-36,-31,-25,-25,-24,-18,-15,-8,-3,1,13,25,33,43,59,73,94,105,104,88,59,30,0,-16,-27,-31,-31,-35,-41,-41,-45,-44,-42,-43,-47,-41,-40,-46,-47,-44,-44,-45,-43,-48,-48,-49,-51,-53,-55,-53,-57,-57,-60
2019-06-01,11:37:56.180,-32,-33,-32,-26,-28,-21,-5,11,7,5,4,-4,-14,-16,-14,-18,-13,-15,-17,-27,-29,-36,-60,-68,198,587,585,236,162,84,35,-8,-29,-44,-46,-57,-49,-44,-41,-41,-40,-34,-31,-27,-30,-24,-21,-20,-23,-18,-18,-13,-3,-1,7,17,37,55,66,70,59,37,4,-20,-38,-41,-38,-38,-28,-38,-34,-33,-28,-31,-30,-25,-25,-28,-28,-24,-27,-27,-33,-39,-43,-45,-44,-49,-53,-54,-52,-52,-50,-52,-48,-53,-61,-42,-18,-7,-14,-17,-21,-25,-31,-30,-29,-32,-33,-31,-29,-30,-35,-38,-74,-26,332,700,533,258,172,87,23,-12,-30,-38,-41,-40
2019-06-01,11:37:57.206,-11,-12,-6,-13,-7,-5,1,6,5,5,4,8,14,21,22,26,35,39,47,56,75,101,116,110,90,65,41,21,13,1,-4,-5,-8,-6,-4,-4,-10,-8,-8,-3,-8,-13,0,-7,-6,-4,-6,-11,-8,-11,-13,-14,-9,-9,-9,-9,-10,-14,-12,-16,-14,-13,3,12,-1,-9,-10,-15,-24,-20,-20,-24,-25,-28,-28,-26,-36,-39,-66,-14,345,708,497,230,159,92,33,-3,-23,-32,-39,-43,-45,-45,-46,-38,-37,-34,-39,-32,-30,-29,-25,-28,-29,-28,-21,-9,-4,0,16,31,50,60,70,74,55,21,11,-13,-23,-25,-34,-36,-33,-29,-28,-28
2019-06-01,11:37:58.231,22,30,26,28,24,20,13,20,14,7,7,6,3,2,-9,-8,-9,-8,-12,-15,-12,-12,-8,-10,0,11,5,-1,-9,-17,-26,-29,-28,-32,-35,-35,-36,-39,-36,-44,-43,-54,135,498,547,141,68,45,14,-22,-30,-32,-37,-39,-39,-37,-35,-34,-26,-24,-20,-16,-15,-6,0,3,14,26,38,47,64,80,91,104,120,125,129,117,92,58,22,-9,-29,-46,-51,-57,-60,-58,-55,-56,-58,-53,-53,-57,-57,-58,-55,-53,-51,-55,-54,-56,-58,-57,-54,-55,-54,-52,-48,-54,-46,-44,-32,-29,-33,-37,-42,-50,-60,-63,-61,-67,-60,-65,-69,-70,-69,-72
2019-06-01,11:37:59.257,-79,-66,146,475,477,62,11,0,-2,-23,-36,-39,-42,-39,-35,-34,-29,-24,-15,-8,-6,1,11,18,28,39,48,59,72,87,100,117,129,143,155,165,170,148,112,72,35,5,-7,-19,-27,-30,-30,-33,-36,-30,-32,-32,-29,-24,-27,-29,-27,-32,-32,-33,-31,-38,-43,-48,-53,-51,-54,-50,-55,-56,-56,-60,-61,-61,-56,-53,-50,-49,-37,-26,-23,-28,-34,-31,-39,-52,-54,-52,-53,-52,-56,-53,-52,-51,-53,-69,-50,231,577,485,136,92,44,9,-16,-32,-42,-43,-43,-45,-43,-44,-35,-33,-30,-35,-33,-22,-17,-8,-5,2,14,20,32,47,61,75
2019-06-01,11:38:00.283,67,87,108,114,107,84,41,11,-12,-33,-43,-51,-60,-61,-66,-68,-68,-67,-66,-68,-69,-70,-73,-61,-68,-65,-70,-70,-75,-73,-71,-68,-65,-67,-68,-70,-72,-73,-71,-74,-73,-72,-61,-64,-55,-50,-43,-42,-54,-55,-54,-66,-72,-66,-72,-75,-77,-79,-85,-77,-75,-74,-73,23,319,506,175,-30,-18,-8,-23,-33,-40,-41,-36,-34,-35,-36,-35,-32,-25,-17,-7,-6,-2,5,11,10,18,34,47,57,70,81,95,109,121,123,118,95,66,34,8,-16,-27,-34,-38,-43,-46,-46,-50,-47,-40,-44,-39,-38,-38,-44,-45,-41,-43,-41,-42,-40,-41,-48,-49,-50
2019-06-01,11:38:01.309,-75,-72,-70,-72,-74,-68,-64,-59,-49,-39,-48,-51,-50,-57,-65,-70,-67,-67,-66,-68,-67,-65,-64,-67,-73,-63,136,464,497,96,35,15,0,-19,-30,-35,-36,-39,-35,-33,-22,-19,-21,-12,-8,-3,1,11,16,20,29,38,50,63,71,80,95,111,126,138,143,132,100,66,36,8,-6,-20,-28,-31,-32,-33,-32,-33,-33,-31,-31,-31,-33,-31,-30,-31,-33,-35,-35,-36,-37,-39,-41,-44,-45,-42,-43,-40,-41,-43,-44,-43,-34,-33,-30,-31,-16,-17,-20,-23,-23,-37,-42,-45,-46,-46,-47,-50,-51,-53,-51,-55,-63,20,332,568,284,54,37,15,0,-16
2019-06-01,11:38:02.334,-40,-45,-46,-46,-46,-37,-34,-29,-23,-17,-16,-8,-5,1,4,11,21,26,37,52,62,74,85,104,114,121,123,107,75,40,9,-12,-28,-35,-40,-41,-40,-39,-37,-34,-37,-39,-36,-41,-42,-46,-43,-39,-41,-45,-48,-49,-48,-51,-50,-51,-54,-51,-47,-47,-48,-51,-48,-45,-43,-40,-32,-28,-22,-20,-27,-30,-38,-47,-52,-55,-57,-54,-61,-61,-66,-61,-60,-70,-66,112,445,513,128,46,20,5,-18,-29,-34,-37,-38,-34,-30,-33,-28,-20,-14,-8,-3,2,5,8,13,21,23,33,44,58,65,77,90,103,116,129,124,103,76,42,13,-2,-18,-22
2019-06-01,11:38:03.360,-46,-51,-50,-46,-42,-43,-39,-44,-43,-41,-46,-44,-48,-47,-49,-49,-52,-56,-53,-51,-51,-53,-61,-66,-65,-65,-67,-73,-66,-64,-60,-52,-49,-44,-36,-26,-31,-39,-44,-51,-59,-63,-59,-56,-58,-61,-65,-60,-61,-66,-79,-68,163,495,472,118,60,25,1,-26,-40,-45,-50,-47,-44,-42,-38,-36,-33,-31,-24,-22,-14,-11,-2,1,9,15,26,38,41,59,76,84,97,111,117,110,86,54,22,0,-12,-25,-31,-34,-38,-37,-36,-35,-36,-31,-35,-34,-31,-36,-38,-37,-39,-43,-43,-45,-47,-47,-47,-49,-52,-53,-53,-52,-49,-52,-49,-43,-42,-41,-30,-25
2019-06-01,11:38:04.386,-54,-61,-60,-66,-77,-83,-79,-86,-82,-79,-77,-75,-76,-82,-86,-80,125,453,468,92,31,4,-12,-33,-42,-48,-47,-48,-48,-46,-40,-37,-37,-34,-28,-18,-12,-5,2,9,14,27,39,46,62,69,75,87,99,110,118,108,84,56,21,0,-18,-30,-32,-37,-40,-41,-39,-43,-41,-37,-35,-35,-34,-34,-35,-42,-42,-41,-35,-39,-45,-47,-42,-45,-43,-44,-48,-45,-50,-45,-38,-36,-28,-20,-21,-32,-34,-37,-52,-58,-59,-59,-58,-55,-58,-68,-64,-63,-66,-73,30,366,574,241,55,18,-1,-22,-34,-39,-46,-47,-51,-48,-42,-38,-30,-23,-19,-15,-9,-2
2019-06-01,11:38:05.411,-33,-25,-17,-4,10,26,42,56,65,75,96,108,114,99,68,31,-5,-33,-53,-61,-68,-75,-74,-75,-75,-77,-78,-70,-74,-71,-67,-67,-66,-66,-68,-68,-69,-73,-71,-73,-71,-73,-71,-71,-70,-67,-61,-57,-47,-40,-49,-57,-59,-63,-68,-69,-71,-68,-69,-67,-66,-67,-68,-70,-73,-43,194,493,382,22,1,1,-6,-23,-34,-38,-38,-36,-38,-34,-30,-28,-21,-17,-11,-6,0,5,13,21,30,41,54,68,80,88,101,113,124,132,127,103,73,44,14,-4,-12,-23,-25,-26,-25,-27,-29,-26,-26,-23,-25,-22,-23,-26,-27,-28,-27,-30,-29,-32,-32,-30
2019-06-01,11:38:06.437,-46,-48,-49,-45,-43,-45,-45,-43,-38,-36,-31,-25,-26,-34,-44,-44,-60,-61,-58,-57,-55,-57,-58,-58,-59,-60,-63,-74,42,363,536,194,46,22,4,-16,-30,-40,-44,-45,-44,-47,-45,-43,-38,-23,-20,-16,-2,-3,-1,1,11,16,24,33,44,55,69,79,94,112,124,121,100,70,38,9,-7,-17,-22,-21,-23,-27,-33,-37,-33,-35,-33,-31,-28,-28,-26,-23,-27,-30,-28,-30,-29,-33,-37,-37,-39,-40,-40,-41,-39,-35,-30,-23,-13,-21,-28,-25,-28,-37,-45,-44,-50,-56,-51,-50,-53,-56,-59,-71,-75,147,502,502,142,77,34,9,-17,-38,-44,-46
2019-06-01,11:38:07.463,-51,-49,-46,-47,-39,-35,-33,-29,-24,-15,-10,-7,-3,2,5,15,22,32,43,49,58,66,81,88,74,48,17,-3,7,-10,-12,-11,-11,-16,-12,-12,-9,-15,-10,-11,-13,-12,-8,-13,-14,-20,-23,-31,-37,-38,-42,-44,-46,-43,-45,-47,-48,-49,-31,-13,-14,-39,-29,-22,-36,-38,-36,-38,-36,-39,-39,-40,-40,-49,-57,-90,44,438,639,287,160,88,40,-5,-29,-44,-47,-51,-54,-49,-49,-47,-44,-41,-42,-37,-30,-25,-25,-22,-18,-10,-4,0,8,19,30,41,51,67,87,88,73,52,33,8,-7,-17,-16,-24,-22,-13,-14,-23,-15,0,-3,-3
2019-06-01,11:38:08.488,-34,-36,-38,-37,-43,-43,-41,-45,-48,-48,-56,-60,-59,-63,-60,-66,-66,-67,-62,-63,-47,-50,-44,-45,-60,-71,-60,-65,-63,-60,-56,-57,-60,-56,-58,-74,-102,108,530,670,305,199,107,40,-10,-27,-43,-48,-55,-45,-53,-50,-40,-43,-44,-38,-38,-29,-26,-22,-28,-26,-11,-18,-17,-9,2,10,21,43,70,85,90,74,53,33,14,0,-8,-5,-11,-8,-12,-2,-10,-15,-10,-8,-5,-13,-18,-16,-15,-9,-21,-26,-28,-22,-27,-25,-24,-17,-12,-14,-16,-11,-8,9,6,0,-6,-9,-19,-18,-16,-13,-16,-22,-20,-23,-26,-37,-51,-78,123,521,614,268
2019-06-01,11:38:09.514,207,122,66,19,-4,-11,-21,-31,-30,-23,-19,-14,-21,-15,-20,-5,-7,0,-6,0,1,9,22,30,40,53,68,81,99,114,121,105,82,52,25,2,-15,-27,-26,-24,-26,-29,-30,-33,-26,-28,-30,-31,-33,-30,-38,-40,-43,-45,-45,-47,-51,-55,-53,-46,-45,-42,-47,-33,-21,-29,-35,-40,-49,-65,-65,-69,-74,-69,-68,-71,-76,-77,-73,-77,-80,86,409,445,57,6,-1,-14,-36,-45,-55,-58,-44,-41,-35,-37,-34,-27,-30,-24,-13,-5,1,6,18,19,27,43,61,74,86,94,106,122,123,108,96,70,37,8,-15,-30,-43,-51,-43,-40,-46,-49
2019-06-01,11:38:10.540,-55,-58,-53,-58,-58,-55,-59,-61,-57,-51,-49,-57,-60,-59,-60,-62,-64,-65,-57,-55,-48,-43,-35,-38,-40,-39,-55,-61,-66,-67,-68,-71,-71,-67,-70,-68,-61,-71,-53,104,403,462,43,-58,-36,-13,-20,-26,-29,-39,-33,-34,-28,-5,-9,-3,0,7,18,13,28,36,50,70,87,94,103,118,135,155,161,168,173,167,142,94,62,36,3,-10,-14,-22,-24,-24,-24,-28,-29,-30,-28,-25,-24,-26,-24,-20,-26,-31,-28,-21,-26,-34,-35,-32,-19,-25,-24,-18,-11,-15,-22,-29,-35,-44,-45,-48,-45,-57,-58,-59,-56,-57,-62,-56,-40,34,291,462,129,-97
2019-06-01,11:38:11.565,-110,-77,-70,-80,-77,-78,-80,-73,-68,-71,-65,-55,-55,-52,-47,-41,-31,-25,-9,-2,4,16,34,44,59,70,76,87,97,102,77,40,8,-25,-48,-63,-68,-74,-78,-80,-79,-79,-72,-71,-72,-68,-63,-59,-62,-62,-60,-61,-63,-64,-65,-66,-65,-69,-71,-74,-73,-76,-75,-78,-74,-71,-69,-63,-58,-51,-41,-38,-53,-49,-42,-59,-67,-70,-69,-70,-71,-78,-76,-79,-77,-85,-89,31,343,497,142,6,-1,-9,-29,-43,-42,-54,-50,-45,-43,-35,-29,-25,-24,-18,-4,-10,-7,-1,5,14,25,36,47,61,87,99,100,128,157,155,148,118,81,47,19,-16
2019-06-01,11:38:12.591,-55,-60,-64,-65,-70,-64,-70,-69,-75,-75,-68,-75,-74,-76,-77,-79,-81,-78,-83,-81,-78,-79,-80,-84,-86,-84,-71,-73,-72,-66,-61,-51,-57,-48,-46,-33,-20,-27,-35,-37,-51,-41,-46,-51,-54,-50,-54,-57,-59,-69,-85,-111,28,472,661,273,106,70,37,-58,-106,-121,-195,-117,-36,19,2,-6,-29,-53,35,36,115,17,-31,21,175,159,65,86,110,111,101,94,123,99,165,161,110,95,68,33,35,20,4,25,-4,-11,-17,-13,-13,-21,-22,-24,-21,-29,-36,-44,-44,-41,-42,-39,-46,-47,-39,-21,-22,-10,-7,-21,-31,-31,-36,-58,-82,-90,-94,-95
2019-06-01,11:38:13.617,-116,-114,-108,-105,-106,-106,-108,-116,-117,-138,-132,120,448,367,29,2,-6,-25,-46,-55,-58,-60,-66,-67,-68,-73,-78,-76,-75,-68,-64,-62,-51,-46,-39,-32,-17,-12,0,12,22,30,40,49,65,79,72,49,22,1,-16,-29,-31,-33,-32,-35,-34,-27,-19,-10,8,4,13,13,17,6,-1,-5,-7,-3,-5,-7,-6,-16,-19,-19,-29,-37,-34,-36,-31,-30,-20,-18,-37,-40,-49,-64,-71,-73,-75,-76,-75,-75,-73,-86,-91,-96,-94,111,468,503,51,0,8,5,-21,-30,-32,-36,-43,-34,-29,-24,-18,-18,-15,-13,-6,-4,3,11,25,31,36,42,53,64
2019-06-01,11:38:14.642,64,69,79,89,105,111,109,96,71,35,12,-3,-17,-20,-18,-23,-29,-28,-30,-29,-12,-30,-20,-30,-32,-29,-32,-39,-38,-42,-41,-38,-36,-39,-41,-35,-36,-32,-21,-5,-5,-16,-21,-29,-44,-54,-40,-45,-55,-52,-52,-54,-51,-58,-74,-75,127,493,576,154,80,57,32,1,-22,-28,-30,-32,-35,-31,-32,-28,-16,-8,-6,0,3,13,22,30,32,38,42,44,44,45,40,40,41,58,70,73,62,29,4,-15,-21,-32,-39,-44,-48,-54,-53,-52,-52,-52,-52,-50,-50,-47,-41,-39,-38,-38,-38,-41,-40,-41,-46,-47,-44,-39,-39,-32,-19,-29,-42,-45
2019-06-01,11:38:15.668,-80,-86,-82,-81,-83,-90,-91,-87,-81,-79,-90,-124,-35,353,710,416,131,82,43,0,-22,-41,-46,-49,-57,-60,-60,-58,-51,-45,-36,-30,-23,-18,-7,-6,-1,-1,-3,3,9,10,13,17,29,42,65,84,80,60,35,9,-8,-19,-24,-26,-29,-30,-30,-33,-33,-34,-41,-46,-49,-47,-46,-52,-54,-55,-51,-45,-39,-35,-35,-32,-28,-29,-9,-2,-2,-7,-6,-16,-27,-21,-23,-21,-23,-15,-24,-25,-25,-44,-93,-13,416,767,438,164,109,70,18,-4,-18,-34,-44,-44,-52,-58,-59,-76,-48,-18,-21,-23,-29,-35,-41,-34,-34,-57,-54,-55,-2,-5,-1,19
2019-06-01,11:38:16.694,-88,-66,-44,-43,-73,-99,-105,-93,-100,-132,-117,-107,-138,-147,-104,-108,-112,-107,-94,-110,-104,-111,-170,-100,-76,-85,-79,-81,-90,-135,-91,-99,-80,-84,-111,-50,-81,-137,-110,-88,-130,-145,-108,-108,-83,-79,-160,-36,413,755,365,120,103,44,-6,-34,-54,-69,-57,-67,-74,-61,-64,-38,-45,-42,-28,-26,-17,-7,-5,-8,-2,5,20,35,40,53,65,73,79,97,96,71,44,9,-28,-50,-62,-73,-77,-78,-77,-75,-74,-77,-78,-76,-73,-68,-65,-67,-68,-71,-78,-79,-75,-72,-63,-61,-61,-57,-60,-64,-64,-65,-64,-68,-67,-67,-67,-62,-62,-67,2,284,543,277
2019-06-01,11:38:17.719,-104,-85,-73,-87,-101,-106,-100,-106,-104,-97,-95,-87,-78,-70,-63,-54,-44,-37,-31,-25,-14,-8,-1,7,14,19,29,35,44,57,71,70,55,22,-3,-32,-46,-54,-58,-63,-58,-58,-56,-57,-54,-52,-50,-42,-37,-41,-42,-45,-42,-35,-38,-33,-25,-20,-26,-30,-37,-48,-56,-60,-61,-62,-65,-65,-66,-61,-65,-68,-76,-23,276,587,374,42,39,27,1,-17,-26,-31,-34,-35,-31,-25,-23,-20,-18,-9,-1,0,-2,0,3,5,8,9,10,11,7,9,12,20,37,61,80,78,58,38,15,-3,-16,-26,-30,-30,-28,-27,-30,-30,-35,-37,-36,-38,-40,-36
2019-06-01,11:38:18.745,-80,-76,-75,-69,-58,-51,-57,-61,-63,-80,-84,-89,-87,-84,-93,-93,-92,-94,-95,-103,-135,-93,221,557,397,118,76,28,-13,-51,-67,-73,-73,-75,-71,-67,-62,-64,-57,-56,-52,-50,-46,-46,-52,-48,-46,-46,-46,-46,-43,-38,-33,-24,-2,24,48,45,27,12,-10,-21,-25,-37,-41,-42,-46,-46,-47,-39,-41,-43,-41,-42,-40,-35,-35,-31,-18,-16,-16,-15,-23,-39,-48,-55,-55,-54,-55,-63,-65,-64,-68,-78,-109,-69,271,604,413,165,111,48,-3,-26,-39,-46,-44,-56,-74,-51,-35,-31,-32,-30,-24,-16,-16,-19,-13,-17,-16,-14,-10,-4,8,14,21,31
2019-06-01,11:38:19.771,59,78,92,85,66,42,23,9,-5,-17,-20,-24,-33,-34,-35,-33,-33,-31,-34,-24,-24,-24,-27,-19,-10,-11,-11,-18,-30,-36,-28,-31,-41,-38,-35,-36,-35,-36,-37,-50,3,271,525,276,46,51,45,25,10,0,-1,-1,1,6,5,9,10,12,20,27,29,36,37,36,40,45,48,49,50,53,56,66,76,86,106,111,102,84,65,46,32,26,16,13,16,14,12,15,10,11,15,15,15,14,16,25,33,33,26,17,7,-1,-6,-5,-4,-8,-13,-12,-14,-12,-29,-53,15,305,542,294,113,88,56,19,4,0,0,0,-4,-3,-4,0
2019-06-01,11:38:20.796,30,32,36,41,39,41,42,46,44,47,49,55,58,63,65,71,82,100,116,118,103,79,53,33,19,10,8,3,0,-1,-6,-7,-7,-8,-4,-4,-1,2,14,14,11,1,-1,-17,-26,-29,-34,-36,-39,-40,-44,-43,-47,-63,-65,86,387,470,81,24,29,13,-9,-25,-26,-33,-32,-28,-28,-25,-25,-17,-14,-9,-5,-6,-2,-3,1,4,4,2,1,3,6,8,13,27,51,60,57,40,25,6,-11,-24,-28,-31,-32,-38,-39,-40,-46,-47,-45,-43,-41,-36,-34,-16,-14,-14,-21,-33,-50,-57,-60,-62,-65,-73,-78,-70,-72,-81,-103,-78,168,462
2019-06-01,11:38:21.822,335,46,33,17,-9,-31,-36,-41,-43,-47,-44,-41,-42,-40,-31,-30,-28,-21,-22,-22,-23,-19,-18,-18,-21,-19,-17,-14,-10,-1,17,42,48,43,27,7,-7,-18,-29,-32,-37,-42,-39,-39,-44,-42,-48,-45,-40,-41,-45,-30,-16,-17,-23,-30,-44,-54,-57,-54,-52,-57,-59,-57,-62,-65,-84,-106,64,383,485,136,74,43,9,-22,-37,-44,-51,-48,-46,-46,-43,-39,-36,-34,-29,-23,-23,-18,-17,-18,-20,-22,-18,-15,-19,-20,-17,-10,8,29,46,44,31,17,-1,-12,-19,-25,-25,-27,-26,-26,-30,-29,-27,-21,-20,-23,-24,-18,-5,-2,-5,-12,-23,-36
2019-06-01,11:38:22.848,-37,-34,-33,-32,-31,-35,-37,-44,-71,-99,80,407,497,193,129,76,34,10,-7,-12,-15,-19,-20,-17,-19,-16,-7,-6,0,8,-3,-3,-1,0,5,6,2,-4,-5,-1,0,13,26,43,60,60,49,30,16,7,0,-5,-4,-9,-14,-6,-7,-9,-4,-6,-3,-1,4,17,23,18,9,-1,-15,-23,-19,-22,-25,-28,-32,-32,-39,-54,-92,-25,264,478,245,135,82,42,8,-15,-24,-37,-37,-34,-36,-32,-29,-30,-25,-19,-16,-17,-11,-9,-10,-9,-7,-5,-4,-2,0,1,12,32,51,57,62,56,38,19,6,-4,-6,-16,-16,-18,-18,-17,-17,-13
2019-06-01,11:38:23.873,-4,-3,-8,-2,11,10,3,1,-6,-21,-30,-29,-27,-35,-37,-38,-42,-42,-53,-71,12,302,486,162,27,32,24,1,-16,-23,-29,-27,-25,-22,-17,-18,-15,-7,-4,3,5,10,16,18,21,29,35,40,44,46,54,60,69,77,72,58,43,23,1,-12,-18,-30,-31,-32,-36,-35,-44,-40,-30,-26,-28,-34,-23,-16,-17,-23,-28,-35,-50,-61,-62,-65,-71,-70,-69,-69,-73,-81,-66,99,378,342,-58,-64,-31,-29,-41,-47,-47,-46,-43,-33,-24,-34,-31,-20,-16,-12,-4,5,8,14,21,31,32,40,42,46,48,55,56,64,69,64,46,25,3,-12
2019-06-01,11:38:24.899,-4,-10,-9,-14,-13,-14,-15,-14,-14,-16,-10,-4,-6,-5,1,12,3,-4,-12,-22,-35,-37,-46,-46,-48,-54,-55,-61,-72,-88,-73,162,471,367,27,7,3,-23,-41,-45,-50,-47,-41,-35,-28,-25,-19,-7,-6,-3,5,11,12,18,24,30,38,49,56,67,74,89,93,103,99,84,61,36,11,-4,-19,-26,-30,-36,-38,-37,-41,-44,-41,-41,-37,-40,-38,-35,-35,-35,-30,-16,-14,-19,-22,-27,-44,-42,-48,-52,-51,-50,-51,-56,-61,-73,-75,40,357,534,139,-7,4,5,-10,-26,-31,-38,-44,-43,-38,-32,-34,-30,-33,-26,-18,-11,-8,-4,6,17
2019-06-01,11:38:25.925,50,53,58,65,71,75,77,91,102,93,83,63,47,21,4,-8,-16,-21,-24,-26,-24,-19,-18,-28,-24,-27,-28,-36,-31,-27,-24,-21,-18,-21,-25,-24,-13,-14,-20,-19,-34,-42,-49,-53,-56,-58,-58,-55,-55,-61,-77,-66,137,451,387,15,-13,-11,-15,-33,-42,-44,-47,-50,-43,-42,-34,-28,-27,-24,-19,-18,-14,-8,0,9,10,24,37,39,46,63,68,78,88,93,86,70,45,24,0,-19,-28,-29,-25,-33,-45,-43,-37,-35,-32,-38,-42,-37,-35,-31,-38,-41,-32,-29,-31,-31,-20,-18,-26,-28,-40,-52,-59,-56,-63,-64,-62,-60,-63,-69,-78,-64
2019-06-01,11:38:26.950,141,466,504,80,10,18,15,0,-8,-13,-16,-18,-14,-9,-8,2,9,17,22,26,31,35,44,52,52,62,67,74,78,79,86,88,93,93,94,77,55,33,18,4,-7,-12,-13,-17,-19,-23,-21,-19,-19,-23,-10,-18,-26,-24,-31,-36,-40,-43,-42,-42,-46,-41,-48,-53,-52,-48,-39,-40,-45,-41,-34,-23,-23,-31,-33,-32,-40,-46,-45,-49,-50,-45,-49,-55,-54,-59,-20,226,515,383,-3,-17,-1,-10,-25,-26,-35,-34,-30,-27,-21,-15,-12,-5,-1,10,12,12,10,16,23,28,35,42,48,50,50,56,55,64,76,73,74,62,39,22,0,-16
2019-06-01,11:38:27.976,10,14,6,-1,-2,-1,-5,-7,-9,-7,-5,-4,-9,-12,-16,-12,-8,-4,-10,-10,1,-4,-3,-7,-14,-16,-14,-11,-17,-18,-18,-20,-13,-15,-11,-2,7,2,-8,-13,-12,-20,-19,-27,-24,-21,-16,-23,-31,-38,-41,69,391,598,256,52,37,30,16,0,-4,-5,-9,-9,-11,-12,-13,-12,-8,3,-3,0,9,16,24,29,42,53,66,76,88,99,97,100,99,112,109,95,75,50,27,20,1,-18,-20,-20,-23,-21,-13,-33,-26,-11,-31,-28,-31,-27,-26,-19,-25,-28,-31,-24,-22,-26,-21,-36,-30,-25,-19,-25,-24,-27,-26,-15,-31,-34,-26,-26
2019-06-01,11:38:29.002,-30,-24,-20,-16,-19,-11,-19,-9,4,3,-6,-18,-13,-25,-29,-24,-25,-32,-38,-38,-44,-54,-51,142,484,528,86,14,26,24,7,1,-5,-2,5,0,0,0,2,1,-2,0,5,9,21,19,23,32,41,40,47,59,64,67,75,81,83,96,102,80,60,46,27,14,-2,-12,-18,-11,-14,-14,-15,-12,-18,-10,-15,-8,-11,-17,-15,-16,-18,-20,-17,-22,-24,-28,-32,-30,-29,-31,-40,-35,-37,-46,-44,-49,-60,-60,-62,-61,-66,-63,-55,-49,-42,-26,-26,-27,-13,0,-6,-11,-18,-28,-42,-48,-50,-49,-46,-45,-52,-59,-67,-72,36,367,582,219
2019-06-01,11:38:30.027,51,24,26,5,-16,-9,-23,-30,-20,-20,-16,-8,-2,-6,2,4,9,17,15,19,31,39,47,46,49,58,69,66,66,75,77,74,73,64,39,28,18,3,-6,-12,-15,-14,-16,-9,-8,-10,-11,-15,-20,-25,-30,-33,-35,-39,-40,-38,-35,-36,-32,-29,-28,-19,-19,-27,-25,-28,-21,-43,-49,-43,-47,-51,-42,-35,-40,-52,-51,-46,-35,-36,-36,-26,-24,-30,-20,-12,-1,-3,-12,-16,-27,-36,-42,-40,-45,-44,-34,-35,-43,-58,-84,68,444,632,274,123,74,42,5,-16,-15,-23,-28,-27,-21,-15,-6,-10,-12,-4,0,-2,-4,-3,2,0,7,6
2019-06-01,11:38:31.053,1,-4,3,-2,-5,1,3,10,16,27,39,30,27,21,16,14,14,10,5,7,8,2,-9,-9,-6,-9,-11,-16,-19,-16,-13,-25,-23,-24,-30,-34,-35,-37,-43,-42,-34,-31,-32,-31,-27,-27,-27,-27,-30,-31,-21,-27,-27,-28,-25,-26,-33,-30,-26,-24,-25,-23,-22,-15,-4,-6,-14,-15,-16,-29,-30,-29,-29,-37,-36,-41,-44,-66,-86,107,468,553,185,79,45,4,-24,-34,-38,-38,-34,-33,-29,-22,-23,-25,-17,-17,-10,-8,-11,-13,-11,-6,-3,-3,-5,-1,1,0,1,3,1,13,30,38,39,38,23,16,4,0,-6,-7,-11,-9,-6,-6
2019-06-01,11:38:32.079,0,2,11,8,12,10,3,5,-2,4,-3,-10,-11,-2,-7,-16,-14,-18,-19,-17,-20,-18,-22,-26,-23,-25,-27,-32,-37,-39,-39,-32,-29,-27,-30,-31,-35,-46,-47,-37,-31,-37,-30,-7,0,6,7,2,-2,-7,-10,-12,-29,-64,0,359,656,385,158,111,60,6,-24,-29,-28,-33,-33,-30,-27,-25,-30,-28,-18,-17,-14,-13,-4,0,5,14,19,26,32,41,45,50,57,63,68,69,74,69,54,36,9,-8,-15,-22,-28,-25,-27,-29,-29,-27,-32,-36,-40,-37,-40,-41,-44,-44,-45,-46,-45,-44,-44,-43,-37,-34,-34,-36,-40,-37,-30,-27,-23,-23
2019-06-01,11:38:33.104,-23,-11,-13,-17,-23,-27,-34,-36,-41,-43,-45,-46,-45,-46,-52,-56,48,371,576,139,-51,-10,5,-4,-9,-16,-21,-11,-6,-2,-4,5,9,22,28,32,36,46,58,56,63,80,91,102,111,121,135,142,147,152,151,150,128,96,64,35,13,-2,-12,-18,-20,-21,-26,-26,-20,-18,-20,-19,-20,-10,-13,-19,-21,-30,-34,-34,-40,-47,-49,-49,-49,-53,-40,-42,-35,-37,-39,-49,-57,-70,-90,-95,-95,-103,-101,-101,-103,-107,-112,-77,74,301,330,-157,-233,-129,-82,-86,-61,-72,-66,-58,-56,-47,-36,-30,-25,-24,-19,-9,6,9,5,18,34,34,47,58
2019-06-01,11:38:34.130,-3,7,12,16,17,20,17,4,-17,-35,-64,-90,-107,-118,-112,-111,-113,-113,-108,-103,-101,-99,-99,-96,-95,-100,-102,-103,-107,-107,-111,-112,-114,-118,-110,-102,-95,-92,-82,-72,-71,-77,-83,-91,-100,-107,-106,-103,-100,-102,-104,-111,-108,-98,-17,237,465,196,-171,-120,-63,-39,-39,-41,-41,-32,-24,-24,-13,-7,-4,-4,3,9,14,16,20,22,26,36,42,48,56,63,75,88,97,112,121,136,125,104,70,43,17,-2,-13,-12,-24,-25,-19,-23,-15,-15,-12,-12,-8,-10,-19,-21,-26,-31,-30,-29,-29,-29,-30,-33,-32,-36,-36,-35,-31,-30,-29,-32,-30,-15
2019-06-01,11:38:35.156,-82,-84,-86,-85,-92,-101,-104,-104,-105,-106,-104,-108,-109,-109,-81,94,406,437,-31,-99,-60,-51,-60,-68,-72,-75,-68,-69,-67,-67,-63,-55,-49,-38,-34,-28,-17,-11,8,25,36,46,56,66,73,76,77,78,83,84,83,77,62,36,12,-2,-16,-23,-27,-26,-27,-29,-26,-27,-30,-34,-30,-31,-33,-34,-36,-36,-39,-42,-43,-43,-48,-50,-51,-47,-46,-47,-43,-40,-42,-43,-42,-39,-42,-38,-32,-26,-27,-19,-8,-16,-21,-25,-23,-41,-43,-42,-45,-47,-52,-53,-58,-65,-54,128,457,514,59,-23,-9,-15,-29,-31,-32,-29,-20,-13,-9,-13,-11,-6,-2,4
2019-06-01,11:38:36.182,-3,-2,4,15,22,24,35,41,48,44,53,55,60,60,69,76,80,72,59,36,13,-3,-15,-20,-27,-29,-29,-27,-25,-28,-34,-32,-26,-25,-27,-27,-29,-33,-37,-35,-35,-36,-31,-28,-33,-39,-39,-36,-40,-42,-43,-39,-44,-46,-49,-49,-49,-52,-51,-52,-52,-41,-37,-39,-47,-46,-44,-50,-48,-42,-36,-40,-46,-51,-49,-58,-56,96,414,524,86,-18,-4,-2,-13,-27,-31,-28,-28,-26,-23,-14,-9,-7,-2,2,7,11,17,23,23,28,32,35,38,42,44,47,49,51,54,66,79,82,74,56,35,20,8,0,-2,-3,-6,-6,-7,-5,-10,-14
2019-06-01,11:38:37.207,4,1,-3,-9,-14,-11,-15,-19,-23,-20,-23,-26,-23,-21,-21,-12,-5,-1,-5,-8,-9,-14,-9,-11,-13,-15,-2,7,-1,-6,-9,-20,-28,-31,-32,-35,-40,-42,-40,-43,-54,-60,55,378,576,194,22,29,22,-3,-17,-25,-26,-28,-24,-14,-13,-13,-11,-5,2,6,12,18,24,34,34,39,46,49,50,53,49,45,47,42,42,46,40,24,9,-7,-25,-31,-42,-45,-48,-45,-44,-42,-37,-26,-23,-23,-20,-22,-25,-30,-41,-47,-47,-50,-58,-56,-54,-55,-50,-48,-42,-39,-37,-26,-13,-28,-33,-37,-44,-60,-61,-56,-59,-61,-65,-64,-59,-66,-72,-2
2019-06-01,11:38:38.233,322,568,268,-17,5,19,8,-7,-11,-6,-8,-3,-2,-1,3,12,22,30,32,33,44,55,61,69,74,77,82,91,99,101,101,101,101,103,100,83,62,39,17,1,-10,-12,-14,-17,-15,-20,-22,-24,-26,-25,-28,-26,-25,-26,-34,-40,-35,-32,-36,-39,-39,-34,-31,-23,-11,-7,-19,-24,-25,-36,-50,-51,-51,-48,-53,-56,-58,-59,-57,-48,73,365,534,126,-101,-44,-12,-17,-25,-30,-27,-25,-23,-17,-11,-5,-3,0,7,12,18,22,30,32,37,44,46,57,64,66,68,68,72,80,86,83,75,51,35,17,0,-10,-17,-23,-30,-31,-35,-36
2019-06-01,11:38:39.259,-17,-13,-12,-5,-7,-6,-9,-11,-11,-13,-15,-15,-19,-19,-22,-24,-24,-18,-12,-7,7,12,0,-5,-8,-27,-32,-33,-33,-34,-34,-31,-30,-32,-34,-24,121,447,593,149,15,35,33,13,-2,-7,-10,-14,-14,-9,-7,-7,-5,-3,-4,-5,0,1,2,9,15,21,25,32,38,44,52,64,67,76,89,90,82,69,40,25,11,1,-6,-12,-11,-13,-15,-14,-14,-16,-23,-25,-22,-25,-26,-31,-30,-32,-30,-31,-31,-29,-31,-36,-35,-37,-38,-37,-36,-26,-24,-20,-7,-5,-17,-24,-25,-39,-49,-50,-44,-41,-47,-54,-53,-59,-65,-71,37,358,570,206
2019-06-01,11:38:40.284,39,41,19,-12,-28,-36,-41,-41,-41,-38,-36,-31,-23,-11,-4,6,12,23,28,35,39,37,42,45,50,52,48,53,57,68,77,79,75,63,42,18,1,-10,-14,-18,-22,-24,-19,-17,-17,-19,-16,-16,-22,-29,-25,-27,-32,-29,-31,-32,-28,-30,-27,-25,-16,-13,-14,-2,3,-6,-17,-17,-29,-35,-35,-34,-34,-32,-38,-40,-39,-43,-40,12,256,533,331,-96,-67,-21,-14,-23,-21,-16,-9,-1,12,17,23,26,33,42,50,56,61,69,79,91,99,107,115,124,130,134,139,139,138,138,131,119,94,63,40,23,13,5,0,0,-3,-2,2,2
2019-06-01,11:38:41.310,-56,-62,-55,-58,-58,-61,-60,-62,-64,-64,-65,-60,-62,-63,-60,-53,-51,-37,-27,-37,-46,-46,-54,-67,-75,-76,-75,-75,-79,-81,-81,-85,-86,-79,62,389,535,84,-66,-30,-21,-36,-43,-41,-36,-33,-28,-26,-19,-18,-16,-9,-11,-4,4,17,22,29,35,42,52,59,65,72,73,76,77,80,86,80,69,48,24,0,-14,-19,-26,-31,-25,-30,-33,-29,-29,-33,-30,-27,-27,-26,-16,-23,-30,-27,-27,-24,-24,-25,-27,-21,-24,-27,-32,-34,-32,-27,-36,-32,-31,-28,-27,-12,-20,-34,-31,-35,-50,-58,-63,-66,-63,-62,-55,-48,-46,-46,-50,55,352,541
2019-06-01,11:38:42.336,171,-20,-5,0,-10,-16,-31,-42,-38,-32,-27,-13,-15,-13,2,5,18,16,7,17,27,31,35,38,43,48,54,51,50,55,58,64,65,65,58,40,29,10,-2,-7,-10,-10,-12,-12,-13,-9,-8,-8,-5,-8,-12,-10,-9,-13,-16,-17,-25,-29,-37,-39,-42,-48,-50,-51,-53,-55,-57,-66,-70,-76,-68,-55,-47,-41,-27,-8,5,-7,-11,-16,-25,-44,-47,-53,-54,-62,-69,-73,-76,-75,-78,-2,302,582,330,35,37,25,0,-20,-28,-26,-29,-35,-34,-26,-20,-16,-9,-6,-4,1,2,12,15,20,30,31,40,45,50,56,59,63,70,79,86,78
2019-06-01,11:38:43.361,91,70,51,37,21,13,8,0,-5,-8,-14,-17,-15,-18,-23,-25,-31,-31,-25,-24,-22,-19,-23,-20,-13,-8,-14,-12,-15,-21,-28,-35,-30,-31,-30,-24,-20,-21,-11,-6,-4,-6,-13,-23,-34,-36,-41,-38,-38,-40,-42,-47,-54,-58,38,345,568,215,-5,10,13,-1,-16,-25,-25,-25,-23,-20,-13,-5,-4,3,12,15,24,26,35,44,44,45,49,50,45,43,39,37,35,30,31,33,26,16,3,-8,-18,-23,-22,-14,-7,-4,1,0,-8,-11,-15,-22,-28,-32,-41,-52,-49,-51,-54,-41,-36,-25,-25,-23,-26,-37,-43,-42,-40,-40,-43,-34,-29,-25
2019-06-01,11:38:44.387,6,17,10,5,0,-4,-17,-24,-24,-23,-21,-21,-22,-24,-29,-39,-14,215,536,498,87,61,58,32,11,-1,-5,-16,-18,-18,-29,-29,-17,-13,-10,-7,0,5,19,21,30,44,48,52,57,51,56,58,65,65,64,68,67,54,36,14,1,-18,-20,-21,-24,-29,-24,-28,-27,-28,-21,-23,-21,-22,-23,-25,-27,-26,-31,-28,-32,-31,-37,-35,-41,-42,-41,-42,-41,-42,-37,-33,-33,-18,-10,-16,-24,-26,-31,-42,-45,-43,-48,-52,-57,-60,-65,-70,-83,-73,136,470,486,60,9,5,-9,-25,-28,-33,-37,-32,-22,-18,-20,-25,-27,-24,-18,-20,-19,-9
2019-06-01,11:38:45.413,21,32,36,46,57,58,61,77,76,87,88,94,95,92,76,58,32,14,-2,-11,-18,-24,-21,-22,-25,-26,-23,-22,-19,-13,-18,-20,-27,-24,-19,-22,-25,-27,-30,-32,-39,-41,-37,-40,-48,-48,-40,-37,-26,-16,-24,-36,-34,-36,-52,-60,-59,-53,-54,-50,-44,-39,-45,-50,-48,70,368,524,118,-52,-15,-3,-13,-22,-24,-30,-29,-24,-19,-22,-22,-16,-4,2,7,14,23,30,37,43,52,50,53,60,61,65,64,69,79,80,74,61,41,19,0,-18,-29,-32,-31,-32,-29,-33,-29,-26,-25,-30,-27,-26,-29,-37,-41,-40,-46,-55,-57,-55,-55,-55
2019-06-01,11:38:46.438,-42,-23,-27,-24,-26,-22,-14,0,-1,13,14,0,-3,-14,-35,-43,-36,-30,-33,-35,-30,-33,-29,-31,-34,96,409,567,174,23,32,27,7,-11,-13,-9,-15,-14,-10,-7,-2,3,8,14,18,21,24,28,35,40,41,48,59,57,54,60,62,61,68,76,71,50,29,6,-11,-26,-37,-45,-48,-41,-26,-26,-24,-33,-23,-21,-27,-23,-31,-34,-32,-38,-41,-53,-57,-42,-37,-45,-41,-49,-51,-43,-46,-43,-39,-36,-29,-20,-26,-33,-31,-42,-59,-62,-57,-65,-68,-66,-60,-59,-67,-71,-33,202,505,417,-7,-10,8,0,-13,-18,-23,-24,-22,-12,-7,-1
2019-06-01,11:38:47.464,9,11,15,21,22,23,27,36,33,36,38,47,48,52,57,49,57,69,73,81,78,63,43,23,0,0,-7,-15,-11,-22,-24,-30,-35,-33,-26,-31,-29,-28,-22,-20,-21,-30,-35,-41,-37,-35,-37,-43,-38,-36,-44,-34,-35,-29,-20,-10,-19,-31,-33,-41,-49,-50,-49,-50,-50,-51,-48,-50,-50,-61,-42,184,507,489,71,41,32,7,-20,-30,-34,-40,-39,-46,-42,-42,-36,-34,-35,-26,-17,-6,1,16,28,36,41,55,58,59,61,54,55,57,67,71,65,51,24,0,-10,-13,-19,-27,-28,-26,-29,-23,-22,-27,-26,-31,-34,-37,-35,-36,-31,-36
2019-06-01,11:38:48.490,-28,-32,-31,-28,-29,-27,-25,-29,-27,-27,-25,-25,-18,-8,-10,-17,-18,-23,-35,-42,-44,-45,-49,-52,-55,-58,-64,-76,-81,54,386,549,151,9,8,-2,-26,-40,-38,-34,-27,-21,-22,-25,-23,-21,-17,-17,-14,-9,-4,4,13,21,32,44,52,52,56,63,68,75,78,84,75,61,39,15,-1,-14,-24,-34,-37,-36,-35,-34,-30,-25,-25,-33,-27,-27,-31,-31,-29,-28,-33,-37,-35,-32,-31,-31,-36,-32,-27,-23,-16,-8,-19,-30,-38,-46,-60,-63,-69,-66,-74,-71,-74,-66,-69,-73,-71,75,400,530,131,9,21,8,-18,-33,-41,-43,-40,-37,-30,-32
2019-06-01,11:38:49.515,-12,-3,-4,3,7,11,16,26,32,35,41,42,51,51,45,49,44,53,66,65,61,41,26,10,-3,-7,-13,-14,-16,-13,-16,-15,-16,-15,-15,-17,-16,-11,-13,-19,-17,-21,-22,-26,-33,-32,-35,-36,-41,-43,-49,-49,-47,-46,-45,-31,-41,-50,-44,-54,-59,-64,-47,-36,-30,-34,-41,-44,-53,-61,-68,41,349,527,140,-12,-4,-8,-27,-36,-36,-29,-33,-38,-33,-23,-23,-20,-11,-6,3,4,5,18,30,39,45,55,64,63,71,77,80,84,88,96,94,80,56,30,12,-3,-13,-15,-22,-21,-19,-19,-21,-20,-24,-24,-25,-28,-36,-40,-37,-44
2019-06-01,11:38:50.541,-38,-43,-44,-43,-46,-45,-46,-48,-42,-26,-1,-4,-9,-17,-23,-36,-46,-49,-60,-64,-66,-71,-66,-67,-60,-67,56,356,560,172,-29,-4,6,-12,-28,-34,-37,-33,-27,-21,-23,-26,-23,-13,-7,0,7,19,29,39,47,50,53,64,65,66,65,72,79,83,83,77,58,32,12,-3,-15,-22,-28,-28,-33,-38,-38,-44,-41,-48,-56,-52,-55,-64,-63,-62,-59,-54,-49,-41,-40,-32,-34,-29,-24,-25,-24,-21,-23,-31,-38,-46,-56,-64,-57,-55,-49,-56,-59,-60,-60,-66,-75,-37,225,517,375,15,8,10,-12,-25,-31,-38,-41,-44,-39,-37,-33,-22,-17,-8
2019-06-01,11:38:51.567,7,17,19,25,32,38,37,41,47,54,59,63,65,76,83,90,85,65,39,24,0,-17,-27,-33,-44,-46,-44,-47,-42,-36,-36,-26,-18,-16,-16,-22,-19,-21,-26,-27,-32,-36,-33,-35,-35,-38,-30,-26,-21,-14,-10,-17,-24,-30,-47,-51,-50,-48,-51,-54,-57,-59,-58,-63,-73,0,310,556,265,9,11,11,-11,-25,-31,-34,-37,-37,-32,-27,-17,-9,0,3,7,14,19,26,34,39,41,44,42,42,40,39,38,35,37,43,39,27,2,-5,-20,-28,-26,-24,-21,-27,-23,-26,-29,-31,-38,-36,-41,-38,-35,-32,-30,-33,-35,-33,-39,-41,-37,-31
2019-06-01,11:38:52.592,-31,-24,-13,-11,-23,-24,-26,-42,-53,-49,-47,-46,-45,-47,-49,-42,-47,-60,-40,178,503,493,95,52,33,11,-8,-21,-24,-23,-25,-24,-19,-18,-17,-18,-16,-11,-13,-11,-13,-7,-5,-6,-1,-2,0,8,19,32,50,62,72,76,63,44,22,1,-15,-31,-36,-38,-45,-41,-36,-41,-47,-49,-45,-35,-31,-29,-31,-36,-39,-40,-39,-35,-36,-35,-30,-30,-31,-24,-13,-18,-26,-29,-30,-41,-46,-47,-44,-43,-45,-44,-47,-49,-55,-70,-19,256,549,359,63,52,29,-3,-19,-24,-25,-28,-26,-34,-25,-28,-31,-33,-36,-30,-23,-23,-15,-13,-7,0,4,4
2019-06-01,11:38:53.618,10,25,41,57,63,66,78,63,33,9,-15,-33,-38,-45,-49,-47,-45,-41,-43,-38,-42,-37,-36,-42,-37,-40,-34,-41,-41,-40,-45,-49,-48,-42,-42,-36,-35,-23,-21,-24,-25,-39,-57,-57,-50,-61,-62,-58,-61,-58,-55,-62,-67,1,313,628,379,22,21,15,-3,-22,-31,-37,-36,-41,-39,-29,-22,-20,-13,-6,3,6,9,21,35,45,51,62,76,81,91,102,112,104,94,87,76,49,19,0,-21,-31,-39,-46,-47,-43,-46,-48,-44,-50,-48,-47,-53,-57,-50,-46,-44,-46,-47,-45,-42,-38,-38,-39,-40,-27,-21,-30,-29,-28,-45,-55,-53,-59,-61,-66
2019-06-01,11:38:54.644,-52,-54,-59,-64,-72,-66,126,486,581,106,20,18,8,-15,-29,-37,-43,-45,-41,-44,-42,-37,-34,-33,-26,-14,-5,7,22,32,42,50,49,55,65,69,73,63,74,67,57,49,17,0,-18,-26,-25,-23,-33,-49,-49,-44,-38,-37,-32,-31,-32,-38,-41,-33,-29,-31,-30,-28,-33,-43,-38,-31,-33,-15,-22,-17,-9,-18,-21,-29,-52,-47,-37,-37,-40,-42,-53,-53,-56,-61,-62,-41,189,554,554,43,-5,16,2,-16,-35,-45,-45,-38,-33,-19,-11,-7,-7,-2,5,14,26,34,46,56,66,74,77,87,94,99,106,107,113,110,95,65,32,2,-18,-31
2019-06-01,11:38:55.669,-42,-48,-50,-47,-43,-44,-50,-45,-43,-48,-44,-44,-45,-52,-53,-51,-51,-50,-49,-48,-42,-40,-36,-26,-25,-38,-46,-47,-62,-70,-76,-77,-76,-73,-76,-73,-69,-72,-80,-60,154,496,502,4,-48,-29,-38,-51,-61,-62,-59,-50,-47,-31,-23,-20,-18,-7,2,5,9,12,18,26,32,46,54,60,57,64,72,75,85,83,71,56,33,9,-14,-34,-38,-36,-42,-41,-43,-42,-39,-39,-37,-41,-38,-36,-36,-34,-35,-39,-39,-41,-40,-42,-40,-42,-36,-28,-30,-27,-17,-20,-27,-30,-32,-46,-52,-56,-56,-54,-60,-64,-63,-59,-70,-76,-58,208,540,442,30,14
2019-06-01,11:38:56.695,16,-1,-20,-22,-23,-20,-19,-13,-12,-5,-2,-1,3,9,14,18,17,22,27,38,46,53,62,59,60,68,70,76,80,81,60,36,16,1,-8,-16,-23,-25,-24,-24,-22,-17,-18,-19,-12,-6,-7,-5,-8,-13,-16,-16,-15,-14,-14,-17,-22,-22,-16,-7,-5,-4,4,5,-6,-15,-20,-27,-36,-41,-47,-52,-56,-57,-60,-54,-53,-51,-32,166,509,561,100,34,36,26,5,-6,-10,-15,-8,-9,-7,-4,2,5,13,18,22,29,37,43,52,66,72,83,89,99,102,110,117,127,131,120,93,67,47,32,13,0,0,-1,0,-1,0,3,3,7
2019-06-01,11:38:57.721,-61,-57,-55,-53,-57,-57,-55,-58,-62,-64,-62,-62,-67,-70,-74,-72,-67,-55,-55,-49,-43,-46,-52,-55,-54,-59,-59,-57,-54,-54,-53,-54,-56,-58,-58,-59,54,369,568,150,-49,-20,-11,-27,-43,-43,-47,-48,-43,-39,-34,-31,-28,-21,-12,0,7,10,22,31,31,36,49,64,70,70,78,84,90,99,96,75,54,32,6,-10,-21,-27,-33,-35,-34,-37,-37,-38,-44,-43,-40,-41,-49,-53,-56,-56,-61,-68,-75,-77,-80,-75,-74,-67,-59,-52,-42,-37,-32,-32,-23,-23,-14,-11,-20,-28,-29,-36,-50,-51,-54,-53,-53,-55,-57,-50,-53,-64,-59,141,501,575
2019-06-01,11:38:58.746,82,12,19,8,-21,-36,-38,-37,-40,-29,-26,-25,-24,-20,-12,-4,5,11,18,19,24,32,41,53,54,60,67,74,82,97,104,97,75,51,26,1,-17,-33,-41,-45,-49,-49,-52,-51,-51,-50,-45,-51,-50,-42,-42,-35,-29,-37,-40,-42,-38,-41,-43,-41,-44,-48,-50,-52,-49,-41,-46,-48,-40,-41,-49,-54,-59,-77,-83,-87,-89,-87,-82,-81,-82,-81,-87,-80,-4,269,497,191,-68,-35,-15,-21,-31,-31,-31,-26,-25,-22,-16,-10,-1,6,11,16,24,32,34,46,55,66,72,76,77,77,79,80,85,89,90,66,42,18,-8,-28,-39,-45,-52,-50
2019-06-01,11:38:59.772,-46,-46,-42,-41,-32,-31,-31,-22,-22,-23,-25,-27,-30,-36,-36,-36,-40,-45,-44,-42,-39,-38,-43,-44,-41,-36,-30,-27,-15,-17,-32,-34,-34,-45,-54,-46,-52,-59,-58,-55,-62,-61,-64,-66,14,328,617,315,-12,0,9,-4,-16,-23,-26,-22,-21,-17,-12,-5,-4,1,7,8,15,19,18,24,26,39,44,50,58,64,71,80,90,98,97,89,67,36,14,2,-11,-23,-29,-30,-36,-34,-34,-33,-40,-37,-39,-41,-44,-46,-48,-55,-61,-60,-55,-55,-61,-64,-62,-55,-48,-46,-42,-37,-18,-20,-27,-35,-34,-50,-55,-56,-52,-52,-51,-50,-52,-51,-57,-49
2019-06-01,11:39:00.798,12,265,519,281,-89,-53,-19,-19,-27,-33,-38,-36,-33,-36,-34,-29,-26,-19,-19,-14,-8,-5,-1,8,24,40,60,78,94,99,100,100,104,107,102,81,49,17,-7,-19,-36,-40,-43,-46,-44,-46,-49,-45,-47,-41,-40,-41,-37,-39,-40,-48,-50,-44,-47,-48,-55,-62,-52,-50,-54,-54,-54,-48,-38,-32,-26,-18,-25,-33,-34,-38,-47,-49,-52,-45,-47,-49,-47,-50,-49,-59,-66,10,321,601,312,-1,8,3,-22,-39,-47,-53,-57,-60,-58,-56,-53,-42,-33,-16,9,31,45,42,48,58,68,72,78,77,87,91,91,97,102,100,88,58,25,-3,-23,-40
2019-06-01,11:39:01.823,-30,-35,-39,-43,-43,-39,-36,-30,-29,-25,-28,-30,-29,-30,-27,-26,-31,-29,-25,-22,-26,-33,-29,-30,-33,-32,-29,-26,-24,-23,-13,-7,-17,-25,-31,-44,-55,-63,-59,-65,-64,-64,-71,-71,-79,-86,-58,141,470,497,11,-31,3,4,-9,-17,-18,-19,-24,-19,-14,-7,-8,-1,0,8,18,22,25,36,43,46,54,64,62,67,79,91,98,103,100,91,77,53,29,9,-1,-11,-18,-25,-27,-26,-25,-18,-17,-21,-22,-24,-20,-18,-17,-17,-19,-18,-19,-16,-15,-15,-26,-27,-30,-35,-39,-39,-34,-33,-34,-32,-20,-26,-35,-40,-47,-57,-60,-59,-55,-56
2019-06-01,11:39:02.849,-46,-38,-28,-33,-45,-40,75,403,585,162,-20,0,1,-17,-23,-24,-24,-26,-29,-25,-23,-21,-15,-14,-9,5,12,21,32,44,62,70,85,96,103,109,120,128,136,138,127,102,65,31,3,-12,-23,-32,-38,-37,-38,-41,-42,-47,-43,-41,-39,-42,-42,-48,-49,-53,-56,-58,-61,-68,-72,-71,-74,-76,-69,-69,-62,-50,-36,-15,-11,-15,-21,-27,-42,-52,-51,-56,-59,-58,-54,-58,-61,-68,-71,11,322,592,281,-36,-11,2,-11,-26,-33,-34,-27,-26,-22,-12,-9,-1,2,-2,8,16,29,38,45,52,59,65,74,84,92,99,104,109,115,107,83,54
2019-06-01,11:39:03.875,39,14,-4,-16,-22,-27,-34,-38,-41,-41,-40,-43,-36,-41,-43,-43,-42,-41,-38,-29,-30,-34,-35,-35,-36,-42,-43,-43,-39,-38,-34,-35,-29,-21,-23,-29,-34,-45,-59,-63,-62,-63,-72,-68,-71,-73,-75,-81,-79,32,372,599,171,-75,-35,-15,-27,-36,-40,-48,-46,-40,-32,-30,-21,-14,0,7,14,21,27,32,40,53,66,73,81,96,99,79,83,102,90,98,93,54,29,0,-25,-36,-43,-46,-50,-53,-57,-50,-39,-32,-28,-30,-32,-31,-34,-35,-38,-46,-49,-49,-50,-49,-52,-50,-41,-40,-35,-27,-21,-34,-41,-41,-48,-55,-59,-53,-51,-53,-53,-52
2019-06-01,11:39:04.900,-53,-59,-57,-40,129,460,557,74,-42,-12,-3,-11,-18,-21,-25,-22,-20,-17,-9,0,1,9,14,24,33,37,43,45,54,63,72,74,74,77,81,83,88,89,67,44,18,-4,-16,-27,-28,-30,-28,-27,-26,-29,-36,-38,-37,-35,-38,-38,-39,-35,-41,-45,-45,-48,-43,-46,-53,-53,-58,-65,-63,-55,-49,-47,-42,-24,-24,-32,-39,-41,-52,-61,-59,-56,-55,-59,-55,-54,-60,-62,-61,-33,175,490,470,17,-20,1,-1,-16,-20,-24,-29,-24,-25,-30,-26,-22,-20,-16,-11,-7,-6,0,1,6,11,20,33,46,60,75,94,106,120,124,102,70,35,4
2019-06-01,11:39:05.926,-19,-33,-40,-48,-52,-55,-50,-51,-49,-43,-39,-41,-40,-42,-48,-45,-47,-46,-44,-47,-51,-52,-51,-51,-52,-54,-54,-54,-46,-42,-33,-30,-37,-39,-45,-52,-55,-55,-54,-53,-56,-54,-52,-55,-55,-55,-22,196,502,438,-48,-63,-19,-14,-28,-35,-40,-43,-41,-36,-32,-23,-19,-12,3,17,30,38,48,60,71,80,89,98,107,110,116,123,128,121,115,90,59,31,0,-20,-31,-39,-43,-41,-43,-46,-44,-43,-42,-35,-37,-35,-33,-33,-34,-29,-37,-37,-35,-34,-37,-39,-44,-43,-41,-38,-30,-25,-24,-19,-9,-15,-18,-26,-27,-41,-52,-58,-57,-61,-59,-57
2019-06-01,11:39:06.952,-57,-62,-66,-76,-42,212,531,450,23,1,13,3,-5,-13,-7,-2,-8,-6,-9,-6,-1,2,9,10,16,22,29,30,38,47,53,61,68,75,86,85,95,106,110,100,71,45,23,-3,-16,-26,-35,-33,-36,-35,-41,-32,-37,-42,-37,-34,-40,-42,-43,-40,-46,-45,-42,-44,-45,-47,-45,-47,-57,-56,-55,-62,-57,-51,-45,-44,-58,-69,-70,-78,-76,-73,-70,-72,-69,-63,-58,-60,-67,-59,17,297,540,210,-101,-54,-25,-29,-33,-40,-42,-46,-39,-32,-29,-23,-20,-14,-3,-4,8,20,26,36,49,58,68,81,87,100,106,111,115,109,103,86,53,20
2019-06-01,11:39:07.977,16,2,-7,-11,-13,-16,-17,-14,-14,-15,-13,-11,-13,-16,-22,-29,-34,-41,-52,-51,-54,-55,-56,-57,-56,-58,-44,-40,-31,-24,-8,-4,-14,-14,-28,-41,-53,-59,-60,-57,-58,-57,-62,-63,-64,-66,-40,202,529,475,18,-7,3,1,-18,-32,-25,-27,-32,-25,-15,-12,-11,-2,-3,2,9,19,26,34,40,44,55,61,75,86,89,99,111,121,119,105,72,37,11,-10,-25,-44,-40,-50,-55,-59,-67,-52,-56,-56,-57,-48,-49,-46,-44,-39,-37,-36,-30,-38,-41,-44,-35,-42,-47,-52,-53,-50,-44,-31,-27,-37,-42,-44,-51,-62,-60,-59,-60,-64,-69,-70
2019-06-01,11:39:09.003,-42,-53,-57,-49,117,446,543,94,0,19,18,3,-4,-7,-9,-11,-11,-9,-3,1,10,20,33,36,43,55,67,69,68,71,76,72,75,69,81,89,85,95,85,61,31,17,-3,-11,-20,-17,-19,-17,-6,-9,-1,2,1,0,0,-1,-4,-12,-14,-21,-24,-29,-24,-24,-20,-14,-19,-19,-16,-10,-7,-1,4,17,-5,-17,-14,-23,-32,-27,-22,-24,-26,-24,-24,-22,-23,-37,-37,151,479,572,157,76,68,47,27,16,6,-1,-10,-2,1,3,1,1,5,8,13,9,8,8,10,14,12,14,17,30,32,33,55,87,109,118,100,74,54,28
2019-06-01,11:39:10.029,0,-9,-18,-17,-15,-14,-20,-17,-25,-31,-30,-29,-31,-38,-38,-41,-37,-36,-41,-40,-42,-40,-38,-36,-35,-32,-29,-26,-12,-1,-10,-18,-20,-35,-45,-43,-46,-45,-41,-47,-49,-43,-49,-66,-45,183,484,432,72,51,35,10,-15,-29,-34,-37,-42,-44,-42,-43,-37,-34,-27,-28,-23,-19,-12,-2,-2,-1,6,13,19,17,18,22,33,46,56,59,48,29,9,-3,-11,-13,-13,-19,-17,-16,-15,-22,-8,-15,-26,-22,-25,-29,-27,-25,-28,-25,-18,-22,-30,-32,-23,-18,-16,-8,5,-1,-12,-10,-17,-29,-28,-30,-30,-29,-32,-34,-40,-42,-56,-88,19,346
2019-06-01,11:39:11.054,585,290,146,99,52,3,-17,-29,-34,-31,-28,-26,-28,-17,-12,-22,-16,-6,-8,-16,-25,-27,-26,-20,-27,-28,-27,-30,-21,0,-4,16,31,32,27,12,-6,-10,-11,-13,-15,-10,-20,-19,-12,-11,-14,-16,-11,-12,-14,-12,-10,-9,-14,-14,-15,-12,-18,-11,-5,7,12,1,-4,-11,-18,-23,-23,-24,-22,-32,-37,-32,-33,-45,-69,-83,151,508,544,212,136,76,26,-12,-31,-38,-39,-32,-31,-27,-23,-17,-14,-19,-18,-19,-14,-10,-4,0,5,12,18,20,26,40,50,56,75,85,82,63,39,14,-4,-14,-24,-24,-26,-28,-31,-31,-32,-35,-42,-42
2019-06-01,11:39:12.080,9,7,7,9,9,15,13,10,22,35,32,24,25,12,-2,-6,-8,-13,-17,-21,-28,-34,-38,-43,-42,18,274,528,206,-122,-53,-9,-4,-4,-3,3,9,13,21,21,27,33,38,44,48,55,56,68,74,81,91,96,103,112,114,116,120,118,114,99,81,50,22,7,-4,-11,-19,-25,-26,-25,-22,-28,-30,-25,-20,-19,-21,-20,-21,-25,-22,-22,-20,-15,-3,0,-10,-17,-19,-35,-43,-51,-53,-54,-58,-61,-68,-65,-73,-77,-55,108,418,476,-1,-88,-36,-15,-24,-24,-22,-20,-15,-14,-15,-8,-5,2,9,15,22,31,36,41,54,65,72,80
2019-06-01,11:39:13.106,89,86,87,94,101,103,106,90,64,32,7,-11,-18,-32,-35,-43,-35,-35,-37,-37,-38,-35,-34,-38,-40,-45,-38,-34,-29,-27,-23,-11,-17,-23,-30,-33,-53,-66,-67,-72,-78,-84,-83,-83,-80,-87,-94,-95,2,297,497,143,-48,-20,-8,-25,-39,-37,-39,-38,-32,-33,-30,-28,-16,-9,-8,-4,3,4,18,23,31,39,41,56,65,73,76,83,90,88,74,49,19,-2,-23,-33,-42,-49,-49,-50,-48,-48,-46,-46,-48,-51,-49,-47,-46,-43,-39,-35,-32,-25,-18,-21,-28,-34,-36,-53,-59,-66,-67,-77,-75,-72,-76,-81,-87,-89,-83,40,366,519,88,-47
2019-06-01,11:39:14.131,-6,8,-6,-19,-18,-19,-21,-17,-19,-17,-16,-12,-6,0,13,21,31,34,41,50,57,69,76,85,92,93,97,104,100,74,51,28,3,-13,-25,-29,-33,-36,-36,-38,-37,-33,-35,-38,-33,-35,-34,-31,-25,-20,-18,-15,-2,5,-3,-16,-22,-33,-48,-55,-61,-63,-62,-67,-71,-78,-73,-92,-95,-92,74,406,496,93,11,23,20,-7,-15,-22,-22,-24,-23,-20,-18,-20,-14,-9,1,6,0,9,14,29,38,37,42,45,52,55,66,81,85,78,64,41,17,0,-14,-24,-33,-38,-37,-39,-37,-38,-35,-31,-33,-31,-30,-29,-33,-32,-26,-28,-29,-22
2019-06-01,11:39:15.157,-23,-32,-40,-46,-53,-67,-75,-82,-79,-78,-80,-87,-92,-95,-103,-106,-100,5,316,500,89,-98,-48,-23,-32,-39,-42,-46,-46,-47,-46,-41,-34,-31,-20,-7,2,9,21,29,43,56,70,86,100,113,125,128,133,136,122,95,52,21,-3,-26,-34,-42,-50,-50,-49,-50,-53,-51,-49,-45,-51,-50,-47,-37,-33,-31,-29,-17,-12,-13,-17,-24,-26,-41,-50,-56,-59,-62,-67,-75,-76,-83,-88,-96,-89,35,360,522,99,-63,-32,-14,-22,-30,-28,-29,-33,-31,-27,-30,-25,-15,-7,0,7,16,22,31,37,47,55,64,78,89,91,93,95,97,87,68,39,9
2019-06-01,11:39:16.183,-11,-27,-37,-40,-46,-43,-49,-51,-49,-48,-50,-45,-42,-47,-50,-50,-48,-43,-34,-35,-26,-14,-13,-20,-29,-34,-49,-58,-65,-67,-74,-75,-75,-77,-82,-87,-91,-85,24,346,534,146,-67,-26,-6,-17,-28,-34,-35,-35,-32,-31,-28,-23,-14,-9,-2,6,12,26,37,44,52,63,72,81,89,95,107,113,114,101,78,45,17,-16,-30,-34,-41,-42,-50,-49,-48,-48,-46,-45,-42,-43,-46,-44,-41,-34,-30,-30,-24,-13,-16,-20,-27,-33,-50,-59,-65,-66,-69,-73,-78,-80,-83,-90,-95,-90,14,318,513,157,-34,-8,0,-13,-27,-36,-31,-37,-38,-39,-33,-27
2019-06-01,11:39:17.208,-23,-14,-11,-3,0,10,8,14,27,39,46,54,63,65,73,85,89,85,68,37,9,-15,-29,-41,-43,-45,-40,-43,-42,-45,-42,-42,-41,-42,-42,-42,-34,-31,-32,-32,-16,-13,-22,-35,-38,-52,-60,-64,-66,-69,-77,-84,-85,-89,-98,-100,-108,-29,276,521,202,-84,-56,-26,-28,-39,-38,-40,-42,-44,-41,-38,-33,-28,-19,-10,-4,7,12,27,38,54,73,83,97,111,123,132,133,130,114,81,45,9,-22,-39,-49,-57,-59,-65,-67,-65,-59,-59,-59,-59,-59,-58,-56,-52,-48,-46,-44,-34,-21,-23,-27,-34,-40,-49,-61,-66,-69,-74,-74,-78,-81,-80
2019-06-01,11:39:18.234,-66,-69,-50,120,425,479,1,-81,-28,-5,-7,-8,-8,-6,-5,-6,0,-4,1,9,13,16,27,39,54,73,73,65,82,89,93,96,104,109,114,109,89,73,43,7,-12,-22,-32,-39,-36,-37,-40,-40,-40,-39,-30,-30,-34,-31,-26,-23,-20,-17,-15,-21,-11,0,0,-9,-15,-17,-33,-44,-47,-54,-57,-62,-69,-66,-68,-67,-70,-71,37,339,527,154,-100,-55,-21,-20,-24,-24,-18,-13,-11,-9,-9,-4,-3,3,17,24,31,44,55,67,74,82,88,96,110,114,116,125,131,124,96,65,31,9,-4,-15,-20,-26,-25,-33,-33,-34,-37,-32,-31,-31
2019-06-01,11:39:19.260,-2,-4,-4,-7,-7,3,4,6,6,13,19,15,3,-5,-20,-31,-43,-46,-53,-57,-60,-59,-62,-60,-58,-70,-60,102,399,472,32,-53,-10,3,-10,-17,-12,-6,-6,-20,-18,-9,-2,3,6,10,16,25,32,34,41,41,47,51,55,64,66,76,87,92,89,68,43,16,-2,-18,-33,-37,-47,-51,-52,-48,-42,-42,-39,-38,-42,-40,-40,-44,-45,-46,-41,-43,-34,-38,-31,-14,-14,-28,-42,-53,-63,-72,-75,-76,-77,-81,-89,-94,-95,-95,-97,-73,42,315,449,6,-156,-72,-28,-22,-22,-32,-32,-23,-19,-15,-9,-6,2,9,16,20,31,41,49,59
2019-06-01,11:39:20.285,111,123,133,140,142,144,150,156,150,136,113,87,56,29,15,6,2,-4,-10,-4,-8,-6,-12,-14,-15,-13,-11,-10,-7,-4,0,0,-2,-2,-3,6,12,3,-1,-10,-26,-41,-48,-48,-50,-54,-63,-68,-65,-63,-60,-63,-31,152,424,402,-49,-81,-23,-5,-14,-16,-25,-24,-21,-17,-13,-10,-6,1,8,11,8,19,32,38,49,61,71,76,89,94,105,110,112,107,90,61,23,-4,-20,-38,-46,-54,-50,-51,-53,-58,-51,-52,-53,-57,-59,-52,-53,-51,-52,-52,-53,-50,-51,-50,-56,-55,-42,-34,-42,-56,-64,-75,-89,-97,-94,-94,-91,-92,-97,-94
2019-06-01,11:39:21.311,-62,-58,-48,4,217,459,312,-103,-80,-26,-14,-25,-31,-30,-29,-25,-18,-10,-8,3,10,11,16,32,39,47,55,67,74,83,92,102,107,109,114,116,111,102,83,49,26,6,-9,-20,-25,-25,-25,-28,-32,-31,-28,-25,-27,-28,-28,-28,-34,-35,-39,-40,-44,-53,-49,-41,-43,-48,-33,-29,-32,-43,-46,-53,-61,-57,-54,-51,-54,-47,-42,-46,-53,-54,-57,-9,185,441,334,-71,-66,-27,-22,-23,-31,-26,-31,-34,-26,-24,-17,-13,-7,3,13,21,25,38,53,55,63,68,68,73,72,79,88,98,105,96,76,46,23,3,-10,-16,-24,-17,-18,-23
2019-06-01,11:39:22.337,8,8,10,10,9,1,1,-4,-11,-12,-8,-6,-10,-10,-10,-11,-15,-10,-2,-13,-17,-23,-31,-37,-30,-28,-20,-16,-17,-18,-17,-22,-32,-40,-13,181,448,398,-18,-22,8,10,0,-10,-13,-15,-10,-8,-2,-1,-2,8,9,14,28,36,39,47,55,60,65,68,71,70,73,79,84,90,85,65,48,27,10,0,-9,-15,-16,-15,-15,-15,-18,-16,-16,-18,-19,-21,-23,-28,-30,-35,-38,-40,-42,-39,-34,-32,-25,-17,-24,-25,-34,-49,-49,-49,-48,-45,-44,-44,-40,-41,-40,-55,-60,-10,241,477,237,-7,6,9,-14,-31,-40,-44,-48,-49,-42,-43
2019-06-01,11:39:23.363,5,14,17,25,31,33,36,44,48,54,63,71,79,84,91,100,110,120,122,112,86,44,24,8,-8,-17,-15,-17,-18,-17,-17,-16,-21,-27,-33,-30,-39,-43,-46,-43,-48,-46,-45,-52,-49,-42,-38,-45,-55,-56,-65,-55,-55,-53,-55,-56,-61,-62,-69,-71,-70,-47,78,325,394,-89,-211,-115,-52,-37,-35,-36,-33,-24,-18,-15,-7,1,4,12,19,30,37,43,56,75,85,97,104,113,120,128,133,133,126,105,77,46,15,-4,-18,-32,-36,-34,-34,-33,-28,-29,-30,-31,-32,-37,-42,-47,-43,-41,-41,-38,-42,-32,-24,-27,-29,-29,-32,-42,-48,-49
2019-06-01,11:39:24.388,-41,-41,-45,-51,-51,-54,-57,-48,29,287,478,122,-165,-97,-41,-31,-37,-30,-28,-38,-33,-31,-18,-10,0,0,16,24,36,45,52,62,69,82,86,89,97,104,103,105,103,95,73,39,15,-12,-31,-40,-42,-47,-52,-45,-47,-50,-51,-47,-45,-49,-51,-54,-56,-58,-61,-59,-63,-64,-67,-60,-54,-54,-57,-55,-57,-62,-62,-60,-61,-65,-65,-67,-73,-75,-74,-63,43,309,477,111,-115,-58,-19,-26,-32,-38,-40,-39,-41,-40,-33,-25,-12,-7,0,10,20,27,40,49,65,75,79,79,85,92,100,106,108,103,79,50,21,0,-16,-26,-27,-28,-34,-30
2019-06-01,11:39:25.414,-14,-16,-20,-17,-19,-21,-26,-28,-27,-33,-33,-32,-30,-34,-26,-20,-19,-16,-17,-18,-24,-32,-33,-32,-36,-42,-45,-44,-43,-43,-42,-26,101,381,498,70,-35,-8,9,-7,-14,-13,-3,-8,-12,-14,-10,-4,4,9,16,22,25,29,35,42,45,50,58,55,63,73,79,84,89,83,65,39,22,2,-9,-15,-21,-24,-23,-24,-25,-26,-27,-28,-30,-32,-43,-46,-51,-55,-52,-50,-48,-42,-30,-14,-17,-19,-22,-30,-43,-47,-46,-44,-43,-48,-55,-59,-60,-64,-74,-80,74,400,521,126,37,36,14,-14,-23,-28,-33,-37,-40,-27,-23,-20,-18,-5,-8,-2
2019-06-01,11:39:26.440,14,23,26,25,24,27,34,39,40,46,54,66,84,88,78,57,35,25,8,-3,-4,-7,-13,-20,-20,-25,-31,-33,-33,-35,-37,-30,-24,-24,-26,-19,-12,-11,0,5,2,0,-1,-15,-21,-33,-41,-42,-43,-47,-11,-38,-64,-78,-85,-103,57,407,533,185,77,55,21,-20,-38,-43,-40,-43,-48,-49,-43,-43,-41,-37,-31,-24,-21,-22,-15,-13,-15,-15,-16,-14,-10,-5,0,19,26,36,29,11,-3,-18,-30,-35,-41,-42,-48,-43,-47,-45,-50,-52,-47,-53,-52,-44,-42,-35,-33,-24,-16,-13,-2,6,1,-3,-11,-21,-36,-38,-33,-42,-47,-41,-47,-41
2019-06-01,11:39:27.465,-65,-63,-104,-116,124,490,543,237,138,81,18,-28,-45,-52,-57,-68,-66,-71,-78,-65,-53,-43,-54,-39,-38,-53,-54,-63,-65,-60,-65,-69,-68,-71,-57,-50,-20,-13,-13,-17,-26,-32,-40,-46,-44,-48,-43,-45,-35,-36,-40,-39,-34,-22,-14,-23,-30,-35,-26,-23,-24,-28,-18,-12,-9,-15,-12,-16,-28,-33,-35,-40,-42,-40,-42,-44,-40,-45,-70,-111,109,491,596,311,203,109,32,-11,-36,-48,-59,-50,-55,-51,-56,-56,-56,-52,-52,-53,-52,-60,-65,-65,-71,-66,-64,-73,-74,-70,-59,-38,-16,-1,-2,-4,-13,-27,-29,-29,-25,-27,-23,-21,-23,-11,-6,-1
2019-06-01,11:39:28.491,-49,-46,-52,-58,-62,-60,-61,-66,-63,-49,-47,-44,-44,-47,-60,-66,-67,-65,-67,-66,-67,-70,-75,-74,-81,-103,-87,202,551,422,135,83,41,0,-29,-38,-41,-46,-45,-48,-41,-34,-27,-20,-13,-8,-4,5,10,12,14,9,13,19,19,13,28,16,32,30,11,-7,-31,-38,-40,-41,-39,-33,-25,-22,-19,-19,-22,-23,-25,-29,-26,-28,-34,-38,-30,-26,-23,-18,-9,-19,-20,-28,-38,-43,-48,-52,-51,-56,-59,-57,-52,-54,-62,-89,-56,231,538,384,132,88,46,5,-21,-32,-29,-33,-35,-34,-28,-23,-21,-13,-6,-2,0,5,11,16,16,22,21,26
2019-06-01,11:39:29.517,-15,-9,-4,1,18,16,-1,-25,-51,-67,-74,-83,-84,-79,-71,-66,-59,-62,-63,-66,-64,-73,-74,-78,-74,-71,-76,-68,-58,-50,-51,-59,-60,-71,-83,-85,-84,-80,-81,-85,-87,-92,-89,-96,-96,-48,200,478,284,-89,-71,-41,-44,-56,-56,-56,-55,-53,-48,-43,-38,-33,-22,-11,-6,5,16,28,35,44,60,68,75,78,82,79,79,82,64,30,6,-12,-44,-56,-59,-67,-63,-59,-55,-48,-41,-38,-38,-37,-42,-48,-48,-38,-34,-41,-37,-31,-31,-40,-48,-51,-61,-72,-71,-74,-78,-87,-91,-90,-85,-88,-96,-99,-27,263,519,255,-16,-4,-6,-28,-42,-48
2019-06-01,11:39:30.542,-79,-72,-68,-66,-60,-54,-48,-41,-32,-23,-18,-8,0,3,10,20,28,30,29,37,40,47,52,40,19,-7,-28,-47,-59,-64,-68,-67,-62,-54,-55,-46,-32,-25,-20,-15,-15,-14,-19,-18,-22,-26,-24,-19,-14,-13,-19,-26,-29,-37,-34,-39,-41,-38,-47,-50,-50,-45,-45,-50,-65,39,374,586,247,69,54,31,1,-14,-19,-24,-19,-16,-19,-16,-9,-7,-1,6,10,20,26,38,42,44,43,48,52,46,52,55,63,66,55,34,6,-11,-25,-36,-42,-38,-31,-24,-16,-12,-7,-5,-9,-21,-29,-40,-38,-39,-34,-34,-35,-38,-27,-8,-18,-29,-24,-38
2019-06-01,11:39:31.568,-66,-66,-71,-67,-66,-68,-63,-66,-64,-65,-72,-70,60,382,538,137,0,13,9,-14,-28,-27,-27,-24,-18,-15,-13,-11,-5,2,11,17,23,30,37,45,48,52,55,60,63,63,62,70,64,43,13,-5,-19,-34,-37,-37,-33,-31,-34,-30,-26,-29,-30,-28,-29,-28,-34,-35,-35,-36,-36,-33,-33,-29,-17,-3,-11,-18,-25,-32,-42,-47,-45,-46,-48,-52,-53,-54,-56,-61,-71,-62,122,461,527,104,35,30,9,-6,-20,-27,-30,-29,-25,-22,-15,-8,-5,-1,0,2,8,11,11,12,18,19,21,19,23,24,31,43,50,44,28,12,1,-9,-16,-21
2019-06-01,11:39:32.594,-40,-47,-50,-52,-59,-55,-61,-64,-66,-60,-65,-68,-69,-68,-71,-67,-72,-73,-75,-67,-59,-50,-54,-60,-63,-81,-82,-82,-87,-90,-90,-89,-87,-90,-86,-80,-68,3,268,509,189,-105,-61,-24,-38,-40,-43,-42,-39,-33,-27,-23,-24,-16,-13,-10,-3,1,10,15,25,34,43,51,64,76,82,93,98,99,85,57,31,8,-9,-23,-31,-37,-44,-48,-47,-48,-50,-50,-51,-48,-46,-45,-48,-46,-38,-34,-30,-29,-29,-14,-14,-15,-24,-28,-41,-49,-56,-61,-63,-65,-65,-65,-68,-69,-70,-52,91,395,514,74,-68,-28,-12,-21,-24,-26,-25,-22,-19,-12,-12,-5
2019-06-01,11:39:33.619,-33,-31,-22,-17,-11,-5,3,14,16,29,36,44,52,65,77,83,84,68,39,5,-19,-38,-50,-62,-67,-69,-72,-69,-65,-66,-65,-63,-65,-62,-64,-59,-64,-63,-64,-58,-55,-57,-57,-47,-38,-43,-51,-51,-65,-72,-71,-76,-78,-76,-75,-72,-68,-71,-68,-63,-22,208,475,343,-65,-57,-25,-22,-31,-34,-33,-31,-24,-20,-19,-16,-13,-7,-3,2,7,14,19,23,35,49,64,71,80,88,95,103,113,106,78,47,17,-4,-20,-27,-36,-40,-45,-47,-44,-46,-45,-43,-44,-43,-42,-44,-42,-40,-46,-43,-40,-39,-33,-29,-24,-23,-15,-12,-19,-22,-30,-37
2019-06-01,11:39:34.645,-80,-83,-81,-83,-86,-88,-88,-86,-87,-93,-89,-11,265,509,256,-49,-24,-13,-25,-38,-41,-41,-45,-48,-45,-39,-35,-40,-36,-30,-24,-16,-5,6,16,32,49,65,74,85,93,95,102,103,93,64,39,11,-14,-26,-37,-36,-42,-43,-44,-43,-45,-40,-40,-39,-39,-41,-39,-35,-35,-35,-40,-44,-39,-41,-30,-24,-22,-19,-6,-7,-7,-9,-19,-25,-31,-30,-30,-30,-31,-33,-32,-26,-25,-32,-27,83,384,563,186,17,35,32,8,-4,-9,-12,-14,-13,-10,-8,1,3,11,23,32,43,54,68,79,85,91,97,105,105,105,106,115,120,108,86,57,33
2019-06-01,11:39:35.671,-56,-69,-77,-75,-77,-75,-74,-72,-73,-72,-70,-66,-66,-70,-72,-69,-71,-70,-70,-72,-69,-70,-67,-61,-59,-54,-52,-42,-37,-38,-41,-46,-56,-61,-65,-66,-64,-64,-66,-67,-63,-70,-77,-88,-26,258,524,290,-5,-7,-10,-38,-53,-65,-67,-60,-57,-51,-42,-34,-21,-13,-9,-2,3,12,17,24,29,35,36,45,42,40,50,56,63,61,40,17,2,-20,-31,-42,-44,-47,-47,-48,-45,-47,-47,-43,-43,-42,-44,-40,-37,-40,-41,-40,-43,-36,-37,-35,-33,-27,-29,-34,-27,-15,-11,-20,-25,-34,-43,-52,-55,-56,-54,-60,-54,-60,-68,-73,-85,-77,124,446
