2019-05-31,10:43:12.970,14,12,5,3,5,17,19,11,8,13,11,6,8,-1,0,2,5,36,55,68,55,52,40,15,0,-10,-25,-10,-12,-11,-8,-16,-17,-20,-17,-30,-32,150,335,370,-5,-402,-422,-321,-170,-46,-23,-12,-6,3,9,10,14,14,15,17,18,16,20,20,26,36,44,58,62,75,91,107,121,133,144,147,153,160,163,146,115,76,46,33,6,-4,-16,-28,-25,-24,-25,-31,-30,-24,-18,-17,-20,-21,-19,-14,-11,-14,-22,-34,-35,-41,-44,-40,-33,-29,-21,-18,-7,9,2,-8,-14,-30,-32,-33,-30,-23,-16,-29,-28,-29,-28,-31,-35,-52,-52,98
2019-05-31,10:43:13.995,243,263,-36,-350,-354,-266,-149,-36,0,12,24,29,30,32,33,31,22,17,7,9,11,13,16,27,32,36,49,62,78,88,110,125,135,145,146,147,144,122,101,71,37,13,-3,-9,-21,-24,-27,-26,-14,-11,-10,-12,-1,-2,-4,-7,-16,-17,-23,-29,-28,-33,-40,-48,-45,-44,-46,-45,-46,-28,-13,-1,8,20,18,6,-1,-14,-36,-45,-46,-52,-61,-67,-69,-71,-73,-66,-67,-77,-76,52,196,216,-10,-336,-349,-258,-150,-70,-53,-52,-47,-46,-40,-31,-27,-21,-15,-5,4,10,11,14,21,24,40,65,80,104,121,127,133,137,137,132,128,132
2019-05-31,10:43:15.019,159,156,141,111,86,67,57,53,51,49,41,35,28,23,26,18,16,19,16,23,18,16,15,14,13,14,16,17,17,14,9,3,-6,-5,-5,5,4,3,15,30,28,21,12,4,0,2,7,15,17,22,15,-3,2,4,-3,-8,1,135,268,269,-15,-365,-369,-273,-154,-62,-47,-37,-23,-11,3,9,9,23,31,30,30,27,26,24,24,25,24,41,56,73,82,97,114,133,146,149,156,150,146,144,113,85,52,26,8,-4,-10,-24,-22,-23,-23,-26,-33,-35,-33,-29,-36,-31,-37,-36,-32,-32,-35,-37,-38,-36,-40,-34,-35,-37,-45,-43
2019-05-31,10:43:16.044,-27,-31,-30,-15,-11,-4,10,33,28,21,24,5,-13,-23,-28,-30,-43,-51,-50,-52,-49,-47,-48,-52,-32,107,216,199,-89,-328,-315,-243,-139,-61,-37,-29,-22,-20,-13,-1,11,28,23,22,29,14,-5,0,27,61,39,50,51,58,66,78,89,100,101,66,71,90,191,134,102,68,44,21,1,-18,-84,-88,20,19,-28,-22,-20,-20,-20,-15,-24,-25,-27,-22,-27,-24,-28,-29,-21,-25,-23,-25,-24,-20,-18,-14,-6,2,0,14,37,40,30,15,8,-20,-57,-19,-26,-39,-47,-50,-46,-45,-42,-38,-41,-41,68,224,281,70,-311,-351,-238,-107,-23,-1
2019-05-31,10:43:17.068,-23,-11,-2,-1,0,0,2,4,9,8,11,18,20,23,25,33,43,44,53,101,89,100,111,126,134,126,115,147,151,124,91,57,27,1,-33,-58,-24,-15,-30,-35,-35,-37,-37,-37,-42,-45,-33,-29,-32,-20,-20,-21,-29,-27,-30,-40,-37,-39,-83,-45,-55,-25,-42,-46,-38,-42,-29,-34,-36,-16,12,18,6,-18,-28,-47,-60,-55,-52,-44,-46,-48,-40,-41,-49,-59,-55,54,234,330,184,-237,-344,-269,-156,-47,-13,-26,-7,2,-4,-10,-9,-1,0,4,16,18,15,20,27,26,30,33,49,74,81,85,96,111,125,128,121,137,141,128,116,97
2019-05-31,10:43:18.093,75,46,16,-1,-11,-25,-55,-36,-39,-19,-29,-26,-26,-24,-11,-14,-13,-18,-17,-14,-22,-22,-34,-21,-16,-31,-25,-1,-9,-18,-22,-22,-24,-26,-32,-30,-12,-15,-11,17,38,54,44,30,13,-12,-24,-19,-24,-38,-47,-48,-57,-52,-49,-45,-58,-51,97,243,268,-39,-354,-352,-260,-133,-59,-40,-38,-30,-29,-27,-26,-18,-11,0,0,3,10,15,18,19,26,26,29,35,40,50,55,60,71,82,88,95,100,117,115,98,74,48,29,15,-4,-18,-19,-23,-36,-51,-54,-51,-41,-47,-46,-43,-47,-65,-67,-52,-64,-59,-46,-50,-58,-57,-51,-52,-49,-52
2019-05-31,10:43:19.118,-28,-38,-28,-26,-24,-14,-18,-18,-4,6,7,-3,-10,-20,-43,-50,-52,-54,-52,-49,-49,-47,-57,-53,-56,-65,-21,129,223,156,-164,-335,-312,-235,-136,-62,-50,-43,-32,-22,-23,-25,-23,-24,-18,-13,-9,-2,2,9,23,26,37,48,55,68,86,109,136,156,174,189,195,198,198,180,146,110,77,59,31,14,-4,-20,-25,-28,-30,-33,-36,-40,-33,-27,-24,-19,-17,-9,1,2,1,3,-3,-4,-6,-14,-21,-20,-14,-14,-13,-11,-7,3,12,15,29,44,52,44,35,23,-2,-19,-17,-28,-35,-23,-27,-26,-39,-25,-1,-18,-21,98,249,281,60,-298
2019-05-31,10:43:20.142,-347,-278,-165,-51,-25,-19,-13,-6,-3,0,1,2,9,12,12,16,17,20,28,33,41,49,60,63,79,89,107,127,145,153,162,167,161,154,133,107,81,51,30,16,11,4,0,-7,-10,-12,-11,-14,-17,-14,-20,-25,-28,-26,-4,-23,-25,-27,-27,-40,-40,-27,-35,-37,-10,-15,-17,-22,-23,-25,-25,-17,-20,-9,0,18,27,4,-5,-4,-17,-29,-30,-38,-38,-39,-39,-42,-44,-46,-57,-65,-86,45,217,281,131,-266,-369,-306,-193,-70,-34,-20,-14,-25,-26,-17,-7,-27,-14,10,-2,5,1,11,14,10,20,26,24,33,43,64,47,123,141,122
2019-05-31,10:43:21.167,101,98,98,97,89,65,31,-2,-19,-13,-50,-54,-54,-59,-64,-64,-66,-69,-75,-77,-69,-62,-55,-62,-64,-47,-57,-49,-54,-53,-55,-57,-61,-66,-56,-56,-62,-60,-64,-71,-54,-47,-49,-31,-26,-30,-29,-17,-33,-49,-64,-54,-55,-54,-61,-68,-59,-64,-59,-61,-52,-75,13,155,248,121,-228,-350,-302,-204,-95,-62,-46,-32,-12,-27,-17,-25,-14,-16,-27,-16,-20,11,7,7,1,11,21,-7,33,74,81,89,98,106,122,118,131,146,139,124,92,67,48,21,3,-1,-20,-4,-30,-29,-20,-30,-24,-36,-29,-22,-19,-18,-12,-13,-12,-6,-3,-18,-4,-6
2019-05-31,10:43:22.191,-37,-13,18,-8,-22,-13,-24,-29,-31,-27,-33,-45,-16,-1,-10,-7,22,12,14,33,3,-12,-43,-33,-24,-32,-38,-44,-43,-40,-64,-40,-47,-48,10,169,282,203,-198,-380,-302,-170,-71,-31,-39,-28,-7,-13,-9,0,3,0,4,-7,8,19,5,6,29,31,24,34,63,50,73,83,107,121,131,141,144,142,130,130,107,83,49,25,-6,3,-16,-25,-24,-20,-25,-11,-29,-23,-22,-23,-33,-17,-22,-16,-34,-20,-23,-27,-1,1,-17,-24,-21,-21,-34,-37,-46,-34,-34,-54,-40,-37,-44,-31,-15,-12,-12,3,7,7,10,16,-8,-32,-34,-36,-49,-51
2019-05-31,10:43:23.216,-89,-98,-89,-75,-74,-58,-81,-73,59,215,263,5,-393,-400,-264,-142,-79,-36,-38,-42,-36,-38,-37,-27,-32,-29,-17,-22,-14,-20,-11,-7,-1,0,2,24,40,64,80,75,96,111,122,117,123,130,129,110,77,55,31,20,0,4,-11,-14,-17,-18,-21,-22,-19,-19,-18,-29,-14,-19,-19,-21,-13,-15,-16,-4,-8,-22,-9,-21,-14,-32,-21,-19,-14,-15,-23,-28,-20,-21,-27,-22,-22,-3,0,-6,2,15,30,29,17,17,-9,-22,-17,-31,-24,-44,-38,-42,-22,-26,-28,-28,-39,35,206,306,170,-229,-360,-252,-140,-57,-27,-13,-24,-1,4,-2,-11,-8
2019-05-31,10:43:24.241,-53,-33,-46,-45,-37,-26,-38,-13,-19,0,-4,0,12,28,46,60,64,88,87,84,97,74,69,50,28,14,-17,-21,-42,-47,-52,-54,-55,-55,-57,-57,-53,-61,-58,-56,-64,-52,-50,-52,-53,-58,-56,-41,-49,-57,-65,-61,-62,-68,-65,-58,-60,-64,-61,-51,-49,-47,-54,-46,-23,-42,-43,-2,7,-3,-14,-9,-22,-59,-41,-29,-44,-52,-53,-47,-58,-51,-41,-39,-55,53,209,265,82,-283,-337,-274,-139,-57,-36,-35,-2,-5,-5,-11,-17,3,4,1,6,13,10,24,28,35,37,43,57,53,86,84,95,121,133,157,153,157,159,142,129,94,81,51
2019-05-31,10:43:25.265,0,-23,-41,-52,-48,-54,-61,-63,-51,-48,-52,-36,-48,-51,-39,-36,-33,-26,-18,-18,-22,-35,-27,-31,-41,-30,-35,-47,-39,-25,-37,-40,-38,-43,-43,-34,-44,-47,-44,-43,-42,-26,-30,-22,-25,-7,5,16,2,-18,-39,-43,-40,-42,-38,-55,-53,-41,-41,-45,-43,-53,-25,132,262,255,-78,-373,-311,-184,-67,-46,-23,-18,-13,-9,0,1,2,-1,4,-4,1,-1,20,26,13,24,32,37,46,56,66,72,91,93,112,100,125,123,106,126,106,81,67,44,25,-1,-6,-5,-22,-19,-20,-29,-25,-28,-29,-28,-26,-36,-16,-34,-31,-13,-16,-11,-14,-23
2019-05-31,10:43:26.290,-35,-48,-45,-50,-46,-48,-39,-56,-41,-36,-42,-44,-44,-34,-48,-42,-39,-28,-13,-21,-14,-7,3,14,13,6,-19,-34,-36,-40,-46,-45,-41,-56,-59,-24,-33,-49,-53,-11,159,288,227,-168,-402,-287,-163,-48,-32,-23,-12,-15,-9,-3,-10,9,7,-10,2,7,4,18,25,30,24,29,34,62,64,72,83,96,108,119,131,134,126,129,117,103,89,68,36,14,3,-7,-8,-11,-18,-24,-24,-25,-10,-13,-14,-12,-10,-10,-4,-13,-5,-11,-8,-11,-24,-13,-13,-10,-9,-15,-18,-25,-22,-28,-28,-15,-25,-30,-28,-30,-29,-31,-19,-4,-8,-6,14,24
2019-05-31,10:43:27.314,13,0,-11,-23,-39,-36,-43,-44,-48,-49,-45,-44,-52,-49,-45,-65,-17,132,261,219,-163,-380,-300,-183,-67,-38,-24,-34,-37,-5,-16,-23,-18,-4,-15,-4,-2,-1,5,11,13,19,24,32,32,40,57,73,94,98,110,118,122,122,117,106,91,65,36,31,10,-8,-26,-21,-18,-24,-29,-26,-28,-25,-20,-23,-23,-20,-17,-16,-15,-14,-19,-19,-14,-17,-27,-22,-14,-13,-17,-19,-15,-21,-28,-39,-67,-20,-32,-35,-15,-2,-6,-4,1,-10,30,17,11,-14,-18,-22,-29,-27,-19,-32,-19,-27,-31,-30,-32,-29,-35,85,226,264,4,-299,-308,-229,-102,-21
2019-05-31,10:43:28.339,-20,-14,0,0,-2,3,5,2,7,9,2,15,35,29,32,39,44,51,58,69,80,94,97,99,124,133,138,143,137,122,116,96,68,42,19,4,-4,-14,-25,-33,-39,-23,-38,-23,-27,-9,-16,-13,-13,-10,-2,-3,-11,-2,-4,-25,-23,-18,-19,-31,-30,-29,-28,-30,-31,-32,-32,-30,-32,-32,-32,-41,-37,-17,-11,-16,-11,7,26,23,15,11,-6,-26,-28,-37,-36,-39,-40,-40,-34,-29,-37,-29,-56,-29,129,273,256,-84,-374,-301,-163,-54,-28,-19,-16,-4,-8,0,3,6,6,4,-2,2,3,11,32,26,33,40,56,59,67,74,90,99
2019-05-31,10:43:29.364,123,141,146,151,158,154,147,128,111,81,55,38,21,12,2,-3,-9,-8,-14,-13,-11,-8,-8,-8,-3,-3,-3,-1,1,12,13,12,10,14,8,3,6,5,4,6,2,-4,-8,-15,-22,-17,-7,-11,-15,-12,-2,6,7,15,32,47,39,29,18,-5,-17,-15,-27,-30,-27,-33,-33,-34,-38,-43,-62,-53,22,183,293,158,-275,-407,-308,-180,-67,-35,-24,-20,-14,-11,-8,-9,-6,-8,-6,-14,-5,18,15,23,28,37,42,51,59,71,77,93,90,104,94,138,136,125,130,115,96,71,49,22,1,-13,-20,-35,-42,-52,-47,-52,-43,-35,-33,-40
2019-05-31,10:43:30.388,-59,-60,-49,-53,-43,-51,-31,-48,-46,-44,-44,-51,-56,-60,-57,-63,-66,-63,-60,-59,-50,-54,-45,-43,-28,-27,-26,-5,14,20,10,7,-8,-31,-38,-39,-49,-40,-43,-45,-40,-39,-40,-32,-33,-51,73,249,323,85,-326,-385,-303,-175,-54,-36,-24,-14,-7,-8,-11,-11,-11,-7,-9,8,4,32,30,27,29,31,50,56,63,75,90,101,118,122,126,124,123,118,107,88,66,44,21,1,-13,-26,-25,-30,-32,-38,-38,-35,-28,-25,-23,-17,-19,-13,-6,-8,-11,-10,-13,-16,-16,-20,-18,-16,-18,-16,-10,-23,-24,-26,-25,-22,-14,-8,-8,-5,9,14
2019-05-31,10:43:31.413,-59,-73,-75,-94,-113,-105,-111,-109,-112,-113,-115,-112,-117,-117,-114,-120,-96,60,179,144,-182,-410,-387,-297,-183,-107,-91,-82,-72,-68,-64,-62,-56,-51,-50,-43,-40,-31,-32,-30,-22,-14,-1,9,22,36,48,63,79,89,100,105,109,110,104,93,74,51,26,4,-7,-19,-30,-28,-35,-36,-44,-42,-39,-36,-29,-24,-19,-13,-13,-9,-7,-2,-3,-7,-7,-14,-13,-11,-11,-13,-11,-11,-14,-13,-17,-16,0,7,9,15,36,43,33,21,9,-26,-37,-6,-3,-13,-24,-34,-35,-39,-38,-37,-40,-47,21,190,283,169,-220,-371,-293,-176,-65,-34,-25,-19,-13,-6
2019-05-31,10:43:32.437,-54,-49,-52,-54,-48,-45,-44,-46,-42,-26,-21,-11,-2,4,15,23,34,54,72,84,89,92,92,103,108,97,73,46,19,-2,-27,-41,-47,-50,-52,-57,-59,-54,-51,-50,-47,-45,-42,-37,-33,-30,-31,-33,-33,-29,-27,-32,-31,-30,-32,-31,-28,-30,-33,-37,-33,-35,-31,-26,-13,-12,-6,6,25,25,12,5,-17,-34,-35,-30,-20,-14,-22,-29,-28,-23,-31,-33,-34,-41,77,241,301,76,-325,-370,-267,-147,-49,-30,-24,-20,-16,-5,0,4,4,8,12,18,22,22,26,30,33,46,55,62,75,86,92,103,115,129,138,147,147,144,133,122,96,70
2019-05-31,10:43:33.462,89,64,46,33,24,18,16,17,16,22,25,30,26,22,22,28,33,33,34,33,33,30,24,24,20,19,17,15,14,10,8,8,9,8,3,5,10,25,25,26,42,54,49,36,32,13,1,-1,-8,-7,-11,-11,-9,-12,-12,-13,-14,-23,-21,122,283,326,44,-336,-357,-248,-107,-27,-12,-3,0,1,5,3,1,3,3,3,13,21,19,21,26,32,35,46,51,58,65,80,95,110,119,125,129,131,128,120,107,83,52,29,5,-12,-21,-24,-28,-34,-35,-32,-31,-27,-29,-29,-29,-29,-30,-35,-34,-32,-31,-30,-29,-27,-25,-32,-34,-33
2019-05-31,10:43:34.487,59,59,57,52,51,57,51,54,63,63,69,88,100,92,82,77,59,36,34,34,28,25,21,14,9,9,4,5,2,-4,91,244,291,121,-241,-304,-259,-153,-41,-3,3,11,18,20,24,18,19,25,31,30,31,34,35,46,51,56,60,61,77,87,98,112,125,135,141,142,140,137,129,109,82,44,12,0,3,-8,-22,-30,-33,-40,-33,-32,-28,-22,-17,-16,-7,-6,-6,-4,3,6,-5,-1,-2,1,-2,-3,-6,-14,-17,-14,-13,-20,-17,-15,-15,-18,-13,-17,-2,5,3,14,26,42,32,27,18,-1,-9,-9,-7,-12,-12,-18,-20,-25
2019-05-31,10:43:35.511,89,89,84,76,174,321,407,232,-181,-275,-161,-46,39,63,66,65,60,61,43,47,111,86,83,82,80,83,83,82,63,40,138,84,100,142,121,124,138,141,143,185,172,171,187,159,129,85,71,47,21,58,29,10,14,13,2,-9,0,-3,10,-13,19,15,0,3,2,3,-11,5,15,-2,44,-14,-7,-2,-5,-12,-7,-17,-36,11,0,-18,-17,-15,-9,-20,-5,18,31,57,27,39,3,-18,-26,-41,-29,-33,-39,-30,-40,-44,-35,-47,-54,-50,78,253,294,75,-335,-395,-291,-157,-54,-38,-28,-7,-13,-10,4,-2,13,2,-7,4,21,24
2019-05-31,10:43:36.536,105,100,99,103,109,125,135,132,153,158,182,180,185,185,183,175,170,154,119,96,68,56,28,31,17,-4,-2,0,-6,-1,-1,-2,-4,-10,11,-11,11,6,4,0,3,2,0,0,-2,-8,-15,-16,-23,-23,-21,-26,-28,-26,-23,-22,-12,-10,-8,-11,13,27,16,1,-16,-28,-34,-37,-27,-29,-37,-49,-41,-45,-51,-38,-49,-59,29,193,265,93,-273,-363,-322,-205,-87,-41,-31,-31,-21,-18,-8,-22,0,-13,-8,-2,4,8,14,12,19,25,20,33,50,62,80,97,98,131,136,135,142,130,120,115,94,68,49,25,6,-14,-31,-10,-20,-29
2019-05-31,10:43:37.560,11,11,15,17,22,22,31,16,27,45,35,29,27,31,32,26,20,18,26,7,5,21,26,23,12,6,3,4,0,9,25,32,33,39,55,57,40,11,30,-8,8,2,-2,-13,-13,-16,-17,-18,-17,-20,-34,-10,157,317,324,5,-355,-352,-229,-99,-26,-19,-8,-3,-46,17,43,11,22,24,20,26,23,27,43,33,39,76,43,73,69,70,98,117,131,142,137,149,151,178,151,117,97,69,47,15,8,13,-6,-22,40,-4,-18,-34,-12,6,4,0,-2,-9,3,4,0,-1,-8,-18,-15,-35,26,-4,-13,-8,-7,-7,-14,-33,-29,-9
2019-05-31,10:43:38.585,38,9,24,23,27,34,51,47,22,50,29,6,-13,-5,-11,-24,-18,-34,-38,-29,-31,-6,-54,-37,34,199,280,150,-233,-371,-328,-161,-68,-18,-15,-3,3,11,14,16,11,23,35,41,25,28,20,31,52,43,45,39,58,67,97,104,93,129,161,158,156,146,155,120,123,56,37,23,0,-28,-22,-7,-39,-51,-39,-38,-36,-38,-44,-24,-29,9,-33,-28,-30,-26,-16,-42,-29,-7,-22,-31,-48,-53,-45,-48,-41,-38,-45,-65,-45,-35,-37,-29,-25,-14,-6,-10,-22,-12,-27,-55,-56,-65,-65,-73,-72,-65,-77,-76,-47,-69,-55,-73,49,222,275,53
2019-05-31,10:43:39.609,-390,-436,-315,-188,-116,-104,-98,-70,-73,-67,-59,-40,-77,-27,-43,-40,-39,-23,-21,-3,-11,10,9,13,25,40,51,58,85,99,81,97,108,103,97,82,54,25,0,-6,-21,-45,-30,-47,-45,-45,-50,-46,-32,-32,-56,-18,-40,-32,-29,-24,-19,-16,-10,-15,-7,3,-23,15,-4,-15,-11,7,-16,-14,-12,-3,27,15,14,43,54,53,38,27,8,2,-3,-9,-9,-8,-9,-9,-7,-5,-3,-14,-16,16,179,326,283,-54,-388,-365,-249,-112,-49,-41,-51,-34,-21,-27,-31,-35,-27,-23,-26,-29,-21,-1,2,10,13,13,17,28,40,57,77,86,101,114
2019-05-31,10:43:40.634,84,107,88,81,72,58,29,9,-3,-11,-12,-9,-15,-15,-11,-10,-4,-3,-23,-27,9,13,9,1,4,1,-2,4,6,0,2,-2,-5,-3,-9,-11,-17,-25,-30,-26,-35,-47,-47,-53,-45,-56,-61,-68,-82,-93,-96,-90,-96,-100,-101,-100,-99,-101,-94,-92,-89,-79,25,177,218,30,-316,-354,-303,-209,-89,-37,-26,-8,14,28,41,57,59,67,76,85,83,81,81,80,81,40,33,93,102,127,122,131,132,134,131,124,112,102,78,47,14,-16,-37,-51,-61,-76,-80,-81,-89,-83,-79,-88,-61,-47,-53,-43,-73,-74,-99,-27,24,-31,-38,-38,-45,-61
2019-05-31,10:43:41.659,-67,-57,-55,-50,-56,-52,-59,-54,-43,-39,-42,-48,-38,27,2,-3,-12,-34,-38,-42,-39,-54,-59,-46,-38,-35,-38,-41,-45,-47,78,241,301,73,-311,-372,-287,-173,-78,-73,-28,6,-13,17,14,21,33,35,4,9,99,38,75,76,74,81,88,99,124,124,133,172,185,218,186,199,217,217,203,164,120,100,97,73,54,16,14,10,7,5,-3,-3,-1,1,-16,-4,21,4,15,18,15,14,19,8,-5,47,7,-4,0,-13,-20,-14,-12,-12,-1,0,0,-1,15,27,10,8,34,-13,-28,-28,-42,-46,-32,-30,-29,-33,-37,-52,-46,-23,-4,154
2019-05-31,10:43:42.683,316,294,-53,-380,-360,-239,-100,-14,0,-1,10,20,6,-15,24,18,1,42,60,59,51,50,51,28,2,52,72,73,100,87,121,132,153,169,130,47,141,21,142,140,92,52,20,9,-3,-16,-39,-63,-110,-63,-1,16,5,-9,-14,-16,-62,-40,-114,-120,-63,52,41,15,-2,-12,-14,-24,-28,-39,-42,-43,-30,11,22,28,45,42,21,5,1,-67,-35,-3,-12,-9,-20,-40,-47,-50,-67,-59,-36,-8,102,246,275,75,-269,-325,-239,-138,-50,4,-25,-3,34,23,7,16,10,30,38,33,18,27,44,47,50,47,73,91,45,110,156,145,151,174
2019-05-31,10:43:43.708,248,243,231,234,212,182,152,158,106,88,102,63,42,74,55,50,28,65,14,-8,65,65,50,35,37,20,25,41,19,40,37,46,11,-36,12,51,1,2,23,32,15,-10,39,59,36,-2,6,0,-12,-25,-23,-38,-33,-36,-50,-72,-83,-47,-23,-72,-31,59,203,268,109,-270,-386,-310,-174,-66,-58,-34,-30,-34,-36,-41,-80,-49,-14,-37,-11,0,-18,-29,-28,-25,-14,15,19,4,12,17,22,76,86,64,81,99,88,39,71,58,2,-38,-11,-35,-65,-50,-52,-55,-68,-91,-44,-24,-54,-62,-45,-41,-64,-58,-31,-59,-28,3,-18,-10,-1,-23
2019-05-31,10:43:44.732,94,62,94,107,118,104,96,88,119,118,96,138,179,169,160,164,134,121,121,98,103,128,106,74,86,118,80,64,112,98,81,225,377,393,189,-221,-288,-138,-30,43,81,84,60,69,103,74,82,85,76,85,78,85,67,74,42,77,136,129,114,115,117,152,147,171,162,180,196,188,189,185,144,96,84,51,46,40,16,8,-1,-8,-8,-10,-5,-14,-3,11,6,16,14,8,7,3,-16,1,2,2,0,-10,10,-7,-6,-2,-11,-22,4,-29,-25,-3,8,-15,2,0,-21,29,46,13,5,-12,-80,-18,-12,-41,-41,-42,-50,-45,-58,-53
2019-05-31,10:43:45.757,21,46,38,1,146,352,382,134,-219,-251,-181,-122,11,28,41,44,55,-16,34,63,35,25,48,77,75,58,56,69,31,92,83,104,128,131,136,145,153,171,175,176,159,174,162,126,94,73,42,29,25,-9,8,14,1,-1,2,-21,-13,-37,16,24,0,19,-17,-77,0,21,12,34,41,5,0,3,-22,-21,0,-30,-5,-14,-31,-40,-6,-9,-32,-1,8,3,12,8,-8,-38,-56,-30,-46,-62,-21,-34,-47,-37,-42,-54,-49,-52,-33,130,247,175,-150,-374,-347,-230,-108,-58,-46,-32,-34,-15,-26,-14,-20,-27,-9,-12,21,17,12,0,-12,42
2019-05-31,10:43:46.782,-1,-7,-13,24,64,59,73,82,88,82,89,93,100,67,53,6,10,-23,-39,-54,-70,-65,-102,-78,-66,-69,-76,-72,-64,-66,-70,-66,-39,-58,-31,-36,-31,-43,-45,-37,-44,-55,-71,-37,-29,-59,-44,-49,-70,-45,-51,-46,-59,-45,-59,-82,-9,-1,-16,-20,-6,20,5,-15,-40,-18,-51,-46,-15,-64,-78,-24,-29,-44,-41,-58,-91,-62,80,226,299,129,-373,-363,-303,-184,-65,-52,-46,-27,-74,-72,33,5,-11,-23,-20,-13,-1,17,22,23,32,45,53,63,77,90,101,122,138,146,160,163,170,170,161,146,117,95,69,36,31,29,11,-6,-17,-27
2019-05-31,10:43:47.806,-202,-197,-199,-196,-203,-214,-185,-157,-159,-169,-176,-162,-161,-167,-165,-147,-141,-141,-135,-132,-133,-137,-129,-140,-139,-134,-131,-128,-128,-121,-103,-99,-96,-81,-70,-62,-67,-73,-87,-100,-108,-106,-107,-107,-106,-107,-105,-105,-99,-103,-96,-104,-63,100,217,190,-143,-380,-366,-285,-174,-90,-73,-57,-48,-42,-36,-36,-30,-29,-28,-22,-19,-18,-13,-4,5,12,21,26,37,47,61,71,88,105,115,121,128,129,122,105,89,70,38,15,-2,-14,-20,-26,-34,-34,-33,-36,-40,-28,-26,-23,-25,-23,-8,0,-2,-1,11,-10,-26,30,25,13,12,5,9,10,8,8,14,3
2019-05-31,10:43:48.831,-334,-304,-275,-271,-269,-257,-243,-239,-246,-245,-258,-268,-270,-264,-261,-254,-254,-296,-274,-253,-221,-214,-221,-221,-102,56,96,-106,-454,-500,-444,-298,-202,-174,-162,-154,-147,-139,-131,-124,-117,-112,-111,-120,-126,-78,-61,-54,-59,-57,-48,-34,-19,0,26,33,52,59,70,70,76,84,76,59,34,1,-21,-28,-37,-33,-41,-47,-48,-52,-53,-53,-53,-41,-37,-45,-37,-37,-22,-22,-28,-31,-38,-38,-28,-23,-28,-16,-14,-19,-14,-24,-21,-7,-16,-23,-25,-26,-26,-31,-8,4,12,29,28,33,27,19,6,-13,-21,-24,-30,-20,-12,-12,-21,-2,-22,-18,-27,-23,98,255
2019-05-31,10:43:49.855,-83,-267,-654,-738,-625,-504,-381,-350,-343,-333,-325,-315,-308,-302,-293,-283,-277,-277,-260,-244,-238,-226,-217,-210,-198,-185,-166,-144,-128,-106,-87,-72,-60,-59,-44,-36,-53,-72,-88,-102,-114,-151,-140,-156,-158,-152,-142,-136,-135,-132,-129,-126,-116,-114,-108,-102,-106,-116,-110,-102,-106,-112,-112,-108,-101,-108,-105,-108,-103,-112,-104,-97,-89,-90,-86,-89,-84,-89,-80,-82,-61,-54,-34,-22,-30,-27,-30,-52,-66,-69,-64,-64,-73,-71,-75,-46,-49,-55,-55,-65,-12,164,291,243,-146,-418,-375,-252,-91,-37,-36,-23,-14,-11,-10,-5,-14,22,4,15,20,19,27,33,38,44,54,57
2019-05-31,10:43:50.880,-328,-308,-279,-261,-238,-217,-203,-191,-184,-178,-181,-186,-201,-219,-232,-245,-257,-259,-262,-265,-258,-264,-275,-248,-241,-234,-217,-218,-207,-194,-196,-198,-201,-201,-190,-186,-181,-183,-179,-169,-169,-158,-156,-129,-127,-125,-127,-119,-119,-115,-121,-117,-103,-110,-80,-59,-45,-61,-42,-33,-50,-63,-69,-80,-85,-70,-58,-67,-69,-70,-79,-68,-68,-79,1,166,240,195,-260,-424,-365,-246,-107,-60,-47,-35,-35,-35,-36,-29,-12,-17,-16,-15,-15,-14,-17,-10,2,13,21,34,50,60,83,99,115,126,134,133,90,120,158,141,104,83,57,31,18,-18,-90,49,-2,-17,20,0,0,0
2019-05-31,10:43:51.905,-332,-323,-318,-316,-323,-326,-332,-294,-283,-289,-311,-294,-276,-274,-277,-256,-279,-305,-168,-201,-212,-215,-212,-203,-199,-194,-184,-171,-156,-145,-145,-136,-109,-96,-117,-135,-150,-162,-171,-166,-169,-160,-133,-148,-142,-133,-160,-121,-111,45,216,237,-62,-429,-453,-352,-220,-117,-94,-68,-50,-43,-41,-37,-36,-41,-23,-5,-6,-9,-11,-29,5,33,39,44,51,66,77,92,106,120,137,142,136,146,143,152,136,97,79,57,35,4,-3,-8,-4,9,13,0,-2,-3,-1,-13,-19,-27,2,23,23,22,9,3,-8,-14,27,10,6,3,-1,-8,-6,1,2,8,1,0,12,17
2019-05-31,10:43:52.929,-236,-232,-226,-216,-203,-182,-201,-236,-242,-232,-234,-233,-221,-211,-222,-220,-218,-213,-213,-214,-160,10,112,35,-334,-505,-476,-381,-256,-192,-178,-147,-139,-138,-132,-122,-127,-126,-126,-114,-108,-102,-100,-98,-99,-77,-70,-53,-54,-42,-1,18,27,44,52,52,42,48,18,-39,13,8,-26,-65,-83,-87,-51,-81,-90,-96,-93,-91,-95,-87,-84,-79,-76,-78,-80,-50,-46,-52,-52,-61,-60,-61,-46,-31,-20,-23,-23,-27,-21,-16,-4,4,6,20,36,37,35,29,22,1,-15,-21,-33,-27,-27,-78,-30,2,-23,-37,-44,-31,-9,122,270,293,43,-317,-342,-277,-151,-54,-39,36
2019-05-31,10:43:53.954,-173,-187,-178,-166,-169,-165,-157,-149,-158,-165,-105,-96,-98,-96,-87,-72,-62,-48,-30,-6,9,32,43,53,63,66,60,52,30,5,-17,-47,-60,-58,-62,-64,-66,-71,-84,-114,-122,-94,-63,-60,-66,-69,-65,-57,-52,-50,-57,-52,-38,-41,-48,-49,-47,-51,-50,-57,-53,-56,-53,-40,-32,-26,-14,2,0,-9,-4,-21,-40,-47,-48,-45,-53,-54,-59,-57,-53,-54,-50,-51,-60,-22,146,249,215,-126,-401,-379,-265,-128,-57,-44,-34,-32,-21,-22,-15,-16,-27,-12,-6,12,11,11,14,23,27,37,46,59,66,83,97,111,134,146,150,152,141,109,149,99,87,57
2019-05-31,10:43:54.978,-50,-60,-71,-83,-83,-80,-72,-84,-79,-88,-93,-108,-107,-56,-61,-68,-70,-68,-66,-68,-74,-83,-106,-83,-51,-43,-62,-68,-62,-55,-44,-32,-26,-21,-9,-2,6,-10,6,-16,-45,-54,-58,-63,-67,-63,-79,-72,-38,-53,-48,-56,-59,48,213,265,94,-298,-368,-308,-142,-80,-47,-36,-28,-23,-15,-9,-4,-1,0,0,8,14,16,21,22,33,36,43,58,69,80,95,114,124,131,143,147,146,135,112,96,82,56,60,27,7,-6,-15,-29,-29,-35,-39,-36,-41,-33,-16,-3,3,6,8,8,11,13,5,-7,-41,2,25,0,-9,-9,-5,3,6,15,20
2019-05-31,10:43:56.003,4,8,0,2,-11,-33,-35,-37,-44,-45,-51,-54,-51,-57,-50,-50,-48,-49,26,189,276,156,-221,-348,-301,-204,-92,-58,-19,-21,-21,-21,-19,-12,-13,-9,-8,-6,1,2,0,5,0,14,30,34,46,54,66,82,101,114,116,115,114,109,106,94,66,35,6,-13,-27,-33,-42,-58,-58,-37,-33,-35,-34,-34,-30,-32,-33,-31,-24,-24,-28,-28,-33,-38,-76,-53,-4,-35,-46,-48,-49,-40,-32,-34,-26,-21,-7,-8,-22,-24,-34,-53,-63,-69,-71,-66,-71,-71,-65,-65,-67,-60,-63,-74,14,191,283,137,-296,-433,-346,-211,-85,-52,-45,-44,-35,-37,-42,-39
2019-05-31,10:43:57.028,-114,-108,-99,-97,-94,-85,-80,-77,-74,-65,-59,-47,-31,-16,2,27,41,63,74,81,88,91,80,62,33,4,-18,-41,-56,-66,-71,-73,-78,-76,-81,-85,-87,-77,-74,-66,-59,-53,-45,-41,-36,-32,-31,-26,-24,-29,-28,-30,-24,-16,-10,0,0,9,23,39,40,33,23,4,-9,-16,-26,-30,-29,-34,-36,-39,-35,-32,-32,-36,-54,-33,143,296,300,-63,-399,-405,-296,-150,-69,-51,-38,-30,-27,-28,-30,-19,-16,-9,-7,0,3,11,11,5,-2,34,54,55,60,76,106,71,124,184,184,161,158,146,119,89,37,-23,-42,51,19,6,-19,-23,-37,-37
2019-05-31,10:43:58.052,-119,-124,-162,-98,-129,-12,-66,-87,-87,-89,-89,-108,-107,-54,-66,-35,-74,-79,-81,-86,-123,-68,25,-28,-16,6,11,0,-24,-34,-18,-39,-54,-59,-63,-75,-73,-78,-88,-98,-105,-111,-135,-85,94,247,183,-181,-483,-462,-374,-169,-87,-17,-22,-25,-9,0,0,1,7,-9,-4,10,8,9,2,2,4,16,27,43,48,63,87,113,142,152,158,159,159,145,115,107,80,47,13,-5,-9,-25,-31,-56,-92,5,0,-28,-37,-28,-25,-21,-16,-17,-6,-11,-14,-1,0,-4,-6,-9,-12,-16,-42,-28,1,19,17,9,14,30,43,39,27,3,-15,-27,-19,-34
2019-05-31,10:43:59.077,-136,-148,-151,-154,-169,-137,-96,-145,-88,-77,15,168,208,2,-378,-425,-361,-238,-123,-95,-93,-95,-104,-92,-79,-70,-60,-38,-51,-59,-56,-65,-68,-62,-50,38,29,17,26,37,49,69,79,102,106,102,100,99,88,72,46,26,8,-3,-16,-18,-25,-33,-36,-43,-39,-33,-26,-28,-24,-23,-26,-17,-9,-12,19,15,20,19,24,22,27,44,39,50,67,77,82,89,105,106,107,105,94,75,59,55,56,51,44,52,46,53,56,58,60,57,70,195,330,351,121,-221,-253,-193,-63,53,69,77,82,83,87,90,95,92,103,98,103,108,108,110,114,118
2019-05-31,10:44:00.101,-71,-59,-35,-32,-26,-20,-8,6,-1,-26,-3,30,-30,53,3,-39,-66,-89,-110,-169,-148,-142,-207,-229,-113,-181,-162,-171,-188,-204,-206,-185,-155,-131,-93,-64,-84,-99,-102,-126,-118,-139,-125,-65,-142,-125,-127,-133,-147,-171,-152,-96,-128,-65,-129,-161,-175,-181,-183,-234,-199,-189,-182,-136,-197,-190,-188,-184,-147,2,112,115,-211,-455,-473,-356,-225,-152,-141,-144,-140,-140,-141,-141,-146,-151,-165,-138,-129,-132,-123,-121,-145,-154,-42,-95,-42,-20,-16,1,22,44,58,49,55,135,115,147,115,97,79,67,54,43,37,27,35,11,74,49,51,61,66,70,73,74,75,68
2019-05-31,10:44:01.126,-568,-508,-498,-491,-497,-492,-482,-475,-468,-475,-474,-444,-460,-383,-390,-397,-406,-408,-409,-416,-409,-436,-387,-382,-396,-375,-384,-387,-387,-382,-408,-391,-314,-161,-53,-123,-495,-721,-666,-550,-415,-338,-303,-272,-252,-229,-206,-190,-179,-163,-148,-146,-144,-133,-127,-106,-95,-81,-67,-52,-43,-27,-12,-1,11,6,19,86,70,57,59,39,13,-9,-39,-65,-104,-72,-70,-66,-71,-77,-73,-80,-87,-81,-80,-75,-74,-73,-70,-62,-51,-46,-42,-38,-38,-37,-43,-39,-43,-47,-50,-45,-50,-51,-51,-43,-39,-47,-48,-49,-68,-77,-73,-69,-84,-90,-48,-56,-61,-67,-77,-83,-92,-54,113,257
2019-05-31,10:44:02.151,-617,-913,-1196,-1187,-1077,-946,-849,-817,-796,-773,-757,-739,-716,-698,-680,-666,-646,-622,-608,-592,-590,-562,-513,-504,-481,-456,-431,-401,-376,-350,-327,-308,-288,-269,-264,-259,-260,-264,-279,-297,-300,-305,-305,-305,-305,-301,-296,-291,-281,-266,-257,-241,-232,-231,-223,-218,-216,-211,-206,-198,-190,-184,-182,-186,-185,-178,-165,-149,-145,-127,-119,-106,-106,-104,-91,-99,-93,-87,-84,-81,-85,-86,-84,-82,-74,-69,-68,-72,-37,111,227,189,-102,-335,-318,-231,-120,-38,-18,-9,0,4,9,7,17,39,38,37,36,47,58,64,73,81,90,103,111,127,139,155,169,182,191,199,200,196,177,149
2019-05-31,10:44:03.175,-626,-646,-659,-671,-674,-675,-669,-659,-647,-635,-624,-614,-612,-600,-580,-563,-543,-515,-487,-459,-441,-430,-423,-415,-408,-413,-410,-406,-402,-401,-391,-368,-355,-342,-322,-300,-292,-295,-287,-290,-290,-283,-274,-263,-257,-256,-246,-238,-235,-229,-219,-221,-208,-71,103,163,-57,-440,-484,-399,-267,-155,-120,-102,-87,-78,-75,-67,-62,-56,-52,-44,-36,-32,-31,-25,-20,-13,-8,2,14,26,41,58,77,93,110,123,134,144,148,145,125,101,82,51,36,22,16,17,6,9,13,9,3,12,19,23,23,23,20,22,21,21,19,22,17,12,16,18,12,15,10,25,28,31,40,51
2019-05-31,10:44:04.200,-407,-401,-403,-404,-414,-419,-412,-408,-405,-406,-404,-398,-389,-383,-377,-378,-389,-375,-219,-73,-64,-354,-680,-679,-577,-439,-347,-320,-304,-287,-268,-249,-234,-215,-196,-179,-167,-157,-148,-142,-134,-130,-126,-125,-116,-107,-95,-78,-61,-37,-18,-6,13,27,33,33,24,5,-16,-41,-60,-75,-78,-88,-87,-82,-87,-81,-80,-71,-71,-65,-58,-50,-46,-40,-35,-31,-24,-20,-16,-16,-18,-15,-17,-6,-1,4,17,33,37,28,14,-1,-28,-41,-46,-51,-59,-59,-62,-66,-63,-62,-59,-53,-61,9,195,305,220,-180,-374,-323,-199,-64,-17,-7,4,11,14,16,19,23,24,42,35,36
2019-05-31,10:44:05.224,-189,-183,-170,-163,-153,-143,-133,-113,-101,-81,-65,-49,-31,-19,-16,-15,-16,-24,-39,-62,-83,-98,-111,-118,-123,-128,-131,-131,-131,-129,-130,-129,-129,-131,-131,-138,-146,-148,-146,-144,-140,-141,-138,-132,-122,-112,-108,-97,-88,-79,-59,-50,-45,-40,-51,-56,-51,-52,-57,-58,-66,-76,-85,-84,-85,-89,-95,-98,16,191,260,74,-327,-406,-336,-202,-66,-30,-16,-11,-4,-1,4,2,3,8,8,15,19,21,28,37,43,54,66,75,88,103,121,137,155,167,173,173,176,163,145,123,89,61,33,10,-2,-21,-31,-37,-45,-47,-44,-41,-32,-27,-12,2,11,20,37,45
2019-05-31,10:44:06.249,77,68,67,62,51,46,49,52,54,60,78,86,78,65,46,40,23,0,18,13,7,6,0,-8,-6,-8,-7,-14,11,177,329,340,0,-354,-367,-258,-115,-9,9,14,26,30,35,41,42,36,37,35,36,46,50,50,49,45,42,48,56,73,81,93,109,116,118,121,129,128,121,114,88,64,63,49,51,37,28,23,14,2,-9,-17,-23,-23,-27,-24,-21,-26,-25,-23,-23,-21,-17,-12,-10,-6,3,0,7,19,36,33,22,13,0,-21,-26,-30,-31,-33,-35,-34,-35,-34,-32,-31,-31,-41,-14,154,298,290,-68,-359,-352,-253,-119,-41,-24,-16
2019-05-31,10:44:07.274,190,183,176,176,174,175,176,179,178,175,170,171,179,187,200,214,232,249,260,278,284,278,280,280,265,251,233,205,181,150,125,107,92,76,67,57,51,59,60,67,65,66,59,62,59,62,64,62,64,63,50,53,55,60,58,62,74,85,85,74,64,55,37,29,19,13,5,0,-6,-11,-14,-20,-21,-29,-36,-5,120,220,163,-135,-349,-317,-236,-118,-48,-33,-22,-17,-4,1,5,10,7,8,7,7,3,10,15,11,18,23,35,45,63,80,92,109,116,118,123,123,121,112,95,61,38,14,-1,-12,-19,-22,-31,-35,-28,-38,-32,-34
2019-05-31,10:44:08.298,219,221,228,238,240,241,247,251,247,240,234,230,225,233,229,229,227,225,223,210,199,175,148,135,131,121,115,107,102,92,92,88,94,95,92,129,282,405,363,18,-271,-251,-134,-8,60,69,76,77,75,69,73,71,66,75,79,79,83,80,82,89,95,99,106,115,127,144,161,171,189,190,198,196,193,185,159,136,113,86,64,43,31,23,13,5,1,2,0,0,2,7,8,4,-4,-18,-32,-39,-47,-56,-61,-67,-67,-63,-56,-41,-24,-5,18,41,40,37,32,14,-11,-22,-32,-47,-57,-64,-71,-77,-79,-76,-81,-79,-88,-27,159,279
2019-05-31,10:44:09.323,547,132,-93,-72,36,185,245,262,262,271,264,264,269,269,263,262,261,264,268,268,269,269,271,275,278,284,294,308,315,323,331,336,338,335,325,306,273,243,207,174,145,122,106,95,74,71,65,61,63,64,68,78,74,76,84,89,91,93,88,81,79,68,54,47,42,50,49,56,62,78,83,72,65,42,21,9,6,1,-4,-4,-5,-6,-14,-14,-15,-4,-14,-10,159,313,327,-8,-379,-397,-287,-137,-29,-6,-4,7,17,21,23,22,26,23,21,22,27,20,19,26,25,10,6,7,15,16,53,55,69,73,89,94,99,101,90,67
2019-05-31,10:44:10.347,432,388,381,390,350,324,305,291,279,267,257,258,256,255,256,257,257,254,246,247,236,235,228,218,208,203,210,209,211,218,233,220,211,197,182,163,154,150,140,131,129,124,117,112,111,106,97,85,144,302,392,299,-52,-212,-186,-95,7,61,73,72,66,57,55,50,44,34,33,30,32,38,44,57,61,70,96,105,129,131,136,148,147,148,147,154,148,138,122,101,80,44,32,5,6,-9,-8,-12,-18,-25,-21,-19,-22,-16,-17,-10,-9,-3,-2,2,2,0,2,0,-1,-4,2,4,3,10,21,35,29,24,14,-9,-24,-30,-37,-38
2019-05-31,10:44:11.372,312,305,293,285,280,264,243,220,201,344,484,503,273,-83,-103,-31,86,193,205,220,222,233,228,230,220,207,201,201,196,197,197,206,205,206,209,209,216,221,233,242,249,259,261,265,264,260,247,223,190,160,137,113,88,78,61,54,48,45,50,49,50,50,51,50,55,57,58,53,52,51,44,43,38,28,19,9,-1,0,-1,-3,0,8,19,18,9,-3,-21,-39,-37,-34,-37,-44,-63,-29,-18,-21,-32,-38,-45,-24,76,226,279,36,-362,-416,-324,-197,-90,-75,-42,-42,-44,-20,-28,-24,-19,-17,-18,-19,-11,-12,-6,0,9,14,22,32
2019-05-31,10:44:12.397,344,355,366,376,385,398,403,395,397,386,370,336,302,272,239,211,194,185,183,170,161,158,147,138,124,111,100,92,91,87,73,79,65,119,109,91,120,129,123,122,114,112,112,116,103,123,119,105,90,80,56,39,36,29,24,22,23,19,17,18,19,16,4,5,150,301,334,41,-334,-369,-283,-146,-38,-12,-3,9,13,17,21,24,35,40,40,46,54,59,63,66,69,75,82,90,94,101,109,115,117,119,117,110,104,96,80,53,33,6,-9,-14,-16,-19,-16,-18,-16,-12,-9,-5,-6,-20,-17,-16,-19,-19,-22,-19,-28,-29,-40,-46
2019-05-31,10:44:13.421,235,221,218,215,218,223,221,218,230,235,229,213,207,185,166,161,155,151,143,136,137,136,133,128,123,117,110,210,357,399,212,-148,-203,-154,-47,53,76,82,93,89,88,86,86,73,60,56,53,51,47,29,65,68,64,56,78,89,102,124,143,154,158,170,173,160,150,129,97,64,41,21,5,-6,-12,-12,-20,-20,-19,-19,-17,-13,-10,-13,-9,-3,-5,-9,-4,-6,-6,-12,-14,-13,-12,-7,-5,3,0,8,19,31,32,21,15,3,-12,-16,-16,-20,-16,-13,-21,-24,-25,-22,-27,-27,-36,43,199,278,142,-247,-379,-319,-205,-91,-56,-45
2019-05-31,10:44:14.446,205,209,210,208,211,216,216,222,228,224,220,221,231,241,233,232,252,246,255,262,268,278,280,281,278,275,264,242,222,192,165,147,129,105,100,97,83,79,72,70,64,66,67,67,71,61,67,70,72,67,66,68,70,58,59,58,52,52,54,63,53,52,59,67,63,45,36,15,-5,-11,-13,-24,-47,-77,-49,-70,-72,-92,-95,-39,-47,29,209,316,209,-213,-376,-329,-215,-78,-33,-27,-26,-27,-28,-27,-22,-18,-13,-10,-6,0,11,17,27,32,35,42,50,59,68,79,94,106,118,129,123,123,119,109,89,66,40,24,11,-4,-18,-20
2019-05-31,10:44:15.470,233,228,220,216,214,213,207,205,204,195,188,188,175,173,164,162,160,158,159,164,162,163,160,160,170,169,166,170,181,182,175,161,140,122,103,94,92,91,86,82,75,73,71,67,60,49,59,215,361,375,72,-280,-298,-207,-79,20,41,53,62,62,63,65,67,66,66,66,72,69,73,79,71,74,81,85,90,96,112,117,127,127,134,127,113,103,92,72,51,18,-12,-31,-36,-47,-38,-27,-29,-26,-28,-19,-35,-5,-8,-21,-28,-32,-39,-46,-47,-41,-41,-43,-41,-43,-44,-40,-38,-37,-27,-27,-25,-14,-1,2,-7,-15,-28,-48,-59,-64
2019-05-31,10:44:16.495,178,173,165,163,159,159,154,149,148,134,188,343,440,362,9,-162,-131,-32,83,133,140,137,135,138,131,116,105,104,101,105,106,103,101,106,113,119,133,146,164,181,189,203,211,216,218,216,212,204,190,169,144,119,99,81,63,55,43,39,33,23,21,22,21,20,23,30,25,26,24,28,23,24,26,22,20,15,17,11,11,12,18,28,25,31,43,56,43,37,32,11,-9,-17,-19,-32,-43,-50,-50,-59,-59,-69,-68,-70,-77,33,192,249,61,-337,-422,-341,-215,-96,-61,-48,-36,-29,-27,-30,-33,-32,-29,-31,-29,-27,-22,-17,-6,2
2019-05-31,10:44:17.520,222,224,239,249,253,258,272,282,287,294,295,290,285,262,232,205,178,153,136,126,111,104,95,90,86,86,87,91,96,101,100,101,97,102,109,109,101,97,92,87,76,68,64,55,47,43,38,41,37,41,56,73,67,57,46,28,17,11,9,8,3,0,-1,4,-14,11,3,-14,-23,79,248,326,152,-269,-387,-328,-223,-62,-10,-19,-8,-1,4,18,14,9,12,17,20,25,29,30,41,48,58,70,76,86,95,100,117,134,146,140,145,148,141,121,101,74,43,17,-3,-18,-19,-22,-31,-41,-42,-48,-52,-62,-63,-67,-67,-68,-63,-52
2019-05-31,10:44:18.544,136,138,145,148,152,155,151,146,146,138,126,121,113,121,120,121,127,139,149,140,133,121,103,85,82,78,74,73,73,72,62,59,55,53,45,45,191,356,400,134,-265,-319,-239,-110,8,39,45,52,50,62,68,67,69,71,69,75,75,81,88,95,99,102,109,108,112,119,125,133,127,138,137,133,128,122,108,83,65,44,23,7,-2,-9,-13,-19,-17,-18,-18,-17,-12,-8,-9,-9,-7,-8,-6,-4,-2,-4,-7,-11,-12,-16,-13,-18,-16,-16,-8,-11,-5,3,19,22,12,5,-4,-24,-33,-31,-31,-37,-36,-29,-30,-30,-32,-35,-38,-42
2019-05-31,10:44:19.569,94,244,360,340,37,-235,-230,-150,-41,46,61,72,72,69,65,58,57,56,56,55,53,55,47,50,54,60,76,87,104,118,129,142,149,155,149,144,139,130,117,104,85,60,37,19,12,5,0,-8,-15,-17,-21,-23,-22,-21,-15,-11,-10,-4,-5,-1,3,2,4,1,1,-3,-5,-12,-3,7,10,16,27,39,43,26,19,7,-10,-16,-16,-16,-24,-24,-33,-46,-49,-53,-54,-55,-68,-16,142,239,168,-190,-367,-331,-219,-91,-36,-20,-11,-4,0,-1,0,0,-1,1,2,7,10,23,22,26,34,37,52,57,73,93,101,114,127,131,131,129
2019-05-31,10:44:20.593,251,235,210,190,166,153,140,126,126,121,121,122,122,122,117,125,125,124,123,121,121,115,110,107,102,92,96,90,89,79,64,55,60,65,69,75,83,86,82,76,71,59,49,52,59,49,58,60,51,71,59,46,52,38,38,172,323,341,68,-300,-335,-244,-107,0,19,31,32,38,41,45,46,50,53,56,45,46,50,51,58,62,60,69,75,85,96,108,120,128,138,135,135,136,126,109,77,43,16,-4,-26,-41,-52,-64,-75,-79,-83,-92,-99,-100,-102,-97,-96,-91,-86,-82,-78,-81,-85,-84,-97,-103,-71,-88,-91,-93,-83,-85,-78,-71
2019-05-31,10:44:21.618,-60,-66,-82,-90,-107,-125,-135,-134,-138,-147,-149,-152,-150,-155,-150,-147,-147,-157,-70,103,207,84,-348,-499,-451,-319,-164,-109,-91,-83,-70,-62,-49,-37,-28,-20,-14,-8,2,9,19,30,55,65,76,87,94,107,119,124,134,144,149,149,143,143,131,111,86,60,38,23,8,-15,1,24,20,25,35,41,51,53,57,59,60,57,58,54,49,46,44,41,39,37,36,49,50,56,71,84,82,73,65,44,24,17,14,9,8,11,13,8,4,14,11,11,-4,50,209,308,233,-121,-289,-264,-169,-53,6,22,28,32,35,37,29,30,26,26,24,18
2019-05-31,10:44:22.642,-168,-167,-165,-160,-154,-144,-136,-128,-119,-104,-95,-82,-66,-59,-56,-51,-51,-62,-78,-98,-118,-145,-180,-171,-160,-170,-176,-185,-188,-185,-178,-176,-177,-170,-162,-152,-148,-144,-134,-130,-126,-127,-120,-118,-108,-105,-104,-90,-69,-69,-75,-78,-90,-104,-109,-116,-113,-108,-109,-108,-106,-105,-102,-97,-95,-106,-30,124,206,105,-249,-387,-357,-263,-155,-110,-98,-91,-80,-71,-70,-74,-74,-67,-53,-45,-35,-21,-6,1,11,13,26,35,46,52,61,81,79,99,122,116,118,117,107,89,66,42,25,18,4,-3,-3,-15,-15,-14,-17,-16,-17,-15,-9,-6,2,10,19,22,26,32
2019-05-31,10:44:23.667,-328,-320,-318,-319,-306,-287,-276,-266,-248,-231,-239,-246,-254,-271,-282,-286,-293,-307,-309,-308,-312,-312,-311,-304,-306,-305,-305,-179,0,67,-132,-532,-607,-512,-376,-250,-216,-198,-193,-182,-172,-160,-157,-153,-129,-127,-120,-123,-100,-108,-85,-83,-73,-60,-48,-33,-17,0,21,37,49,59,67,68,64,52,31,8,-13,-33,-41,-42,-50,-55,-59,-58,-50,-52,-49,-45,-41,-31,-30,-25,-27,-31,-35,-35,-38,-41,-45,-42,-42,-46,-46,-45,-56,-56,-38,-27,-22,-30,-31,-32,-39,-38,-36,-32,-20,-20,-24,-38,-55,-44,-41,-52,-72,-43,124,269,235,-134,-398,-387,-282,-135,-51,-30
2019-05-31,10:44:24.692,-502,-488,-479,-468,-452,-445,-437,-425,-415,-404,-393,-380,-368,-352,-337,-321,-301,-281,-263,-240,-217,-195,-177,-160,-144,-136,-134,-136,-157,-181,-206,-226,-237,-250,-259,-264,-263,-267,-266,-264,-266,-261,-254,-248,-240,-232,-225,-215,-204,-193,-180,-169,-160,-148,-143,-141,-136,-119,-118,-117,-90,-121,-36,-42,-66,-79,-95,-109,-107,-102,-100,-96,-93,-91,-91,-86,-84,-78,-81,-69,84,245,284,2,-367,-393,-292,-149,-27,0,13,27,35,45,53,58,63,69,73,80,85,90,99,108,117,128,146,131,131,146,159,163,175,180,182,177,169,163,140,114,86,56,35,20,11,21,38,46
2019-05-31,10:44:25.716,-426,-413,-409,-411,-407,-404,-402,-398,-393,-388,-383,-379,-368,-358,-360,-338,-329,-317,-295,-282,-272,-253,-227,-220,-219,-224,-226,-238,-241,-241,-233,-229,-223,-215,-208,-199,-193,-184,-178,-180,-147,11,138,122,-189,-435,-421,-334,-214,-126,-118,-124,-112,-98,-97,-99,-99,-95,-92,-89,-80,-73,-65,-49,-48,-41,-37,-46,-16,-22,30,75,68,70,73,71,41,-11,54,60,39,-7,-24,-32,-42,-46,-48,-53,-63,-70,-81,-93,-84,-121,-97,-62,-50,-43,-51,-50,-15,50,34,16,9,-3,-26,-28,-8,2,9,21,33,33,19,14,-5,-28,-44,-51,-59,-61,-70,-80,-84,-87,-92,-94
2019-05-31,10:44:26.741,-865,-860,-768,-602,-516,-646,-1027,-1149,-1087,-1000,-849,-769,-734,-705,-677,-653,-636,-626,-617,-599,-596,-596,-564,-537,-523,-502,-469,-429,-392,-353,-302,-272,-259,-256,-230,-217,-213,-203,-204,-231,-229,-244,-265,-292,-322,-323,-292,-292,-292,-296,-292,-291,-286,-272,-263,-262,-257,-245,-240,-231,-216,-211,-205,-205,-197,-190,-182,-172,-164,-157,-148,-138,-127,-121,-110,-97,-76,-67,-73,-72,-80,-102,-109,-99,-89,-85,-80,-77,-81,-93,-94,-54,-46,-69,-46,103,257,263,-75,-404,-420,-331,-174,-58,-35,-20,-5,-7,-3,0,3,12,12,13,2,20,45,45,35,52,82,89,100,111,120,141,154,163
2019-05-31,10:44:27.765,-747,-728,-717,-713,-710,-720,-734,-748,-762,-772,-773,-775,-767,-757,-752,-736,-728,-713,-698,-689,-679,-677,-666,-625,-603,-583,-562,-539,-521,-502,-487,-498,-492,-428,-417,-421,-402,-391,-378,-352,-325,-306,-305,-298,-300,-306,-304,-297,-280,-274,-269,-248,-243,-258,-246,-236,-221,-228,-197,-5,141,152,-182,-520,-534,-432,-301,-185,-153,-176,-264,-370,-203,-95,-52,-32,-32,-13,2,13,25,29,39,44,52,63,71,83,92,101,115,134,148,157,154,160,163,155,140,122,113,112,102,103,103,103,102,103,98,99,94,101,106,104,119,119,118,120,124,124,141,137,138,134,133,131,122,137
2019-05-31,10:44:28.790,-503,-492,-468,-446,-432,-427,-419,-421,-434,-436,-430,-420,-418,-410,-410,-401,-390,-385,-384,-375,-377,-357,-204,-64,-45,-315,-624,-632,-546,-419,-314,-282,-271,-269,-266,-262,-260,-258,-255,-239,-235,-225,-216,-211,-202,-186,-183,-115,-98,-94,-82,-84,-66,-53,-47,-50,-64,-49,-28,-42,-66,-98,-128,-146,-161,-177,-188,-182,-184,-176,-167,-155,-161,-144,-142,-134,-124,-114,-133,-142,-65,-61,-92,-87,-82,-90,-95,-97,-104,-94,-78,-77,-64,-51,-30,-23,-27,-27,-40,-51,-61,-44,-46,-47,-49,-55,-62,-67,-69,-78,-83,-107,-58,101,256,227,-161,-397,-371,-253,-77,1,19,27,41,44,52,41
2019-05-31,10:44:29.815,-640,-610,-589,-584,-578,-559,-545,-540,-536,-509,-493,-467,-446,-429,-406,-392,-365,-332,-327,-328,-316,-317,-321,-332,-350,-368,-381,-392,-394,-392,-388,-390,-383,-374,-376,-368,-353,-346,-337,-330,-322,-308,-303,-295,-292,-284,-271,-265,-261,-259,-259,-254,-255,-257,-244,-246,-256,-236,-192,-174,-129,-139,-142,-154,-160,-157,-154,-160,-166,-164,-179,-182,-182,-184,-192,-168,-173,-39,137,216,9,-419,-498,-434,-295,-147,-102,-87,-71,-58,-49,-31,-26,-15,-2,9,6,19,29,39,47,55,67,76,89,100,111,125,143,160,161,164,163,158,146,128,105,81,57,36,22,10,0,-9,-15,-16,-16,-20
2019-05-31,10:44:30.839,-751,-738,-722,-705,-688,-668,-658,-641,-628,-614,-587,-577,-567,-561,-555,-546,-531,-520,-500,-491,-474,-468,-445,-429,-399,-379,-375,-371,-374,-385,-386,-380,-372,-363,-356,-354,-342,-331,-324,-317,-312,-310,-248,-65,50,3,-354,-569,-541,-432,-291,-215,-205,-192,-164,-153,-161,-150,-145,-151,-118,-108,-107,-107,-103,-103,-107,-108,-112,-113,-106,-75,-67,-64,-55,-50,-3,21,11,19,14,-5,-3,-15,-42,-58,-64,-58,-89,-98,-71,-65,-64,-66,-65,-57,-43,-41,-43,-49,-32,-4,-2,-10,13,32,27,13,19,21,35,30,48,91,108,110,101,99,89,81,70,69,78,74,64,52,48,44
2019-05-31,10:44:31.864,-377,-355,-334,-310,-234,-89,-5,-37,-371,-569,-571,-528,-520,-455,-346,-246,-233,-263,-245,-247,-248,-250,-242,-227,-204,-185,-176,-155,-127,-119,-123,-112,-101,-87,-75,-57,-41,-28,-22,-20,-15,-21,-34,-51,-76,-98,-110,-102,-107,-123,-135,-144,-158,-165,-173,-158,-123,-75,-18,4,-1,-29,-50,-66,-81,-96,-105,-97,-90,-72,-61,-49,-38,-35,-33,-26,-13,-7,-2,7,12,-5,-22,-32,-56,-82,-106,-77,-98,-70,-70,-45,-37,-35,-33,-29,-37,-27,147,306,307,-8,-349,-366,-271,-141,-46,-25,-10,-4,3,11,18,20,17,23,13,22,39,30,55,51,54,65,70,68,87,102
2019-05-31,10:44:32.888,120,127,135,146,155,160,155,145,138,110,82,53,33,19,9,-40,-262,-306,-61,60,135,168,158,105,59,37,17,8,1,-6,-2,5,10,9,14,0,-6,-27,-67,-89,-44,11,36,42,56,88,102,108,101,97,84,84,67,50,23,-9,-29,-38,-41,-56,-69,-91,-83,-58,80,194,-131,-370,-361,-257,-103,-24,-15,-1,14,24,26,30,37,44,49,52,56,62,61,64,67,73,77,92,105,111,124,124,133,139,134,119,99,85,86,79,41,33,20,16,7,5,0,4,-1,3,5,8,7,-22,-28,-11,-4,-10,-16,-14,-12,-6,-6,-8,-7,-2
2019-05-31,10:44:33.913,366,359,369,366,360,363,370,381,365,346,331,311,292,281,281,280,267,265,257,255,246,240,242,229,229,352,506,549,319,-69,-123,-70,39,147,175,177,181,180,179,172,161,152,142,129,122,120,130,131,141,152,163,172,187,200,209,221,230,230,220,217,208,197,179,156,130,101,78,58,46,32,25,19,12,10,7,7,7,8,11,14,14,15,18,12,9,12,12,15,13,12,10,16,24,30,32,39,38,26,10,-4,-26,-30,-40,-50,-62,-71,-68,-81,-82,-88,-94,-103,-122,-116,-4,129,158,-60,-369,-380,-310,-196,-83,-48,-35,-29,-28,-29
2019-05-31,10:44:34.938,531,520,516,512,502,500,496,490,483,471,469,472,478,477,483,492,496,503,510,502,497,492,484,463,429,403,371,338,308,294,286,275,266,265,262,254,249,248,248,238,236,235,229,226,219,206,195,187,185,174,167,146,128,111,105,102,107,121,132,138,141,131,123,104,91,89,77,70,48,44,57,30,38,35,14,7,-1,118,269,316,94,-293,-354,-277,-151,-39,-14,-1,-3,-4,0,2,4,0,3,11,13,17,18,22,28,36,46,49,62,72,89,102,116,123,129,135,135,127,115,94,64,41,18,-2,-17,-28,-42,-52,-59,-64,-72,-72
2019-05-31,10:44:35.962,582,568,548,528,508,532,511,492,491,515,493,520,504,491,481,476,468,465,458,442,439,440,435,420,399,383,350,327,313,301,294,284,277,271,268,261,252,251,237,212,268,437,549,469,48,-168,-160,-41,101,158,173,179,189,188,186,179,182,180,178,183,185,183,183,175,180,180,182,186,195,200,205,209,205,200,192,183,170,155,138,115,91,69,55,40,20,-7,-2,-7,13,24,17,15,17,8,5,0,-5,-9,-15,-18,-20,-24,-26,-28,-36,-37,-44,-37,-30,-22,-23,-15,3,14,8,-5,-10,-28,-45,-46,-53,-58,-57,-60,-61,-60,-59,-58
2019-05-31,10:44:36.987,564,558,543,597,748,840,734,347,175,202,307,415,452,456,450,435,419,402,393,380,377,372,374,368,362,357,351,353,340,352,347,324,370,399,383,388,379,372,363,351,337,314,280,252,224,202,186,173,161,154,147,141,135,131,122,114,114,114,109,111,105,108,106,99,92,89,90,89,85,80,87,90,91,98,107,111,97,90,75,49,32,25,17,9,1,-3,-9,-15,-26,-32,-36,-48,-38,68,170,168,-53,-306,-308,-247,-151,-73,-52,-48,-39,-25,-20,-14,-12,-3,-1,-2,-2,-4,-14,-12,-10,-5,-3,-3,1,21,29,31,43,58,60,63
2019-05-31,10:44:38.011,644,617,613,591,547,513,489,466,447,431,418,407,392,381,375,359,353,346,335,338,336,335,329,319,317,314,305,296,288,280,270,266,264,267,259,252,244,237,237,221,197,172,173,173,155,143,134,123,117,112,112,104,84,102,130,130,245,371,371,106,-206,-222,-144,-32,42,62,62,61,63,63,57,67,70,61,54,56,56,60,55,60,63,66,72,78,85,95,101,112,121,131,134,133,134,117,101,76,54,38,20,8,2,0,-6,-15,-20,-24,-22,-27,-27,-24,-21,-23,-18,-18,-16,-18,-19,-26,-33,-37,-38,-40,-46,-45,-45,-41,-29,-35
2019-05-31,10:44:39.036,490,512,511,514,497,476,431,421,428,402,396,389,371,367,351,335,325,311,306,293,337,502,614,525,126,-91,-60,61,193,229,238,240,237,236,235,233,235,231,230,226,228,239,231,229,236,236,234,239,250,252,259,270,276,277,279,264,255,240,218,192,163,134,107,75,48,59,37,-9,-46,17,24,30,9,25,28,28,30,23,30,20,21,17,16,-9,-8,-10,-14,-21,-27,-32,-28,-20,-16,-3,14,29,24,12,0,-18,-40,-38,-38,-43,-49,-50,-55,-53,-51,-52,-47,-54,-60,74,251,324,92,-336,-415,-324,-184,-57,-28,-16,-14,-16,-12,-5
2019-05-31,10:44:40.061,466,457,452,439,424,420,411,399,395,392,383,380,384,384,393,406,415,424,432,433,429,423,410,391,360,330,304,276,259,239,227,212,207,196,186,175,169,162,159,155,147,155,149,144,141,137,135,128,122,118,112,109,105,105,107,114,112,113,125,130,122,114,101,85,59,52,44,30,21,16,11,5,6,6,-11,-27,-28,72,205,233,37,-297,-339,-279,-184,-76,-40,-31,-28,-18,-6,-4,-2,-26,-3,10,-14,-4,-16,-13,-9,-9,-9,-2,6,18,27,42,55,62,64,69,72,77,64,45,36,6,-12,-35,-46,-50,-61,-69,-72,-81,-77,-77
2019-05-31,10:44:41.085,325,322,320,322,325,324,323,330,325,323,321,317,307,297,293,285,286,289,288,289,297,299,295,274,258,228,194,178,166,153,141,129,126,124,124,123,127,127,128,195,347,430,318,-55,-208,-175,-74,43,92,98,96,92,99,103,98,92,89,84,86,87,92,96,98,101,109,112,122,131,138,150,160,173,180,179,178,183,178,167,143,120,96,76,61,48,34,28,17,7,0,-4,-6,-8,-10,-16,-27,-31,-24,-22,-23,-31,-34,-35,-29,-22,-17,-14,-9,-13,-12,-27,0,13,-13,-10,19,16,11,-14,-27,-53,-64,-67,-69,-68,-65,-68,-77,-71
2019-05-31,10:44:42.110,255,254,257,246,277,440,570,533,166,-112,-113,-9,130,203,221,225,236,236,233,235,230,231,236,238,234,229,225,226,230,236,244,251,256,264,275,276,280,279,266,257,246,233,214,186,159,128,107,88,76,69,67,68,64,68,71,70,69,72,65,64,60,54,47,42,41,31,22,17,14,9,7,4,-3,-8,0,9,10,11,30,40,36,26,20,4,-12,-22,-18,-20,-31,-33,-32,-36,-32,-37,-38,-42,-58,24,193,272,149,-219,-345,-320,-224,-106,-76,-70,-58,-53,-52,-49,-38,-39,-40,-37,-33,-26,-21,-12,-2,1,9,26,19,30,40,43
2019-05-31,10:44:43.134,326,328,318,328,319,314,303,285,264,238,216,199,189,173,161,153,150,144,140,143,134,128,137,131,131,135,136,135,133,131,124,121,121,116,112,110,106,104,107,117,118,127,141,156,151,142,129,108,87,76,67,54,47,40,32,25,23,11,-2,-4,-13,47,190,270,169,-181,-320,-277,-161,-34,21,38,47,56,57,58,61,48,54,65,60,53,45,40,40,44,52,52,53,7,95,102,118,137,152,142,136,134,118,106,86,65,45,25,9,-1,-5,-6,-13,-9,-8,-8,-2,0,0,-2,-2,3,6,7,10,9,6,-4,-2,-9,-13,-21
2019-05-31,10:44:44.159,208,202,190,169,140,150,141,161,152,165,150,173,190,184,184,151,146,142,134,147,114,108,123,129,113,95,85,81,76,197,350,385,147,-230,-283,-200,-69,44,73,83,92,89,86,86,83,84,92,90,89,96,96,98,98,106,112,116,125,140,148,162,179,185,195,194,194,190,184,169,152,118,92,74,58,52,45,40,37,31,31,30,23,15,7,5,2,-4,-7,-14,-23,-35,-31,-39,-29,-32,-38,-13,-18,-12,-24,-24,-16,-22,28,-3,9,49,30,35,23,14,-5,-41,-71,-61,-57,-43,-62,-75,-65,-55,-41,-24,-41,-57,33,205,303,153
2019-05-31,10:44:45.184,-82,-247,-190,-46,104,136,144,148,154,160,158,160,157,162,168,168,169,169,177,179,181,194,199,205,209,221,231,237,250,249,248,239,225,213,181,147,123,74,39,25,21,32,15,31,22,28,32,36,37,34,36,36,28,19,26,30,-4,8,-8,-2,4,-2,3,-2,-3,6,0,-3,-4,20,12,31,48,32,26,11,-4,-20,-22,-22,-25,-30,-32,-33,-27,-33,-30,-31,-29,-44,42,209,295,169,-227,-355,-326,-220,-89,-42,-34,-23,-15,-10,-10,-2,11,19,25,36,32,31,32,25,21,21,24,27,34,42,44,58,79,70,68,93,75,69
2019-05-31,10:44:46.208,192,180,171,148,125,115,90,67,54,109,82,68,65,62,61,56,61,62,71,70,64,63,65,80,55,34,63,46,61,47,56,52,56,67,77,94,94,83,76,51,32,27,20,24,21,13,10,13,18,16,21,22,19,97,254,332,208,-166,-300,-266,-166,-51,-8,-2,8,15,-9,16,2,21,39,31,21,48,42,48,65,77,94,97,105,114,112,113,116,132,122,130,128,124,111,93,88,60,39,26,14,5,0,-9,-15,-22,-21,-23,-24,-23,-18,-9,-2,-2,0,10,16,19,20,17,12,15,16,13,13,15,24,26,31,35,45,55
2019-05-31,10:44:47.233,124,103,81,62,49,41,34,21,12,0,-6,-10,-13,-17,-27,-41,-42,103,254,276,3,-356,-388,-278,-149,-44,-15,-1,1,4,9,8,-35,-16,-14,3,-6,-1,-15,-4,-6,-11,-6,1,16,28,32,51,69,83,81,90,86,80,67,49,21,2,-19,-32,-43,-46,-47,-50,-49,-47,-42,-42,-39,-42,-44,-38,-35,-35,-35,-38,-39,-41,-46,-52,-53,-56,-57,-64,-73,-70,-61,-65,-74,-38,-2,-44,-15,-32,-56,-71,-55,-54,-54,-40,-43,-47,-46,-58,-35,-65,-80,-71,69,204,226,-47,-379,-399,-310,-182,-85,-33,-38,-23,-16,-11,-13,-10,-4,5,12,24
2019-05-31,10:44:48.257,-3,13,26,33,45,55,65,78,95,111,121,134,144,150,154,151,153,144,130,115,98,89,76,64,58,52,53,52,51,56,60,61,59,59,60,55,60,61,63,61,63,65,66,70,77,82,93,103,115,134,153,157,152,145,146,114,98,65,79,72,58,54,65,56,51,52,48,42,45,136,270,306,122,-213,-248,-197,-92,14,58,55,68,67,78,73,71,70,71,72,74,81,81,86,96,98,104,115,123,133,141,149,153,159,159,150,140,124,102,77,51,16,-48,-59,-97,-87,-69,-68,-90,-95,-95,-104,-102,-91,-103,-105,-43,-101,-63,-47
2019-05-31,10:44:49.282,-535,-532,-538,-543,-538,-538,-531,-509,-504,-497,-481,-461,-451,-456,-452,-454,-464,-469,-469,-463,-464,-462,-459,-456,-457,-456,-447,-442,-451,-412,-248,-116,-143,-486,-738,-714,-597,-456,-383,-357,-345,-335,-322,-312,-306,-302,-296,-298,-301,-268,-253,-252,-252,-241,-232,-216,-217,-210,-194,-179,-161,-146,-134,-128,-176,-159,-98,-86,-126,-141,-152,-167,-170,-175,-176,-204,-137,-172,-206,-88,-116,-125,-124,-114,-109,-108,-99,-95,-97,-94,-118,-83,-52,-67,-51,-42,-37,-14,-5,13,4,23,14,-3,-8,-27,-21,-6,-12,-12,-11,-10,-11,0,5,3,-7,73,258,363,225,-218,-372,-309,-180,-36,7,17
2019-05-31,10:44:50.307,-1060,-1050,-1043,-1026,-1025,-1028,-977,-953,-944,-950,-911,-881,-887,-854,-794,-734,-728,-676,-642,-600,-571,-538,-526,-497,-483,-490,-468,-484,-509,-522,-536,-531,-532,-528,-521,-507,-496,-482,-464,-453,-434,-423,-416,-396,-373,-364,-357,-344,-331,-324,-312,-305,-316,-313,-236,-216,-223,-207,-154,-172,-146,-152,-172,-182,-181,-173,-166,-159,-155,-154,-151,-140,-134,-128,-127,-131,-55,114,207,108,-283,-444,-409,-299,-170,-121,-117,-119,-111,-110,-104,-88,-74,-65,-56,-42,-30,-21,-9,-3,3,7,15,17,17,11,2,10,6,-15,-2,18,-8,-26,-35,-63,-86,-96,-106,-90,-102,-110,-115,-112,-114,-112,-104,-98
2019-05-31,10:44:51.331,-1286,-1266,-1244,-1216,-1189,-1165,-1143,-1125,-1105,-1088,-1047,-991,-949,-923,-896,-869,-839,-809,-793,-775,-762,-760,-757,-742,-727,-741,-706,-697,-696,-695,-664,-666,-642,-567,-574,-426,-280,-268,-532,-799,-780,-726,-608,-462,-451,-446,-435,-432,-415,-389,-368,-351,-329,-310,-290,-272,-256,-236,-212,-194,-170,-162,-144,-115,-96,-76,-55,-37,-19,-6,4,6,-6,-23,-35,-40,-42,-51,-49,-45,-36,-33,-25,-12,6,21,29,41,49,57,65,64,64,70,73,70,67,64,58,56,60,56,66,77,90,86,74,79,77,61,50,38,69,60,48,58,98,82,65,72,54,67,174,318,356,126,-234,-279
2019-05-31,10:44:52.356,-1266,-1142,-1029,-989,-960,-920,-908,-890,-871,-854,-830,-812,-802,-783,-769,-750,-731,-708,-685,-666,-633,-602,-575,-552,-518,-489,-465,-439,-423,-419,-407,-402,-409,-419,-433,-466,-482,-486,-480,-472,-469,-459,-450,-442,-438,-450,-451,-454,-431,-422,-418,-417,-402,-350,-349,-341,-329,-299,-282,-273,-253,-239,-233,-219,-206,-183,-181,-185,-187,-202,-206,-193,-188,-184,-180,-169,-162,-150,-150,-142,-128,-132,-127,-31,141,236,110,-307,-442,-386,-266,-117,-65,-46,-30,-17,-2,6,21,28,40,56,59,73,82,95,102,112,113,130,141,154,169,182,194,202,207,209,199,191,177,156,131,107,80,66,52,42
2019-05-31,10:44:53.380,-768,-765,-749,-740,-722,-719,-690,-686,-673,-658,-640,-650,-643,-590,-579,-583,-590,-582,-580,-565,-556,-547,-520,-506,-494,-476,-448,-421,-418,-412,-411,-417,-424,-417,-410,-405,-394,-383,-380,-371,-358,-347,-338,-334,-315,-172,-10,37,-205,-565,-597,-497,-367,-257,-220,-205,-192,-174,-171,-164,-153,-144,-135,-132,-116,-113,-117,-113,-112,-108,-117,-68,-42,-59,-55,15,4,11,33,35,65,66,48,29,-4,4,-17,-41,-52,-56,-60,-57,-57,-52,-50,-43,-36,-34,-27,-19,-15,-8,0,7,10,10,12,13,13,9,16,22,28,34,49,63,69,61,57,50,34,24,28,27,27,22,22,22
2019-05-31,10:44:54.405,-340,-328,-320,-319,-316,-256,-105,-11,-87,-415,-555,-524,-432,-331,-279,-271,-259,-254,-249,-240,-236,-226,-208,-198,-189,-182,-170,-156,-139,-118,-103,-87,-70,-61,-50,-37,-23,-15,-2,3,0,-5,-5,-20,-44,-56,-75,-79,-86,-95,-95,-89,-87,-89,-82,-79,-76,-71,-56,-54,-54,-32,-27,-20,-14,-8,-5,-6,-5,-4,0,3,2,17,31,33,45,60,65,55,47,38,10,-5,-8,-14,-14,-24,-31,-39,-46,-47,-48,-50,-76,-66,87,214,203,78,-314,-355,-254,-127,-26,-4,0,3,6,1,7,-1,-1,0,1,1,4,19,26,40,47,65,74,84,100,111,119,134
2019-05-31,10:44:55.429,290,287,286,283,273,261,245,223,204,182,169,158,149,151,147,147,147,146,143,142,153,155,145,141,136,132,133,125,121,111,100,92,82,77,69,63,59,57,69,69,70,85,101,108,100,93,72,51,46,43,35,28,17,6,-4,14,11,-5,-2,-9,46,222,342,274,-134,-353,-328,-215,-66,8,15,19,24,27,29,29,32,34,32,36,45,46,49,55,58,63,68,82,98,111,125,135,144,146,144,143,131,116,101,79,52,27,5,-13,-30,-39,-44,-55,-65,-67,-79,-79,-90,-85,-51,-67,-33,-33,0,-13,-4,5,16,8,1,-2,-9,-15
2019-05-31,10:44:56.454,422,404,394,389,383,381,390,397,393,385,380,358,337,330,322,316,305,293,281,277,270,264,257,241,227,345,498,557,333,-68,-145,-88,38,168,201,209,216,222,223,225,223,219,212,211,210,205,203,203,201,199,199,200,195,200,199,206,209,202,199,195,189,181,170,157,135,117,95,86,76,66,61,53,45,36,32,31,25,21,23,16,7,0,-8,-14,-14,-15,-13,-17,-24,-25,-31,-35,-30,-22,-25,-29,-16,-7,-4,-11,-16,-31,-48,-58,-56,-54,-58,-58,-55,-57,-56,-57,-57,-53,-63,2,154,234,134,-221,-363,-344,-247,-138,-87,-78,-77,-80
2019-05-31,10:44:57.479,378,376,369,368,368,364,362,361,369,334,384,382,388,378,387,394,390,398,398,395,389,381,370,358,346,326,297,270,249,228,214,199,192,185,173,165,161,159,155,155,151,148,147,139,137,136,136,129,129,128,125,121,118,120,117,128,134,132,135,157,169,161,150,136,110,86,77,68,52,43,37,31,27,12,2,-9,-26,-26,100,241,263,9,-336,-363,-271,-139,-41,-15,-5,3,1,6,13,-8,18,18,7,13,6,3,14,15,18,24,39,48,57,71,85,94,102,102,102,87,86,76,66,30,-1,-2,-17,-36,-41,-44,-46,-50,-52,-47
2019-05-31,10:44:58.503,384,382,382,379,379,373,374,372,373,365,358,354,344,332,322,311,297,289,283,276,275,262,247,243,243,247,232,211,193,154,152,159,153,153,160,161,151,160,163,147,140,100,91,265,417,416,118,-227,-270,-183,-51,42,79,99,101,100,94,98,96,91,89,92,90,91,97,101,105,105,112,122,130,139,152,165,174,180,184,183,177,166,152,137,119,97,78,60,50,45,35,37,34,34,45,35,35,29,19,9,-1,-9,-12,-21,-25,-41,-50,-61,-84,-71,-61,-47,-43,-38,-31,-27,-11,-6,0,15,27,32,21,4,-8,-19,-43,-60,-64,-66
2019-05-31,10:44:59.528,321,315,305,299,295,293,298,288,324,469,566,526,189,-46,-34,52,172,237,248,246,247,247,249,247,243,242,240,238,235,236,232,232,237,235,234,237,238,240,238,241,239,236,234,225,216,205,182,155,132,106,71,92,66,61,41,47,55,59,42,37,38,36,31,27,40,34,25,19,21,15,14,26,24,8,10,9,12,20,22,21,30,38,36,29,21,0,-16,-23,-29,-31,-35,-37,-37,-41,-41,-37,-34,-37,-41,22,174,260,154,-198,-332,-300,-195,-79,-23,-10,-4,0,1,3,1,2,3,1,3,0,-10,-15,-16,-16,-12,-8,3,19
2019-05-31,10:45:00.552,397,400,399,406,399,405,433,412,411,388,360,324,258,316,286,252,237,229,210,197,186,172,177,157,167,146,188,173,165,165,178,161,161,155,154,135,136,126,125,127,119,132,135,140,155,168,166,158,147,134,114,90,89,83,75,74,69,65,62,54,44,35,16,67,218,322,249,-141,-366,-340,-230,-100,-41,-44,-60,-34,-32,14,-13,11,8,21,28,26,32,42,43,43,46,39,44,51,53,59,69,65,75,78,78,73,72,65,42,21,1,-15,-30,-40,-46,-55,-61,-60,-57,-58,-58,-56,-51,-46,-42,-37,-29,-30,-27,-16,-12,-10,-9,-9
2019-05-31,10:45:01.577,388,382,375,368,366,367,373,363,363,372,374,366,352,327,296,270,249,235,219,204,196,181,171,168,161,163,169,163,194,358,490,461,105,-178,-171,-62,66,131,143,127,143,140,127,119,114,107,105,109,98,128,105,113,143,141,138,144,152,158,166,180,188,188,187,188,183,173,155,133,108,88,71,55,47,32,32,24,22,21,21,17,11,9,11,12,12,13,10,0,-12,-27,-32,-32,-42,-45,-55,-60,-63,-60,-54,-57,-46,-4,-6,11,3,0,-7,-33,-49,-60,-71,-76,-74,-77,-81,-83,-89,-81,-86,-89,-59,75,188,176,-95,-351,-345,-277
2019-05-31,10:45:02.602,174,258,272,272,270,269,268,270,269,267,262,264,260,264,263,265,268,268,278,287,293,299,309,315,323,326,326,322,312,295,273,249,220,198,171,157,139,127,117,100,87,75,69,62,57,59,57,60,67,71,69,68,78,82,85,91,88,80,80,73,72,71,69,64,79,75,61,47,33,24,7,3,-5,-23,-3,-6,-13,-9,-12,-10,-10,-16,11,156,275,245,-88,-346,-329,-231,-101,-32,-13,0,10,15,16,20,25,26,33,36,37,31,36,33,31,31,36,43,46,43,50,59,66,63,61,77,61,46,39,20,4,-40,-18,-15,-27,-36
2019-05-31,10:45:03.626,268,254,242,233,227,214,209,202,196,191,184,182,181,176,180,182,176,172,169,171,165,159,155,159,168,166,170,185,198,184,170,157,137,118,113,107,107,104,96,96,93,95,93,88,82,61,167,340,418,225,-203,-312,-244,-131,-9,13,20,24,24,22,24,27,31,34,40,48,51,61,68,64,70,105,110,110,117,133,144,151,146,147,140,132,122,106,87,67,43,34,12,-3,-5,-10,-12,-17,-24,-22,-23,-24,-23,-19,-18,-16,-8,-8,-7,-5,-1,-2,-3,2,0,-4,0,-3,-8,4,5,2,7,22,25,14,0,-13,-31,-52,-56,-60
2019-05-31,10:45:04.651,193,196,206,191,177,173,164,142,168,206,339,502,526,213,-150,-187,-102,28,133,150,153,148,144,141,139,133,133,135,145,147,156,162,164,168,172,172,178,186,195,208,217,225,228,225,221,220,207,193,173,146,122,103,94,89,81,76,77,73,71,72,74,73,70,70,67,69,67,67,58,60,58,54,54,46,32,24,20,23,21,19,21,32,44,40,32,27,12,5,8,7,7,9,10,0,-5,-4,-9,-13,-25,-18,94,221,238,14,-297,-320,-260,-158,-57,-30,-19,-7,-4,-2,-1,-6,-2,1,3,4,7,9,18,25,34,39,45,59
2019-05-31,10:45:05.675,249,260,269,274,277,278,277,266,258,240,210,184,158,132,114,99,82,72,64,54,44,42,33,32,35,37,39,43,51,57,56,56,52,47,43,37,29,28,26,22,26,25,32,40,21,5,-9,-11,-32,-38,-40,-41,-41,-44,-44,-43,-43,-46,-48,-58,15,169,265,148,-229,-369,-331,-226,-101,-53,-48,-45,-39,-35,-30,-26,-13,-11,-2,1,5,12,20,36,40,45,53,57,64,72,81,90,94,97,93,83,75,61,38,5,-16,-39,-58,-67,-72,-72,-66,-58,-50,-41,-33,-29,-21,-16,-13,-9,-9,-12,-8,-13,-16,-21,-36,-31,-26,-30,-33,-36
2019-05-31,10:45:06.700,20,30,30,46,65,76,70,67,57,35,20,16,17,10,15,11,14,16,18,20,23,21,29,171,329,362,88,-292,-325,-229,-95,-6,9,15,14,16,18,18,22,16,8,1,-2,-3,-1,10,14,27,26,37,25,83,128,118,146,159,169,179,167,167,139,100,96,54,33,6,-5,-15,-19,-24,-24,-24,-21,-18,-14,-9,-2,-5,-1,0,4,3,7,6,9,8,7,-1,3,11,25,26,35,53,68,63,46,48,35,18,18,6,8,7,2,0,-5,-7,-9,-8,-10,-19,60,214,285,150,-232,-353,-312,-205,-84,-51,-43,-34,-25,-15,-8,-4
2019-05-31,10:45:07.725,-81,-75,-68,-63,-58,-53,-52,-45,-16,-28,-23,-12,-8,-2,9,19,25,30,34,41,40,28,13,-9,-30,-40,-54,-69,-70,-80,-80,-88,-83,-85,-86,-86,-80,-76,-68,-64,-60,-59,-59,-52,-52,-46,-51,-51,-47,-47,-46,-34,-38,-37,-30,-18,-17,-32,-40,-55,-70,-82,-82,-89,-94,-102,-106,-103,-95,-86,-94,-61,-74,-32,115,213,149,-175,-375,-350,-258,-147,-85,-66,-54,-54,-44,-40,-33,-30,-26,-20,-6,-11,-5,5,9,12,14,23,31,40,55,72,86,94,98,98,101,99,78,60,44,26,7,0,-8,-16,-17,-18,-19,-23,-20,-18,-16,-8,-7,-1
2019-05-31,10:45:08.749,-199,-199,-196,-192,-186,-182,-182,-177,-176,-176,-180,-181,-186,-188,-178,-174,-180,-170,-151,-142,-146,-140,-138,-147,-156,-151,-147,-139,-132,-133,-142,-133,-138,-134,-128,-133,-117,-6,145,174,-78,-428,-469,-385,-247,-127,-102,-91,-76,-72,-68,-61,-56,-47,-46,-43,-40,-33,-18,-5,6,25,37,48,59,73,90,114,125,132,136,140,144,127,109,88,61,37,11,-5,-14,-24,-30,-36,-46,-63,-70,-65,-68,-64,-62,-78,-90,-37,-51,-52,-45,-30,15,3,10,9,8,2,1,0,4,3,6,10,15,12,1,0,-13,-25,-28,-26,-19,-22,-21,-16,-15,-14,-20,-12,-15,-27
2019-05-31,10:45:09.774,-141,39,134,-4,-449,-587,-545,-416,-257,-199,-178,-159,-142,-130,-121,-118,-98,-90,-84,-77,-65,-61,-57,-51,-47,-41,-35,-25,-16,-9,0,9,11,13,15,10,5,-2,-17,-34,-53,-66,-81,-88,-89,-93,-93,-96,-90,-84,-90,-107,-80,-58,-74,-62,-92,-66,-75,-82,-86,-65,-67,-74,-71,-70,-68,-56,-51,-42,-30,-16,-10,-17,-18,-35,-46,-58,-59,-54,-57,-55,-50,-53,-53,-46,-41,-35,-42,-13,140,264,243,-82,-344,-336,-246,-132,-57,-43,-41,-42,-41,-43,-40,-38,-40,-37,-30,-25,-18,-19,-4,31,11,14,26,41,72,93,96,122,109,113,103,104,83,65
2019-05-31,10:45:10.798,-80,-101,-114,-126,-136,-143,-142,-146,-145,-139,-134,-127,-121,-118,-113,-106,-101,-104,-102,-100,-100,-94,-93,-91,-87,-89,-82,-71,-60,-47,-32,-19,-7,-5,-8,-17,-35,-41,-39,-39,-40,-44,-42,-41,-49,-47,-46,-47,-59,-23,121,206,137,-200,-387,-370,-272,-149,-74,-49,-34,-17,-6,-10,14,18,12,7,24,32,32,30,31,39,21,55,65,68,78,90,107,117,127,130,134,127,117,96,73,50,32,18,4,1,-2,-4,-5,-10,-8,-8,-3,4,9,12,20,19,26,37,34,33,35,36,31,26,25,18,21,10,18,24,10,9,17,27,17,0,-8,-2
2019-05-31,10:45:11.823,14,-27,-18,5,20,3,22,22,25,22,20,13,8,137,285,320,70,-307,-358,-284,-160,-44,-15,-1,14,18,21,24,25,29,35,40,43,45,51,56,58,65,73,87,101,115,126,140,153,161,171,172,172,169,155,138,116,91,68,49,37,27,23,19,17,17,10,4,-3,-9,-14,-24,-29,-35,-41,-49,-48,-47,-43,-37,-26,-19,-7,0,8,6,9,19,24,29,33,42,48,41,34,15,-8,-26,-35,-38,-41,-41,-36,-35,-32,-28,-29,-24,-35,-21,126,278,291,-13,-353,-375,-285,-145,-35,-14,-3,4,6,12,22,23,20,28,34,36,44,48
2019-05-31,10:45:12.848,196,197,201,196,198,205,206,210,210,210,215,211,206,203,194,180,164,143,120,93,41,97,100,77,63,74,64,55,52,48,51,51,49,48,47,43,46,50,45,43,42,49,43,47,42,39,40,49,43,44,54,62,60,52,41,29,10,3,4,0,7,8,0,0,0,-4,-5,-6,-7,69,220,296,179,-167,-278,-250,-161,-61,-24,-22,-19,-17,-18,-17,-11,-5,3,13,10,14,18,25,39,52,62,69,80,86,99,108,115,118,116,113,111,107,98,84,62,43,22,9,2,-3,-9,-13,-18,-23,-31,-37,-37,-30,-24,-19,-16,-11,-5,3
2019-05-31,10:45:13.872,159,157,160,160,161,151,149,147,146,152,158,163,165,169,178,174,160,143,111,79,63,56,48,42,41,39,43,46,39,28,25,-10,139,305,335,143,-222,-272,-177,-82,26,47,50,54,34,45,50,42,38,40,39,47,53,65,76,81,86,94,100,110,116,129,137,146,153,156,154,151,149,133,112,88,70,49,36,28,25,20,17,15,18,14,13,10,13,12,14,21,23,25,26,27,20,11,2,-8,-14,-17,-27,-35,-36,-39,-39,-30,-29,-15,-8,2,24,33,23,7,-8,-34,-59,-17,-19,-34,-32,-44,-44,-46,-44,-52,-56,-13,144,285
2019-05-31,10:45:14.897,436,68,-217,-203,-93,43,116,127,133,141,145,148,151,157,160,163,167,171,176,182,182,189,200,199,208,224,227,235,241,252,254,251,241,233,217,197,173,149,127,108,83,58,46,33,8,-8,7,26,-1,8,21,41,56,53,66,72,75,62,42,23,51,47,42,10,1,-5,-8,-17,-14,-5,4,15,28,45,57,50,43,29,14,0,-9,-9,-18,-21,-21,-23,-23,-27,-25,-20,-34,-10,157,297,290,-49,-347,-352,-251,-107,-21,-2,12,18,19,20,17,15,18,19,16,18,18,15,20,18,15,19,24,30,32,37,43,49,53,57,64,74
2019-05-31,10:45:15.921,305,293,279,259,241,227,211,200,189,178,171,167,159,149,137,136,135,130,130,126,125,122,126,119,119,114,109,112,109,104,101,105,108,112,118,127,133,123,112,107,87,76,75,74,70,61,60,58,57,59,59,58,46,57,185,297,285,5,-283,-292,-224,-116,-29,-9,-2,-1,1,7,19,21,16,37,18,41,44,44,36,46,77,71,71,81,81,92,101,107,112,108,106,99,91,78,61,46,31,7,-7,-15,-14,-24,-27,-29,-36,-36,-33,-31,-30,-29,-29,-22,-21,-19,-17,-12,-6,-2,0,3,8,5,8,6,7,7,7,20,28,30
2019-05-31,10:45:16.946,252,255,246,232,220,202,176,161,147,138,132,118,109,101,95,88,84,78,70,164,344,428,271,-131,-248,-182,-54,68,103,108,108,111,124,105,102,97,95,100,90,85,90,103,101,106,111,116,124,139,152,163,172,183,184,185,182,177,162,145,126,101,80,63,51,46,42,34,31,29,28,28,29,26,30,27,19,20,10,13,7,7,-2,-13,-21,-30,-35,-37,-38,-41,-41,-42,-54,-48,-31,-20,-4,14,34,43,36,38,25,0,-18,-21,-33,-41,-48,-55,-59,-60,-53,-51,-48,-57,8,189,300,234,-168,-375,-353,-247,-106,-36,-22,-10,-6,-5
2019-05-31,10:45:17.971,223,218,217,220,224,227,227,229,233,238,240,252,264,271,273,286,294,299,302,295,285,277,261,240,220,190,163,131,111,93,76,63,49,47,47,49,53,62,67,72,83,87,90,90,85,75,67,63,59,51,50,42,31,24,16,11,8,17,24,29,35,45,54,46,35,28,10,-2,-6,-11,-18,-20,-19,-19,-19,-19,-21,-16,-23,12,160,265,216,-112,-324,-310,-217,-104,-34,-22,-21,-21,-21,-22,-24,-28,-32,-32,-32,-34,-30,-23,-19,-8,0,17,27,36,46,57,75,70,95,88,89,70,60,39,21,-1,-21,-37,-48,-51,-56,-59,-62,-59
2019-05-31,10:45:18.995,148,145,146,144,146,147,152,153,149,144,151,147,147,145,139,135,125,120,119,117,121,132,139,149,156,167,163,150,147,136,114,112,112,104,94,86,81,74,72,70,66,56,61,171,302,323,89,-259,-308,-241,-131,-25,2,15,31,37,50,56,64,70,73,74,73,76,73,70,72,71,72,82,78,81,105,114,130,136,131,133,121,140,123,92,68,49,26,5,-1,-10,-16,-20,-23,-23,-18,-13,-13,-8,-7,1,1,5,7,9,11,20,23,21,18,13,4,3,-4,-9,-16,-23,-23,-17,-24,-29,-26,-18,-24,-34,-44,-64,-80,-85,-91,-64
2019-05-31,10:45:20.020,127,134,142,151,151,151,141,130,129,261,409,447,201,-201,-267,-201,-77,45,76,86,102,107,115,122,123,127,126,120,120,121,125,125,126,132,135,139,153,169,182,200,215,229,229,226,226,218,207,184,158,141,122,109,94,85,76,65,60,58,50,45,38,31,30,23,17,10,3,-2,-3,-7,-6,-10,-13,-8,-5,0,1,1,5,3,4,12,12,10,18,25,26,12,2,-7,-31,-41,-41,-45,-45,-44,-48,-45,-45,-43,-42,-47,-52,17,173,256,149,-218,-354,-321,-210,-91,-39,-26,-15,-14,-7,-8,-8,-8,-8,-6,-5,1,9,7,10,16
2019-05-31,10:45:21.044,180,182,186,186,196,205,209,210,213,205,201,191,184,167,148,131,110,93,83,74,67,45,40,46,63,49,47,37,40,47,43,38,39,46,47,44,42,45,42,40,37,37,33,35,35,39,43,52,56,47,39,29,14,6,3,-1,1,-1,-1,-6,-9,-10,-5,0,-9,33,186,295,246,-86,-284,-264,-164,-44,18,33,40,42,44,42,38,29,26,22,13,12,4,0,-7,-11,-5,2,19,40,65,88,112,132,136,143,145,144,131,108,85,60,37,20,3,-8,-24,-27,-33,-35,-35,-39,-33,-26,-23,-13,-11,-6,-7,-9,-14,-13,-16,-18
2019-05-31,10:45:22.069,92,92,89,87,89,85,89,89,98,106,114,127,140,144,145,135,125,106,95,90,82,77,68,61,57,52,51,42,29,3,46,207,320,262,-123,-361,-344,-238,-89,-22,-2,20,37,41,38,58,59,58,56,49,42,36,34,36,41,48,54,68,81,98,119,135,147,156,158,157,153,141,119,96,70,47,28,17,9,3,4,6,8,10,14,17,22,27,28,36,34,37,41,41,38,30,29,21,19,21,16,9,10,4,0,-5,-5,-2,-5,3,14,23,18,7,4,-11,-23,-28,-26,-23,-25,-25,-26,-25,-30,-31,-31,-37,-41,84,229,264
2019-05-31,10:45:23.094,120,-266,-319,-245,-117,1,29,40,45,46,53,56,62,68,66,64,63,68,71,74,85,90,100,109,121,136,146,159,168,172,176,173,165,158,141,125,95,79,58,40,29,19,9,0,-4,-8,-11,-17,-17,-16,-11,-10,-8,0,2,6,6,3,3,2,0,0,1,-4,-2,-10,-2,7,8,19,21,9,-2,-17,-26,-32,-29,-31,-28,-29,-29,-30,-23,-21,-23,-21,-29,25,164,254,179,-160,-301,-286,-200,-90,-32,-19,-13,-1,4,9,18,24,23,31,31,36,35,40,46,49,54,64,76,85,85,88,90,92,93,82,76,71,52,35,19,7
2019-05-31,10:45:24.118,54,50,48,53,53,49,51,49,46,43,38,37,40,34,37,35,29,26,26,23,21,21,16,13,15,19,26,28,33,36,41,35,31,25,15,0,-8,-9,-10,-5,-15,-16,-16,-15,-22,-17,-26,-9,100,207,208,-2,-238,-244,-199,-108,-32,-14,-14,-7,-14,-17,-26,-20,-20,-26,-30,-23,-16,-15,-8,-3,9,18,36,49,63,74,85,93,100,94,87,70,58,40,20,-5,-20,-32,-34,-39,-47,-51,-49,-49,-54,-52,-46,-47,-51,-45,-43,-34,-29,-32,-30,-27,-30,-29,-28,-28,-23,-11,-1,3,11,20,27,22,14,10,-2,-6,-4,-6,-8,-2
2019-05-31,10:45:25.143,41,40,39,36,36,27,21,62,179,256,188,-87,-224,-212,-140,-56,-10,3,15,20,32,42,45,51,56,59,62,61,65,67,67,70,73,79,87,96,109,120,131,144,145,152,150,151,140,121,99,76,63,51,40,36,35,35,34,41,36,41,45,51,53,57,63,67,71,79,82,83,81,86,83,81,78,76,79,78,85,85,88,89,98,92,81,81,63,44,36,35,42,47,44,41,42,47,45,40,33,29,98,240,326,198,-151,-267,-217,-115,-22,0,6,11,11,8,8,10,9,6,2,-4,-3,0,5,0,1,3,12,11,19,28
2019-05-31,10:45:26.167,-23,-14,-9,-13,-15,-16,-23,-37,-56,-78,-98,-118,-135,-142,-147,-150,-156,-161,-166,-167,-164,-167,-173,-179,-187,-194,-189,-192,-194,-205,-220,-227,-240,-248,-254,-262,-263,-265,-261,-256,-245,-228,-214,-193,-179,-158,-142,-138,-130,-139,-162,-172,-176,-174,-177,-172,-172,-180,-190,-199,-173,-168,-190,-191,-63,101,144,-86,-462,-508,-413,-289,-193,-167,-158,-151,-140,-129,-118,-102,-98,-85,-76,-62,-49,-37,-27,-8,10,29,40,59,72,89,102,117,130,139,150,158,155,136,106,81,61,52,43,33,31,26,27,31,35,51,84,87,105,107,117,121,118,118,125,125,113,108,113,106
2019-05-31,10:45:27.192,174,170,170,172,174,181,202,208,214,223,245,257,247,233,217,196,172,159,153,146,133,123,125,125,120,115,114,110,100,223,395,467,261,-166,-254,-173,-39,71,90,93,92,88,89,90,85,82,84,81,74,71,73,72,77,83,90,100,120,135,146,157,175,188,194,197,190,178,170,126,134,85,59,47,27,22,14,10,11,0,7,15,18,25,31,33,35,37,47,46,49,46,46,48,46,46,40,40,36,36,41,52,56,57,70,80,75,53,38,-11,-37,-50,-51,-59,-65,-68,-74,-80,-86,-87,-86,-93,-111,-59,90,169,77,-286,-444,-412
2019-05-31,10:45:28.217,-386,-279,-211,-199,-191,-181,-180,-172,-163,-148,-164,-151,-155,-155,-147,-147,-144,-139,-135,-120,-109,-95,-81,-65,-45,-29,-26,-24,-20,-25,-28,-45,-67,-82,-97,-107,-117,-122,-132,-130,-128,-123,-117,-114,-114,-106,-97,-87,-81,-79,-78,-67,-63,-55,-52,-50,-46,-45,-45,-44,-47,-45,-44,-43,-41,-38,-34,-45,-60,-81,-99,-113,-113,-111,-112,-112,-112,-100,-87,-76,-63,-59,-55,-58,42,187,218,43,-296,-352,-312,-197,-90,-58,-54,-47,-47,-36,-27,-18,-14,-11,-6,-2,2,3,9,14,17,30,37,47,62,75,95,112,119,128,126,129,128,116,97,80,60,43,33,24
2019-05-31,10:45:29.241,-396,-397,-398,-389,-384,-383,-382,-377,-379,-373,-364,-364,-355,-361,-361,-356,-353,-347,-341,-335,-340,-345,-322,-312,-320,-285,-254,-261,-243,-233,-216,-197,-181,-177,-185,-188,-195,-219,-225,-224,-227,-223,-217,-205,-198,-187,-177,-173,-159,-168,-106,62,176,115,-270,-477,-450,-337,-193,-127,-106,-90,-77,-70,-59,-51,-44,-34,-25,-14,-7,-5,8,22,35,39,44,53,62,78,93,102,113,113,114,109,99,86,61,37,16,-6,-20,-33,-37,-38,-38,-35,-27,-22,-6,-4,-2,-19,5,8,-16,14,21,1,4,-1,-4,-5,-6,-7,-5,-2,-1,-4,-1,7,20,25,32,50,64,65
2019-05-31,10:45:30.266,-355,-351,-363,-380,-379,-376,-370,-364,-359,-352,-346,-340,-336,-327,-317,-322,-256,-81,43,-22,-423,-632,-595,-468,-321,-263,-247,-238,-232,-223,-218,-211,-200,-193,-189,-191,-188,-180,-197,-199,-182,-161,-136,-64,-80,-56,-35,1,4,23,26,25,21,6,-13,-43,-70,-93,-108,-117,-129,-131,-122,-122,-115,-108,-99,-92,-86,-81,-76,-69,-72,-69,-68,-64,-66,-67,-64,-59,-57,-55,-56,-53,-47,-42,-33,-26,-13,-9,4,23,37,42,30,28,15,0,-8,-5,-9,-10,-18,-19,-26,-35,-48,-58,-62,-75,-34,113,206,157,-164,-348,-340,-245,-122,-45,-21,-3,10,17,18,22,20,25
2019-05-31,10:45:31.290,-314,-316,-319,-314,-313,-300,-286,-273,-260,-244,-224,-208,-180,-162,-148,-137,-135,-134,-135,-145,-159,-178,-199,-208,-220,-228,-228,-224,-219,-216,-206,-202,-197,-194,-182,-173,-163,-157,-146,-138,-130,-122,-117,-114,-107,-107,-107,-105,-109,-115,-127,-128,-131,-122,-115,-112,-98,-79,-63,-65,-66,-66,-87,-102,-101,-89,-74,-73,-68,-68,-31,-47,-73,-37,-54,-59,62,215,238,2,-350,-390,-311,-183,-71,-37,-19,-9,2,2,9,1,4,8,14,24,22,30,37,45,57,65,77,94,111,128,144,159,170,179,184,180,179,165,141,112,91,69,57,46,40,35,25,27,23,7,6,5
2019-05-31,10:45:32.315,-180,-187,-191,-190,-195,-193,-192,-185,-178,-167,-159,-149,-137,-128,-123,-130,-122,-109,-113,-104,-104,-89,-86,-90,-81,-58,-64,-65,-70,-84,-97,-109,-104,-105,-101,-99,-99,-98,-100,-99,-91,-101,-107,-43,125,242,174,-220,-423,-397,-271,-121,-58,-39,-25,-15,-7,-7,-9,-3,10,14,16,21,20,27,30,32,36,42,55,65,77,92,108,117,115,108,102,88,71,41,41,17,2,-18,0,-2,0,-12,-13,-6,-17,-16,-15,-22,-27,-28,-26,-30,-27,-28,-20,-14,-16,-13,-9,-9,-5,-3,-5,-8,-12,-15,-9,3,2,9,27,37,31,27,21,9,-4,-4,-3,-5
2019-05-31,10:45:33.339,-85,-89,-86,-84,-75,-73,-67,-67,-74,25,189,262,100,-289,-381,-330,-220,-105,-70,-65,-61,-62,-63,-63,-67,-66,-66,-66,-65,-65,-60,-52,-37,-24,-8,13,27,44,58,74,81,87,93,89,86,74,46,21,-1,-21,-34,-51,-59,-62,-71,-72,-68,-65,-65,-62,-55,-47,-46,-42,-36,-35,-34,-30,-30,-25,-27,-23,-23,-22,-22,-17,-13,-8,1,8,10,24,38,43,38,30,20,-3,-23,-37,-43,-51,-57,-55,-62,-64,-61,-59,-59,-58,-54,53,199,238,43,-318,-389,-329,-184,-63,-18,-3,0,0,-5,-3,-17,-7,-5,-2,-6,-4,2,6,16,27,38,52
2019-05-31,10:45:34.364,22,37,56,68,88,97,102,101,100,94,81,55,31,8,-7,-15,-21,-24,-28,-31,-30,-25,-28,-25,-22,-14,-3,-1,-4,-1,-4,0,-1,-2,-4,-11,-17,-15,-25,-36,-42,-47,-55,-60,-64,-59,-58,-52,-40,-18,-4,-5,-2,-7,-27,-35,-31,-36,-38,-40,-43,-41,-44,-51,-65,-65,-55,-31,119,259,240,-103,-393,-391,-291,-151,-66,-44,-42,-31,-23,-28,-21,-20,-22,-16,-6,1,5,13,24,26,40,50,63,78,91,106,116,128,140,141,143,138,123,99,80,49,20,1,-13,-25,-32,-44,-56,-64,-73,-80,-76,-81,-78,-74,-79,-59,-45,-40,-33,-11
2019-05-31,10:45:35.389,15,30,9,3,3,4,-3,-13,-33,-10,-22,-1,-2,2,16,29,25,24,17,0,-11,-8,-9,-14,-17,-23,-22,-23,-22,-22,-20,-34,-4,175,312,295,-70,-359,-356,-248,-95,-8,6,17,28,37,46,47,48,49,50,53,52,50,56,52,57,64,63,70,76,79,85,96,99,103,99,97,88,82,70,54,37,26,12,1,6,0,-14,-23,-8,-28,-6,-6,-11,-27,-27,-29,-32,-34,-31,-29,-29,-35,-23,-58,-12,-44,-24,-43,33,-13,-8,-2,14,23,30,20,12,-5,-21,-24,-26,-34,-27,-32,-31,-33,-27,-25,-28,-27,-28,40,194,287,194,-175
2019-05-31,10:45:36.413,-303,-278,-184,-73,-22,-13,-12,-15,-7,-12,-13,-11,-7,-9,-18,-34,0,22,39,31,38,45,58,85,105,128,151,155,160,155,137,135,93,68,60,27,0,-16,-25,-34,-37,-41,-33,-38,-42,-40,-38,-29,-25,-25,-25,-16,-17,-12,-12,-13,-15,-18,-13,-11,-10,-12,-9,0,13,21,28,40,60,68,59,53,45,29,16,13,9,1,-4,-8,-13,-16,-15,-16,-22,-34,0,150,262,215,-133,-381,-375,-272,-143,-83,-59,-43,-27,-14,-1,12,17,18,27,21,52,18,33,70,54,52,55,64,68,78,93,108,121,127,130,132,130,116,96,74,48,25
2019-05-31,10:45:37.438,49,34,26,19,11,11,12,11,11,15,17,19,22,27,31,38,47,48,46,48,47,44,48,44,36,33,27,27,25,27,29,29,43,55,35,24,11,-14,-36,-38,-36,-47,-50,-57,-61,-60,-57,-61,-36,-21,-51,56,226,321,167,-262,-406,-360,-240,-98,-55,-44,-33,-25,-21,-15,-7,0,4,10,17,17,23,24,34,39,40,52,58,71,84,101,120,130,142,146,151,149,134,112,87,66,46,27,17,16,11,10,11,7,7,2,1,-2,-2,1,-1,-5,-9,-18,-17,-23,-25,-30,-47,-54,-58,-63,-65,-67,-57,-45,-30,-8,16,39,40,42
2019-05-31,10:45:38.462,136,119,104,87,86,78,71,66,54,42,33,29,26,28,27,115,258,308,141,-215,-286,-236,-140,-25,14,24,30,36,40,42,42,41,43,46,50,57,67,73,81,88,97,109,122,137,144,155,159,169,168,162,147,129,110,79,49,18,-2,-16,-23,-27,-32,-31,-31,-41,-44,-42,-34,-25,-16,-16,-7,21,14,-2,-8,-18,-10,-22,-19,-33,-31,-34,-39,-42,-27,-15,-16,-10,8,23,18,4,-5,-21,-35,-37,-39,-43,-45,-47,-47,-48,-51,-55,-50,-58,-56,71,235,296,77,-313,-375,-298,-161,-48,-15,-1,5,6,7,4,3,0,3,2,1,0
2019-05-31,10:45:39.487,70,66,68,72,72,78,83,93,99,112,117,128,132,139,143,142,127,108,88,65,70,48,43,34,-1,21,-10,30,4,0,-8,-11,-16,-13,-11,3,-3,-2,-19,-18,0,0,15,0,1,-10,-12,-8,-1,1,16,18,27,35,49,55,47,38,28,11,4,0,-8,-3,-5,-6,-4,-10,-13,-15,-17,-34,-23,145,294,303,-40,-383,-408,-319,-186,-83,-57,-46,-40,-31,-37,-30,-13,-8,-2,-7,20,20,16,38,34,36,46,46,68,77,64,75,119,103,84,136,119,93,101,73,32,17,34,10,3,-7,-15,-15,-19,-17,-20,-13,-14,-15,0,-9
2019-05-31,10:45:40.512,105,109,102,97,97,102,100,101,103,106,95,95,92,91,86,87,92,94,91,100,114,122,112,105,88,72,64,64,60,48,40,33,28,21,17,18,16,2,29,196,326,315,-25,-320,-328,-233,-103,-7,15,23,30,36,41,39,31,35,29,29,28,19,24,39,44,47,60,73,83,90,113,129,133,134,132,126,115,102,87,60,36,15,-1,-13,-15,-24,-24,-18,-21,-23,-29,-31,-28,-26,-21,-13,-4,2,6,3,-1,-20,-34,-39,-42,-45,-50,-43,-42,-42,-41,-39,-32,-19,0,7,6,-15,7,5,-22,-27,-33,-16,-23,-41,-43,-42,-43,-45
2019-05-31,10:45:41.536,108,98,130,285,393,358,13,-209,-207,-122,-5,75,87,92,96,92,96,100,98,98,102,104,103,103,108,113,122,129,141,154,164,179,192,209,219,216,215,213,211,191,176,148,126,107,87,75,64,50,38,28,22,13,14,11,8,9,9,11,15,21,25,21,27,23,23,23,23,23,21,19,18,16,16,9,7,14,19,21,31,46,46,39,35,24,4,-11,-15,-23,-29,-32,-36,-43,-41,-33,-38,-33,-50,4,187,318,274,-141,-385,-368,-259,-105,-38,-24,-14,-10,-10,-3,0,5,5,13,12,14,21,20,12,12,10,6,12,26,29,21
2019-05-31,10:45:42.561,233,289,284,277,285,285,290,260,205,211,153,153,122,99,89,77,72,68,64,65,70,74,78,81,84,85,86,78,69,68,69,61,52,49,46,39,34,36,33,34,38,53,52,58,76,90,91,88,84,69,45,36,39,33,27,22,20,10,5,-3,-8,-16,-37,12,174,267,207,-174,-377,-366,-272,-146,-79,-65,-57,-52,-51,-45,-31,-22,-14,-9,-2,0,6,8,12,18,20,20,26,33,43,51,65,71,74,75,73,71,56,34,16,-4,-25,-41,-61,-72,-76,-79,-82,-82,-77,-76,-78,-77,-74,-68,-65,-59,-57,-56,-48,-47,-45,-48,-51,-50
2019-05-31,10:45:43.585,65,57,49,46,40,43,39,35,50,62,64,57,53,46,33,3,8,8,30,26,14,6,-15,-1,20,7,-11,52,197,279,191,-154,-311,-286,-189,-71,-1,11,16,26,28,26,27,32,32,35,39,40,33,40,49,50,55,65,84,97,109,124,137,152,164,170,163,164,159,135,109,86,60,40,24,12,-13,0,10,0,-14,-17,-20,-19,-25,-27,-20,-30,-23,-12,-31,-27,-22,-25,-45,-9,23,10,17,-2,4,-7,-11,8,36,31,33,49,43,31,21,8,-15,-31,-30,-35,-32,-35,-33,-32,-31,-32,-29,-30,-48,19,206,301,218,-202,-414,-413
2019-05-31,10:45:44.610,-326,-47,-65,-136,62,-111,25,98,83,26,63,72,19,-41,27,140,86,69,50,44,46,52,77,72,51,108,70,128,91,162,178,122,87,63,35,12,-12,-42,-4,-16,-22,-27,-34,-32,-28,-39,-42,-42,-16,-44,0,-9,-5,-15,-19,-26,-31,-43,-6,-14,-11,-17,-20,-14,-9,5,-3,-5,15,40,37,27,18,0,3,-3,0,-1,-54,5,-15,13,7,-5,-12,-28,-27,86,217,242,21,-327,-373,-299,-188,-85,-51,-36,-29,-19,-28,6,16,-2,5,19,24,30,41,53,57,43,49,60,63,69,58,91,102,101,116,104,94,97,82,73,55,38
2019-05-31,10:45:45.635,-15,-32,-49,-54,-56,-53,-49,-49,-44,-43,-43,-41,-40,-30,-21,-16,-12,-10,-11,-13,-15,-18,-31,-38,-52,-56,-66,-75,-62,-70,-69,-63,-52,-46,-77,-47,-61,-85,-78,-46,-61,-61,-67,-64,-72,-66,-54,-60,-62,-75,-20,126,204,113,-217,-361,-336,-244,-126,-55,-48,-40,-26,-25,-22,-25,-20,-18,-8,-11,-6,-1,1,2,12,17,25,43,61,83,91,111,121,129,129,131,128,116,96,74,46,19,1,-15,-24,-21,-24,-31,-29,-31,-32,-30,-24,-26,-29,-29,-23,-27,-22,-19,-18,-16,-17,-17,-18,-12,-13,-11,-9,-11,-34,-28,-10,-16,-8,-13,18,15
2019-05-31,10:45:46.659,0,-7,-1,-19,-39,-38,-37,-45,-47,-46,-49,-58,-58,-54,-57,-59,-51,86,234,267,9,-347,-380,-290,-157,-34,0,7,23,30,37,38,44,42,39,38,39,38,34,38,44,53,52,45,46,57,64,77,92,103,85,61,71,81,53,41,11,76,34,13,27,-2,-3,-3,-13,-19,-24,-33,-34,-30,-43,-42,-35,-36,-31,-28,-26,-25,-25,-26,-27,-26,-32,-36,-32,-21,-28,-29,-14,-8,1,2,24,34,21,24,13,0,-6,-8,-10,-12,-13,-15,-10,-9,-16,-15,-17,-29,6,184,299,257,-114,-377,-374,-266,-124,-50,-42,-45,-47,-61,-58,-62,-65,-57
2019-05-31,10:45:47.684,-31,-14,-2,8,22,41,57,78,92,112,121,137,145,153,149,148,144,132,125,113,89,65,42,25,14,3,-6,-7,-17,-16,-15,-15,-12,-14,-9,0,2,3,6,5,9,17,15,11,18,21,25,21,18,23,23,21,22,31,32,35,48,65,55,44,31,-3,-28,-40,-49,-54,-57,-59,-60,-54,-64,-71,-71,-69,-76,23,208,312,201,-219,-373,-354,-239,-106,-57,-50,-46,-44,-44,-42,-35,-34,-33,-27,-20,-14,-6,4,16,27,37,46,57,68,82,94,109,115,116,118,115,112,104,90,69,49,32,21,20,10,-1,-6,-11,-11,-12,-14,-11,-8
2019-05-31,10:45:48.708,6,-1,-8,-18,-26,-31,-33,-36,-39,-38,-34,-33,-25,-16,-12,-6,3,13,28,51,50,37,27,9,-10,-22,-27,-28,-34,-36,-39,-43,-40,-40,-42,-41,-42,22,173,253,157,-191,-345,-320,-219,-108,-53,-37,-28,-22,-15,-9,-10,-4,-1,3,8,19,27,32,39,45,50,56,62,65,72,83,93,106,113,119,127,124,109,84,61,40,10,-13,-29,-36,-42,-44,-49,-60,-69,-72,-66,-56,-50,-35,-15,0,12,27,39,38,37,26,13,4,-2,-9,-15,-20,-18,-16,-10,7,21,26,20,17,4,-8,-10,-13,-14,-14,-16,-15,-16,-19,-20,-19,-25,-42
2019-05-31,10:45:49.733,85,268,358,180,-246,-353,-302,-186,-57,-23,-16,-7,-1,5,11,18,19,22,22,22,15,15,18,9,15,23,31,40,53,71,81,95,101,106,116,127,134,131,114,95,69,46,30,19,6,-1,-5,-12,-10,-11,-14,-9,-8,-10,-4,1,2,3,4,6,5,3,-3,-4,-6,-14,-15,-16,-4,-4,4,25,44,51,38,31,19,0,-5,-13,-14,-19,-21,-26,-30,-30,-26,-31,-34,-54,-1,188,319,275,-154,-408,-410,-308,-154,-79,-64,-57,-45,-44,-54,-54,-51,-45,-33,-23,-10,-4,10,22,41,57,77,73,72,66,24,108,96,148,124,122,103,93
2019-05-31,10:45:50.758,115,96,78,61,48,26,30,29,29,20,23,15,8,7,5,6,5,10,15,17,10,15,26,26,28,27,0,-11,19,25,72,52,51,56,62,45,27,-13,-14,33,-1,6,4,-3,-6,-13,-26,-33,-39,-54,-59,-88,0,181,245,106,-240,-330,-297,-206,-89,-50,0,6,18,31,17,0,9,23,-2,20,22,13,13,21,25,24,27,60,88,98,109,117,123,121,78,83,100,141,98,56,30,17,-1,-4,-15,-16,-24,-22,-9,-10,-7,-8,-10,-4,-3,7,10,13,13,9,7,4,-2,-8,-10,-15,-16,-30,-2,11,4,-11,-40,-16,-36,-22
2019-05-31,10:45:51.782,23,-1,-10,-15,-8,-1,7,16,10,9,5,-4,47,191,285,199,-155,-366,-325,-192,-65,-18,-3,1,1,0,1,-9,40,31,25,30,27,24,30,33,36,42,39,77,107,100,117,126,135,135,135,141,141,130,111,87,60,42,23,12,3,-8,-15,-20,-14,-11,-22,-14,-26,-70,-85,-37,-6,-43,-51,-48,-40,-37,-33,-44,-73,-88,-86,-28,-38,-30,-17,-7,-33,-36,51,-13,23,16,-40,-51,-62,-76,-71,-75,-70,-79,-73,-55,-50,-72,-38,112,247,180,-235,-435,-418,-264,-146,-85,-72,-53,-48,-45,-71,3,8,-16,3,18,27,28,28,30,11,-17
2019-05-31,10:45:52.807,105,74,70,92,93,93,97,93,86,79,77,67,49,24,1,-13,-30,-40,-44,-48,-44,-42,-38,-32,-30,-24,-16,-8,-9,-11,-17,-18,-18,-20,-17,-18,-17,-18,-20,-24,-23,-18,-2,11,32,44,52,54,43,39,28,11,2,2,1,0,-5,-7,-6,-4,-1,-2,-3,-24,63,250,363,250,-181,-349,-324,-209,-64,-4,12,24,37,40,46,45,37,17,1,-4,-5,-12,-19,-19,-22,-19,-8,14,42,72,102,126,151,161,165,166,156,140,117,91,70,56,44,28,14,7,0,-1,-3,-5,-3,-2,8,18,19,22,25,33,32,33,31,29,26,20
2019-05-31,10:45:53.831,233,239,241,252,258,263,267,258,233,238,225,218,214,207,200,191,188,180,174,163,159,154,138,150,287,403,387,123,-175,-187,-123,-20,79,99,106,103,105,106,108,114,124,135,146,156,158,159,164,167,167,171,171,174,181,190,198,203,208,213,214,211,199,183,157,126,103,87,69,58,52,42,31,30,21,11,7,12,8,1,12,13,13,17,21,16,14,13,8,-1,-3,-6,-2,0,2,10,16,28,24,14,2,-16,-33,-52,-61,-77,-86,-98,-105,-110,-114,-118,-120,-131,-131,28,194,230,-54,-441,-478,-383,-245,-136,-108,-89,-82,-76,-69,-69
2019-05-31,10:45:54.856,90,94,92,93,88,91,89,87,90,100,104,112,127,140,153,169,180,190,196,196,189,176,156,128,99,76,53,39,29,24,23,20,22,19,15,26,29,37,41,43,47,47,49,40,39,38,38,38,37,31,21,10,1,6,13,8,19,24,20,11,4,2,-8,-8,2,9,16,12,7,-1,-6,-14,-25,-26,-43,-45,115,278,337,52,-343,-401,-329,-193,-65,-29,-26,-12,-6,-3,0,4,7,11,17,17,20,26,32,39,41,47,56,66,78,94,111,127,135,139,137,137,132,106,79,45,24,12,2,-5,-7,-11,-8,-10,-14,-18,-18,-24
2019-05-31,10:45:55.881,-48,-50,-62,-67,-76,-78,-79,-79,-84,-88,-85,-80,-84,-87,-72,-51,-32,-12,4,17,18,-2,-1,-20,-29,-36,-52,-60,-68,-77,-76,-76,-82,-74,-55,-64,-74,13,189,296,182,-216,-360,-337,-257,-113,-51,-40,-27,-14,-11,-12,-15,0,-1,0,8,3,11,16,25,36,50,60,76,81,82,92,96,105,101,106,101,90,77,58,35,17,8,-4,-10,-18,-19,-23,-28,-36,-40,-52,-46,-36,-31,-28,-30,-24,-24,-27,-27,-25,-25,-28,-24,-26,-27,-19,-21,-13,-11,-8,4,16,23,18,4,3,-9,-22,-24,-23,-23,-19,-22,-23,-22,-21,-21,-18,-32,-31
2019-05-31,10:45:56.905,-33,139,198,-74,-468,-514,-428,-293,-178,-146,-137,-132,-120,-111,-103,-99,-97,-95,-92,-93,-85,-84,-79,-73,-62,-51,-38,-23,-7,11,29,40,50,57,62,63,52,34,15,-12,-31,-46,-53,-57,-60,-62,-65,-59,-58,-56,-52,-54,-54,-56,-61,-61,-54,-51,-47,-46,-41,-40,-40,-39,-41,-36,-34,-37,-33,-23,-18,-9,-2,12,17,12,8,-1,-13,-16,-25,-38,-47,-57,-62,-66,-72,-78,-77,-80,-90,-26,147,244,163,-234,-422,-392,-269,-107,-26,-6,2,-1,-6,-7,-8,-15,-12,-15,-8,-9,-5,3,12,22,37,48,63,75,92,109,121,128,130,128,124,119
2019-05-31,10:45:57.930,-101,-119,-142,-159,-175,-182,-189,-194,-193,-192,-193,-194,-188,-191,-183,-175,-166,-158,-154,-152,-147,-143,-132,-129,-130,-136,-138,-130,-132,-137,-142,-136,-135,-131,-120,-119,-117,-128,-138,-141,-159,-165,-167,-162,-150,-128,-108,-95,-81,-70,-76,-81,-83,-60,73,182,155,-113,-364,-355,-287,-174,-83,-58,-46,-41,-37,-32,-25,-15,-19,-15,-16,-13,-8,-3,5,9,14,23,33,52,66,87,107,118,124,127,125,115,98,80,59,35,29,11,0,-2,-6,-10,-18,-20,-35,-48,-48,-48,-47,-46,-46,-43,-41,-46,-43,-33,-22,-17,-5,4,9,16,13,15,16,16,14,11,19,15
2019-05-31,10:45:58.954,-190,-202,-205,-219,-221,-214,-209,-204,-200,-193,-178,-173,-168,-161,-163,-171,-110,65,182,114,-281,-483,-460,-352,-206,-142,-118,-107,-100,-87,-81,-77,-73,-65,-54,-50,-43,-38,-28,-20,-14,-4,7,18,34,48,59,65,74,78,76,76,71,61,46,23,3,-6,-15,-22,-23,-25,-27,-30,-33,-31,-33,-36,-32,-28,-20,-18,-19,-9,-6,-7,-5,-4,-6,-11,-13,-22,-25,-29,-26,-17,-9,0,8,19,12,5,1,-15,-23,-23,-25,-22,-19,-20,-18,-15,-19,-23,-22,-29,-25,116,280,331,74,-333,-403,-309,-176,-62,-38,-33,-24,-25,-21,-17,-13,-8,-4,-9,-14,-8
2019-05-31,10:45:59.979,-141,-128,-114,-95,-73,-44,-18,7,21,34,38,41,44,39,29,16,-7,-31,-56,-76,-96,-107,-111,-110,-109,-108,-103,-100,-100,-97,-90,-87,-85,-76,-78,-76,-72,-70,-68,-71,-72,-72,-73,-68,-71,-70,-55,-53,-42,-32,-20,-13,-20,-23,-30,-38,-45,-46,-44,-45,-56,-62,-64,-68,-72,-75,-81,-93,-43,114,215,150,-195,-371,-346,-241,-118,-39,-19,-7,-2,0,1,0,5,5,0,0,6,7,6,10,15,23,34,42,49,65,84,95,102,110,111,106,98,82,62,41,17,4,-4,-15,-21,-19,-21,-19,-20,-19,-21,-22,-19,-18,-18,-16,-15,-14,-15,-13
2019-05-31,10:46:01.004,-106,-102,-106,-110,-112,-115,-117,-109,-107,-100,-91,-87,-95,-104,-103,-118,-129,-129,-127,-122,-110,-96,-85,-83,-78,-75,-76,-89,-68,71,192,180,-120,-395,-403,-320,-198,-112,-85,-68,-54,-51,-38,-34,-30,-24,-21,-17,-12,-10,-5,-4,2,6,17,27,41,55,66,85,101,113,119,120,118,111,96,73,45,25,12,0,-6,-8,-12,-15,-18,-24,-26,-25,-30,-35,-38,-45,-50,-49,-48,-42,-38,-32,-25,-21,-13,-2,8,14,26,32,30,35,44,46,34,25,17,1,-9,-11,-11,-19,-24,-28,-31,-30,-30,-27,-29,-36,-29,114,270,299,18,-350,-379,-282,-149,-46
2019-05-31,10:46:02.028,-73,-64,-54,-50,-43,-40,-35,-30,-23,-16,-11,-10,-3,-2,5,13,19,31,41,53,65,81,95,98,106,99,91,76,55,31,9,-14,-32,-43,-59,-75,-76,-71,-64,-57,-45,-34,-24,-16,-12,-10,-15,-13,-20,-23,-28,-31,-36,-41,-38,-40,-38,-25,-19,-17,-2,12,18,14,9,4,-12,-23,-25,-24,-29,-32,-31,-29,-25,-21,-25,-25,-33,-26,138,310,350,33,-343,-385,-296,-148,-35,-8,2,15,23,28,34,38,37,45,50,51,54,53,52,57,52,55,62,67,68,82,93,106,113,115,122,121,119,106,87,70,55,39,25,15,7,0,-2,3
2019-05-31,10:46:03.053,-36,-42,-41,-42,-46,-43,-42,-45,-42,-44,-45,-38,-37,-40,-43,-36,-27,-24,-24,-17,-9,-9,-15,-20,-35,-47,-43,-45,-47,-46,-48,-47,-54,-56,-55,-57,-57,-57,46,194,232,39,-313,-355,-303,-203,-95,-63,-54,-53,-52,-51,-51,-43,-42,-39,-37,-33,-27,-21,-13,-4,4,19,38,55,66,87,97,100,103,103,100,93,81,60,37,12,0,-15,-23,-27,-33,-34,-35,-34,-40,-38,-33,-32,-33,-31,-23,-26,-21,-16,-13,-16,-11,-10,-13,-6,-1,0,6,17,29,39,34,25,11,-3,-5,-5,-7,-7,-5,-6,-1,0,0,-4,-12,-24,69,212,274,116
2019-05-31,10:46:04.077,-264,-365,-320,-219,-103,-64,-50,-44,-36,-28,-14,-2,11,31,42,52,56,58,57,61,63,66,69,72,83,96,113,122,128,133,134,130,118,103,77,57,39,19,9,-4,-13,-19,-19,-20,-24,-25,-25,-27,-23,-23,-20,-16,-10,-8,-7,-3,0,-3,-6,-4,-5,-8,0,0,2,13,25,30,9,-10,-24,-47,-56,-60,-63,-63,-65,-70,-75,-84,-82,-78,-72,-73,-25,165,313,285,-91,-373,-372,-266,-130,-52,-37,-36,-35,-34,-32,-30,-24,-19,-14,-7,1,5,10,13,24,33,46,59,73,86,103,115,120,128,132,132,129,117,98,71,46,29,11,-1
2019-05-31,10:46:05.102,16,17,17,11,12,10,9,7,9,14,16,22,20,25,23,23,20,18,10,4,4,-6,-17,-22,-26,-18,-18,-12,2,11,18,12,12,7,1,7,11,15,9,-2,-8,-14,-15,-14,-22,-27,-44,36,202,290,168,-248,-398,-352,-236,-98,-46,-33,-22,-18,-17,-10,-5,-3,-2,2,8,8,16,19,25,28,34,41,55,67,85,100,111,123,128,128,122,116,97,77,49,23,2,-9,-23,-36,-42,-48,-52,-51,-59,-53,-53,-51,-50,-44,-33,-26,-21,-15,-11,-8,-6,-5,-11,-11,-15,-8,-5,-7,-5,4,11,3,-3,-8,-23,-29,-28,-29,-27,-26
2019-05-31,10:46:06.127,1,0,0,0,-2,-2,-10,9,149,268,253,-35,-293,-287,-215,-110,-28,-13,-2,4,15,18,25,31,33,35,38,40,45,48,50,49,56,62,73,87,104,122,138,148,150,147,144,128,116,95,59,31,14,0,-10,-20,-27,-33,-29,-30,-18,-12,-11,-5,-3,-1,1,-2,-1,-1,-3,-7,-12,-17,-19,-22,-24,-22,-16,-16,-11,-1,16,23,17,9,0,-19,-23,-26,-33,-32,-42,-49,-45,-41,-39,-42,-37,-42,13,188,298,227,-163,-386,-346,-225,-77,-22,-9,1,5,3,2,-5,-9,-7,-10,-10,-6,-4,-3,1,3,10,16,22,31,46,66,83
2019-05-31,10:46:07.151,178,194,201,208,204,187,161,134,107,77,54,43,29,22,16,7,4,11,8,9,10,18,23,17,26,30,34,38,33,30,26,23,27,28,24,22,16,26,38,43,61,71,87,87,76,66,55,38,35,39,37,34,25,21,18,14,13,5,-1,-4,117,268,314,99,-302,-381,-310,-189,-58,-28,-20,-14,-7,-5,2,8,27,33,41,42,49,51,53,58,59,60,68,77,84,96,106,111,118,120,119,113,109,94,74,53,35,18,2,-12,-19,-22,-28,-35,-40,-43,-37,-29,-30,-31,-26,-24,-24,-19,-22,-28,-23,-27,-33,-40,-43,-49,-50,-55
2019-05-31,10:46:08.176,38,42,53,54,57,52,64,75,61,40,33,12,1,1,-8,-20,-30,-42,-42,-21,-1,8,23,27,54,185,296,263,-22,-277,-280,-209,-111,-28,-7,-1,4,8,11,16,21,39,43,43,48,52,53,61,66,72,77,85,92,109,120,138,144,153,162,164,165,148,136,115,94,78,64,51,45,37,33,30,27,21,22,17,10,12,9,7,0,0,-6,-12,-18,-21,-13,-12,-3,-4,0,11,24,29,43,52,63,63,49,33,18,2,-4,-7,-14,-21,-24,-32,-31,-29,-30,-33,-32,-39,18,168,268,196,-179,-352,-352,-218,-98,-45,-52,-37,-31,-21
2019-05-31,10:46:09.200,42,46,58,50,45,26,18,-25,13,58,89,69,94,107,113,131,140,144,161,149,162,157,160,137,98,72,32,2,-20,-30,-43,-45,-45,-38,-38,-23,-26,-13,-6,0,3,-1,1,16,9,0,-2,-16,-9,-20,-20,-19,-21,-18,-19,-14,1,10,17,18,33,37,24,15,4,-11,-19,-14,-18,-24,-24,-27,-33,-19,-24,-22,-10,-36,67,250,369,234,-227,-377,-347,-230,-76,-13,-1,4,12,13,10,16,20,22,22,16,21,19,20,14,21,34,50,69,88,104,125,138,157,168,175,169,159,145,117,87,61,37,17,5,-3,-11,-28,-31,-12,-11
2019-05-31,10:46:10.225,88,88,87,83,84,84,81,82,73,69,73,69,65,64,64,63,60,59,51,56,69,68,78,92,101,101,97,89,73,53,47,47,39,32,34,35,32,15,-1,-12,-33,-17,156,289,289,-77,-389,-420,-342,-215,-93,-52,-20,0,15,35,40,45,47,45,39,37,29,30,31,33,44,58,72,91,102,119,136,141,148,154,152,144,131,111,80,52,27,1,-16,-26,-32,-28,-29,-30,-25,-26,-22,-20,-18,-17,-15,-9,-10,-6,1,8,13,12,11,12,10,6,-6,-13,-14,-18,-22,-17,-14,-16,-26,-34,-40,-43,-36,-23,-12,-4,0,1,-2,-1
2019-05-31,10:46:11.249,70,66,62,46,98,246,329,245,-115,-280,-258,-163,-53,9,25,29,33,34,31,32,32,32,35,37,48,52,57,57,60,69,79,86,102,114,127,136,149,148,140,129,118,103,85,59,36,18,1,-11,-20,-27,-31,-33,-33,-34,-37,-38,-34,-30,-22,-26,-30,-43,-38,-24,-2,16,27,27,24,10,5,7,3,3,6,10,11,3,-4,-11,-26,-37,-35,-37,-33,-32,-30,-28,-27,-24,-24,-20,-31,14,170,289,251,-90,-319,-310,-220,-90,-14,-6,-3,1,11,16,17,20,26,31,42,44,48,50,47,51,53,52,57,63,64,70,78,84,85,84
2019-05-31,10:46:12.274,150,148,145,143,134,126,116,107,94,85,72,59,52,47,45,44,38,34,35,34,32,40,40,38,40,39,38,30,23,23,12,9,16,24,26,32,39,48,45,34,28,14,2,0,-2,-7,-6,-8,-8,-6,-7,-6,-3,-2,-14,75,237,312,172,-237,-369,-308,-185,-53,-25,-18,-15,-15,-14,-16,-23,-19,-18,-13,-8,-8,-20,-23,-15,0,26,60,90,117,134,147,152,153,151,139,124,109,87,61,41,18,-4,-19,-31,-36,-41,-38,-31,-30,-27,-18,-18,-14,-11,-15,-10,-4,-4,3,2,7,0,-3,0,-4,-5,-7,-13,0,6,12,18,28
2019-05-31,10:46:13.299,133,128,119,121,101,90,85,78,77,71,62,53,41,41,32,28,14,13,172,327,368,73,-296,-330,-234,-90,27,53,61,63,57,62,60,59,59,62,62,65,62,61,63,64,68,75,90,97,103,119,135,144,143,139,138,132,124,108,76,56,34,16,2,-3,-13,-11,-22,-29,-29,-32,-25,-29,-27,-18,-18,-19,-17,-13,-7,-11,-21,-29,-36,-37,-37,-43,-45,-41,-37,-38,-27,-20,-13,-19,-22,-20,-26,-24,-21,-18,-22,-23,-28,-36,-36,-37,-45,-49,-55,-43,94,213,205,-65,-334,-338,-268,-161,-62,-39,-27,-17,-13,-14,-9,-8,-12,-10,-8,-3
2019-05-31,10:46:14.323,58,55,61,69,71,82,92,105,115,134,151,163,155,155,154,147,132,114,92,70,52,38,28,19,11,10,5,2,-5,-12,-15,-15,-19,-18,-20,-20,-16,-17,-14,-9,0,6,11,18,20,26,31,33,37,41,48,54,45,38,31,13,-5,-6,-5,-11,-19,-21,-20,-24,-29,-28,-30,-40,-10,135,255,220,-110,-374,-362,-253,-121,-48,-29,-17,-5,-1,3,1,-1,0,-2,-2,2,7,11,13,19,29,32,34,38,50,56,65,73,78,74,73,65,48,20,0,-14,-29,-28,-26,-22,-19,-21,-23,-34,-39,-44,-46,-49,-54,-53,-53,-50,-48,-43,-42
2019-05-31,10:46:15.348,26,26,28,29,30,28,20,23,30,28,39,46,58,57,48,40,23,8,6,-1,-5,-6,-3,-5,-6,-1,4,9,6,-5,108,285,364,175,-255,-360,-293,-162,-33,1,11,14,15,17,16,16,14,12,10,7,5,7,12,20,27,38,56,84,108,134,154,168,176,181,173,165,153,133,107,82,57,37,25,11,7,4,0,-5,-9,-6,-7,-9,-8,-1,-1,-3,0,0,-2,-5,0,0,-1,-2,1,2,1,8,18,20,24,30,39,33,16,2,-12,-29,-34,-36,-37,-34,-28,-31,-47,-54,-62,-63,-65,-74,-3,156,238,123,-271,-427,-391,-268
2019-05-31,10:46:16.372,-95,-22,1,10,12,15,14,11,9,2,0,3,5,8,12,18,29,38,50,61,74,87,101,107,113,115,111,109,99,91,71,44,22,7,-6,-15,-23,-30,-37,-40,-35,-26,-26,-21,-14,-9,-9,-1,-3,-4,-4,0,-4,-6,-11,-15,-15,-22,-20,-16,-18,-21,-13,-3,-4,-15,-30,-37,-53,-57,-51,-49,-43,-35,-31,-26,-18,-13,-16,-12,-21,7,142,249,213,-86,-323,-320,-248,-134,-44,-28,-20,-17,-10,-6,-4,-2,-3,-4,-2,2,10,15,19,26,35,47,61,76,92,107,117,127,132,136,133,121,108,90,64,39,23,6,-2,-12,-16,-17
2019-05-31,10:46:17.397,-39,-38,-52,-58,-61,-62,-65,-65,-61,-55,-53,-58,-60,-60,-56,-49,-41,-31,-21,-13,-13,-16,-17,-12,-13,-13,-8,-2,-4,-14,-22,-33,-48,-57,-54,-49,-48,-49,-47,-40,-40,-34,-35,-37,-53,-11,164,290,247,-138,-381,-374,-269,-124,-55,-38,-27,-18,-11,-6,0,1,5,13,19,21,24,31,36,40,46,56,68,79,95,103,114,121,120,116,109,100,83,61,42,22,5,-3,-9,-14,-10,-1,3,3,9,7,4,2,0,2,3,6,8,4,3,3,4,1,0,1,-1,1,-2,-6,-9,-1,0,1,16,26,27,17,14,7,-6,-14,-16,-15
2019-05-31,10:46:18.422,-39,-36,-34,-36,-33,-31,-30,-33,-49,15,197,316,230,-195,-404,-370,-247,-92,-35,-23,-15,-19,-19,-25,-27,-25,-25,-26,-28,-40,-39,-30,-18,0,25,47,67,91,107,117,125,118,121,113,105,95,79,56,34,10,-10,-29,-34,-40,-44,-42,-38,-37,-39,-39,-38,-38,-33,-29,-28,-26,-29,-28,-26,-24,-21,-26,-31,-23,-27,-28,-27,-23,-17,-14,-6,3,14,12,7,2,-7,-16,-18,-21,-25,-25,-32,-39,-41,-48,-54,-60,-70,-72,40,180,225,34,-306,-344,-292,-174,-53,-16,-1,2,7,13,12,13,14,16,19,17,20,26,29,31,37,45,49,63
2019-05-31,10:46:19.446,44,59,68,74,75,74,70,68,53,34,17,-2,-18,-30,-36,-39,-46,-48,-46,-50,-48,-50,-51,-51,-45,-42,-39,-27,-20,-19,-10,-9,-4,-7,-12,-26,-39,-41,-46,-53,-44,-46,-39,-36,-33,-36,-42,-39,-38,-38,-35,-28,-22,-24,-27,-31,-37,-42,-48,-54,-56,-66,17,183,272,155,-241,-381,-346,-237,-98,-42,-27,-17,-11,-8,-6,-1,-3,-4,-3,0,10,10,9,18,21,33,47,59,75,89,110,121,127,135,138,138,131,113,94,72,48,28,11,0,-9,-22,-23,-24,-23,-29,-33,-38,-41,-42,-38,-41,-35,-29,-25,-24,-11,0,6,17,20,21
2019-05-31,10:46:20.471,2,-2,-6,-9,-2,1,3,8,14,15,8,6,-4,-24,-32,-33,-30,-36,-36,-37,-37,-40,-36,-44,-41,-56,-5,170,292,234,-164,-402,-374,-247,-95,-29,-15,-4,2,3,5,9,8,8,11,12,17,25,35,40,50,63,66,72,71,79,92,103,109,113,107,90,75,61,47,33,21,16,16,14,9,5,0,-5,-12,-20,-26,-27,-30,-38,-36,-33,-33,-36,-29,-28,-23,-20,-17,-11,-9,-10,-10,-10,-12,-6,-1,2,10,23,23,10,5,-5,-17,-28,-28,-24,-27,-29,-25,-31,-34,-34,-35,-36,-42,-24,134,268,270,-26,-322,-333,-253,-136,-42,-27
2019-05-31,10:46:21.495,-46,-39,-34,-38,-38,-41,-39,-31,-27,-22,-17,-7,7,23,44,53,59,71,84,94,99,109,107,100,92,88,73,56,36,13,-5,-17,-29,-38,-42,-46,-50,-52,-52,-52,-53,-50,-45,-37,-30,-28,-27,-24,-19,-18,-15,-16,-22,-25,-25,-27,-24,-22,-19,-16,-6,-4,-11,-12,-18,-36,-37,-29,-28,-26,-29,-38,-43,-46,-45,-46,-49,-58,-6,127,209,123,-220,-386,-351,-236,-100,-22,0,10,7,4,0,0,-2,-1,-2,0,1,2,6,10,21,34,47,62,75,88,103,114,128,129,133,132,124,107,84,56,35,9,-4,-12,-19,-24,-28,-31,-34,-29
2019-05-31,10:46:22.520,-49,-46,-44,-40,-27,-23,-14,-12,-12,-11,-11,-7,-8,-10,-16,-21,-28,-45,-51,-51,-47,-47,-37,-21,2,10,13,17,10,-4,-9,-10,-10,-17,-19,-28,-31,-29,-35,-38,-44,-56,55,231,312,127,-296,-400,-331,-201,-69,-32,-24,-17,-10,-8,-1,-2,3,4,7,15,16,24,30,39,48,60,76,90,102,118,133,141,144,143,141,135,124,106,83,61,39,28,11,0,-13,-20,-28,-34,-37,-35,-39,-47,-49,-49,-43,-40,-28,-14,-3,9,22,27,25,20,12,2,-1,-5,-13,-18,-9,-8,-5,0,14,14,1,5,-6,-16,-22,-20,-25,-26,-22,-22
2019-05-31,10:46:23.545,-41,-38,-43,-41,-43,-66,15,198,309,225,-208,-391,-366,-253,-106,-57,-42,-33,-23,-19,-18,-11,0,5,6,10,18,22,28,33,44,52,54,52,57,59,69,79,78,83,81,77,78,75,65,50,42,29,23,14,0,-6,-9,-10,-16,-21,-22,-25,-22,-16,-18,-22,-27,-28,-25,-26,-22,-19,-21,-28,-35,-38,-30,-31,-28,-17,-3,6,2,-9,-13,-20,-28,-28,-24,-32,-41,-43,-43,-49,-50,-50,-52,-55,-58,34,189,254,102,-257,-341,-309,-215,-103,-55,-44,-44,-43,-43,-43,-46,-44,-37,-28,-17,-3,12,28,39,51,53,62,67,75,79,84,89,93
2019-05-31,10:46:24.569,79,76,69,67,50,32,12,-1,-8,-18,-23,-29,-32,-39,-41,-40,-42,-45,-45,-43,-39,-33,-28,-23,-11,-10,-11,-10,-14,-13,-12,-14,-15,-16,-5,5,11,25,39,40,34,23,15,-3,-15,-23,-34,-40,-48,-54,-59,-57,-53,-51,-43,-44,-14,152,292,272,-65,-355,-347,-235,-100,-23,-10,-7,0,0,3,4,5,3,5,11,19,23,29,29,36,41,45,56,67,81,98,113,123,130,132,127,121,105,86,65,43,24,14,0,-6,-16,-23,-22,-25,-23,-24,-21,-19,-14,-10,-8,-2,4,-3,-10,-20,-28,-30,-35,-36,-40,-49,-58,-63,-62,-51,-43
2019-05-31,10:46:25.594,-24,8,35,49,49,46,31,4,-10,-17,-24,-31,-35,-43,-40,-41,-42,-37,-36,-50,-24,160,311,312,-61,-378,-390,-290,-135,-39,-14,-1,9,12,13,16,21,24,24,29,34,34,31,33,41,53,59,75,87,99,114,129,136,144,147,147,141,131,110,93,66,44,29,9,-1,-18,-30,-31,-39,-40,-43,-46,-53,-52,-44,-30,-23,-11,0,6,12,17,10,8,5,0,-4,5,3,6,12,20,22,6,-7,-21,-39,-46,-44,-45,-45,-48,-49,-47,-52,-53,-56,-52,-57,-35,106,235,226,-75,-364,-359,-281,-163,-72,-44,-32,-27,-21,-22,-15,-10,-9,-4
2019-05-31,10:46:26.618,-6,6,13,24,32,25,27,33,40,47,50,64,72,78,76,69,59,61,56,47,40,29,21,16,3,-5,-14,-25,-32,-38,-47,-53,-52,-49,-47,-43,-38,-33,-28,-20,-17,-15,-13,-11,-12,-16,-18,-6,-8,-3,4,22,24,16,4,-1,-12,-24,-27,-31,-30,-29,-32,-29,-25,-27,-20,-20,-25,-34,73,226,281,111,-259,-335,-288,-184,-64,-20,-13,-12,-8,-6,-3,-9,-11,-14,-11,-5,-1,4,20,32,47,70,88,109,124,136,147,150,152,149,143,135,121,104,75,50,25,0,-7,-17,-19,-31,-39,-35,-38,-35,-34,-39,-35,-32,-27,-29,-29,-26
2019-05-31,10:46:27.643,-30,-23,-22,-22,-18,-15,-5,-1,7,6,12,11,-4,-14,-19,-31,-37,-32,-31,-31,-27,-28,-36,-45,-48,-49,-51,-60,-32,110,237,212,-102,-393,-383,-264,-121,-35,-10,1,7,13,9,5,3,2,0,2,2,6,3,10,13,25,33,39,50,64,83,95,109,115,108,110,108,99,76,51,30,12,-5,-19,-25,-30,-39,-40,-39,-38,-30,-30,-28,-20,-17,-15,-13,-12,-10,-11,-12,-6,-3,-5,-6,1,10,13,17,27,32,30,17,5,-20,-34,-40,-43,-39,-42,-43,-39,-33,-27,-22,-17,-16,-23,49,207,294,162,-216,-366,-308,-183,-64,-33,-22,-14
2019-05-31,10:46:28.668,-23,-19,-14,-13,-9,-5,0,-1,2,1,6,14,16,23,33,45,58,72,85,96,108,118,115,111,107,89,72,46,24,3,-13,-23,-28,-29,-30,-28,-25,-27,-28,-38,-41,-42,-43,-41,-46,-52,-56,-54,-44,-36,-31,-25,-15,-4,0,5,9,20,27,16,4,-5,-22,-38,-45,-49,-52,-52,-54,-50,-45,-43,-39,-38,-36,-52,8,181,291,200,-208,-405,-370,-256,-110,-49,-31,-22,-12,-6,0,2,8,13,18,24,33,38,46,51,57,64,74,86,97,111,124,130,138,134,132,123,111,97,72,44,21,-1,-19,-30,-30,-35,-32,-23,-22,-14,-11,-8
2019-05-31,10:46:29.692,17,15,16,17,16,14,9,4,7,7,2,-1,11,13,17,24,38,46,35,28,15,-7,-21,-29,-35,-37,-40,-42,-44,-39,-35,-37,-40,-42,-30,117,258,266,-40,-383,-400,-302,-159,-57,-33,-25,-21,-15,-8,-2,0,1,9,14,14,12,9,12,17,23,29,28,38,50,71,91,110,128,138,141,133,114,91,67,42,14,-7,-24,-35,-44,-51,-52,-51,-49,-46,-41,-36,-31,-26,-22,-21,-16,-12,-12,-16,-16,-5,0,-1,9,26,35,28,25,16,-8,-26,-29,-33,-36,-40,-46,-43,-44,-45,-44,-40,-37,-45,70,236,292,90,-317,-396,-315,-189,-67
2019-05-31,10:46:30.717,-33,-31,-24,-21,-19,-22,-17,-16,-13,-4,4,10,21,34,45,62,72,83,93,101,119,127,134,138,138,131,126,114,95,69,45,28,13,0,-10,-15,-26,-32,-37,-38,-34,-32,-25,-18,-12,-10,-3,1,2,3,4,13,29,23,29,43,54,52,35,28,14,-12,-22,-28,-27,-27,-30,-31,-30,-33,-42,-45,-49,-67,-14,154,254,145,-281,-471,-428,-290,-128,-49,-23,-4,11,14,13,16,15,12,13,15,19,25,28,32,37,45,55,71,91,113,122,134,146,149,149,143,130,111,87,63,41,17,-1,-11,-17,-23,-25,-23,-24,-22,-18,-15,-11,-7
2019-05-31,10:46:31.741,0,5,1,0,-5,-4,0,14,17,22,31,50,57,47,39,21,-7,-26,-36,-40,-46,-55,-56,-54,-53,-56,-51,-43,-40,-26,105,246,256,3,-331,-353,-275,-156,-49,-20,-18,-11,-11,-9,-7,-8,2,0,5,9,11,16,15,22,31,40,51,59,68,83,90,95,101,102,99,91,77,60,42,26,7,-9,-21,-34,-40,-38,-47,-48,-47,-45,-38,-33,-37,-37,-34,-28,-30,-32,-38,-33,-27,-24,-16,-10,-2,-6,-16,-18,-20,-30,-23,-22,-26,-33,-39,-36,-43,-48,-46,-46,-49,-61,-16,138,240,175,-168,-350,-331,-237,-119,-42,-25,-14,-16,-14,-10,-1
2019-05-31,10:46:32.766,-12,-8,-4,3,-2,-7,0,2,14,26,44,61,70,90,105,113,118,123,120,117,111,87,62,32,13,0,-7,-17,-20,-25,-31,-36,-44,-47,-55,-57,-59,-54,-46,-42,-42,-44,-49,-52,-54,-48,-32,-11,2,15,38,54,56,52,40,21,-4,-15,-29,-34,-39,-49,-55,-50,-46,-43,-33,-33,-46,-2,177,303,240,-164,-417,-393,-274,-113,-44,-30,-22,-9,-2,7,9,10,16,17,23,30,33,39,38,46,53,67,85,99,110,122,128,134,135,125,127,119,97,72,42,20,-2,-23,-36,-42,-44,-39,-36,-33,-34,-27,-25,-23,-19,-18,-15,-13,-16,-15
2019-05-31,10:46:33.790,-15,-21,-23,-13,-4,4,21,42,60,49,45,33,9,-6,-13,-21,-22,-23,-26,-21,-25,-22,-23,-18,-25,-43,63,254,345,183,-278,-418,-371,-239,-77,-26,-9,-1,4,10,16,16,21,27,34,39,44,43,53,56,61,62,70,73,84,94,104,112,113,114,107,104,99,85,67,52,27,18,9,-1,-13,-17,-18,-19,-19,-21,-19,-19,-14,-12,-13,-7,-8,-9,-8,-12,-17,-11,-13,-12,-3,4,14,13,2,1,-16,-37,-42,-46,-49,-51,-49,-51,-50,-51,-50,-51,-52,-57,20,180,247,102,-268,-371,-332,-228,-104,-55,-36,-29,-24,-15,-17,-21,-17,-15
2019-05-31,10:46:34.815,-20,-19,-18,-20,-25,-26,-19,-8,8,28,53,74,93,100,95,89,81,71,57,38,19,3,-16,-29,-41,-45,-44,-43,-43,-40,-33,-34,-32,-37,-32,-26,-21,-19,-18,-13,-12,-6,-11,-4,0,6,10,21,36,32,15,4,-15,-27,-35,-31,-35,-34,-33,-32,-27,-23,-14,-13,-20,-19,83,219,244,42,-306,-359,-297,-191,-91,-62,-54,-46,-39,-28,-15,-4,7,19,23,27,31,32,39,44,51,57,68,78,91,103,118,125,127,131,126,118,105,86,60,35,18,8,-4,-19,-25,-24,-27,-30,-29,-28,-24,-23,-20,-19,-17,-10,-2,-3,-3,-2,-3,-3
2019-05-31,10:46:35.840,-2,7,14,16,25,41,58,58,45,34,9,-8,-15,-29,-35,-41,-49,-57,-60,-66,-70,-60,-61,-67,55,223,289,83,-332,-411,-329,-193,-66,-37,-29,-21,-17,-8,-2,4,7,13,16,14,21,30,35,40,51,57,62,81,98,114,121,128,135,133,131,126,115,94,70,50,34,20,10,6,-4,-6,-7,-14,-13,-7,-1,0,8,10,11,7,12,11,5,4,4,-1,-14,-20,-30,-24,-19,-12,2,18,28,28,28,23,8,-1,-6,-6,-6,-13,-18,-24,-26,-28,-34,-36,-44,-40,91,235,264,29,-324,-356,-292,-175,-66,-39,-37,-35,-29,-27,-22,-19
2019-05-31,10:46:36.864,-17,-12,-9,-2,0,5,15,17,24,35,48,62,75,89,101,103,105,108,105,96,86,70,48,31,7,-2,-14,-24,-35,-46,-49,-55,-61,-63,-62,-64,-64,-60,-61,-60,-49,-36,-28,-26,-22,-18,-28,-33,-24,-29,-27,-20,-5,0,-5,-15,-24,-37,-45,-45,-47,-47,-43,-45,-43,-41,-43,-44,-46,-59,0,154,232,145,-202,-350,-325,-237,-120,-63,-46,-40,-34,-26,-22,-22,-19,-12,-7,-6,8,13,13,17,31,41,52,59,72,92,101,111,113,108,99,87,74,57,27,6,-15,-31,-36,-40,-48,-48,-38,-31,-25,-18,-14,-10,-9,-8,-4,-3,-3,-3
2019-05-31,10:46:37.889,12,7,2,-1,-5,-5,-6,-8,-7,0,0,3,14,23,27,20,13,1,-20,-35,-35,-39,-41,-39,-43,-42,-38,-34,-28,-25,-37,1,165,290,256,-114,-381,-354,-231,-83,-24,-4,0,10,9,4,4,9,9,2,1,-7,-12,-2,-1,1,9,21,45,69,96,123,143,154,156,146,136,121,102,76,54,29,11,4,-7,-11,-15,-12,-7,-9,-10,-13,-9,-8,-10,-10,-7,-13,-12,-14,-14,-8,-14,-15,-21,-18,-20,-20,-18,-21,-15,2,5,12,28,45,42,34,38,18,-2,-8,-6,-5,-7,-4,-5,-7,-8,-13,-19,-25,-42,37,202,286,168,-261
2019-05-31,10:46:38.913,-410,-366,-248,-102,-52,-38,-22,-5,7,19,26,31,36,41,44,40,42,48,51,58,63,70,79,92,106,123,131,142,147,146,141,129,108,85,56,38,19,1,-1,-14,-20,-25,-24,-19,-24,-18,-14,-11,-6,-3,3,3,4,6,6,9,10,9,6,7,10,8,8,5,5,2,0,8,3,2,8,19,12,-3,-13,-34,-50,-52,-45,-41,-36,-29,-28,-26,-27,-29,-35,-41,-61,19,196,281,168,-252,-390,-363,-247,-99,-40,-26,-17,-6,-7,-5,-10,-8,-8,0,2,5,13,8,19,27,33,45,56,68,81,87,103,109,112,114,111,94,73,60
2019-05-31,10:46:39.938,11,-10,-34,-45,-53,-56,-58,-60,-51,-54,-50,-47,-49,-47,-50,-53,-56,-57,-57,-59,-58,-64,-68,-64,-61,-57,-61,-50,-48,-45,-45,-39,-32,-30,-22,-12,0,0,-6,-14,-28,-42,-52,-55,-54,-63,-67,-64,-68,-69,-65,-64,-70,-74,27,171,212,37,-313,-372,-327,-216,-102,-57,-48,-40,-35,-30,-25,-21,-17,-12,-9,-2,0,3,6,19,27,33,49,63,81,92,96,98,93,89,85,75,58,39,22,1,-10,-22,-28,-30,-30,-27,-24,-28,-29,-30,-29,-30,-35,-34,-28,-24,-21,-14,-14,-8,0,1,0,2,0,-4,-10,-11,-10,-11,-1,-3,0,9
2019-05-31,10:46:40.963,28,36,24,16,12,-6,-20,-21,-22,-28,-28,-28,-29,-27,-26,-24,-26,-38,3,170,294,247,-125,-370,-340,-226,-85,-24,-16,-7,-8,-10,-14,-17,-16,-12,-4,-1,2,10,18,30,43,53,68,81,98,113,121,129,132,132,127,123,116,100,79,55,40,21,-3,-12,-19,-22,-24,-31,-34,-33,-31,-33,-34,-32,-31,-29,-24,-24,-20,-20,-20,-21,-18,-20,-19,-20,-19,-22,-21,-26,-22,-24,-15,-5,-5,2,19,31,30,23,21,-1,-18,-24,-24,-27,-32,-45,-53,-59,-67,-74,-71,-79,-50,124,270,272,-60,-366,-376,-275,-133,-43,-26,-18,-20,-13,-17,-13
2019-05-31,10:46:41.987,0,5,7,20,29,30,38,48,54,61,67,78,94,107,119,132,138,142,145,140,130,123,99,79,55,32,13,-2,-4,-12,-15,-17,-18,-15,-20,-17,-14,-8,-5,-4,3,8,8,5,6,6,7,6,-2,-11,-21,-28,-36,-37,-34,-34,-31,-29,-13,-3,6,24,43,47,40,33,23,6,-12,-8,-12,-22,-22,-25,-20,-30,-30,-28,-29,-38,44,203,273,144,-232,-344,-311,-206,-83,-34,-24,-16,-11,-3,3,6,8,11,14,13,19,19,25,31,42,46,56,70,79,93,107,126,130,124,123,121,114,100,71,42,17,-10,-23,-31,-42,-50,-60,-63
2019-05-31,10:46:43.012,-112,-106,-101,-93,-84,-75,-64,-60,-61,-59,-59,-61,-68,-72,-70,-68,-70,-70,-69,-68,-67,-70,-61,-55,-49,-32,-22,-14,-25,-32,-38,-54,-69,-66,-70,-75,-82,-84,-82,-87,-85,-85,-87,-96,-50,109,217,159,-186,-395,-374,-274,-149,-86,-70,-55,-44,-44,-38,-36,-33,-36,-34,-35,-38,-37,-35,-39,-36,-33,-26,-11,6,23,42,69,87,96,103,98,93,80,55,24,1,-21,-43,-56,-63,-70,-75,-78,-80,-79,-75,-74,-71,-66,-67,-65,-61,-53,-50,-47,-49,-50,-49,-48,-48,-47,-48,-47,-43,-37,-37,-30,-28,-13,-6,1,16,26,42,45,43,34,16,5
2019-05-31,10:46:44.036,27,25,22,21,16,22,21,22,22,18,4,40,202,321,283,-79,-356,-342,-234,-84,-5,16,32,48,55,55,55,56,56,60,55,57,65,70,78,88,97,104,118,136,152,166,183,194,195,202,202,195,182,162,137,110,91,74,60,53,44,43,39,37,38,36,37,42,44,45,46,51,52,50,49,49,49,47,52,45,42,35,32,33,31,25,22,14,7,1,-2,2,6,14,29,39,44,40,36,27,14,8,7,8,2,0,-7,-8,-14,-18,-20,-27,-35,89,249,312,101,-300,-382,-320,-202,-77,-39,-28,-21,-16,-15,-12,-10,-4,-4,-2
2019-05-31,10:46:45.061,215,212,210,210,213,220,222,231,241,251,258,263,273,275,274,272,257,247,231,210,185,160,142,121,112,108,101,93,83,73,67,65,57,49,45,39,41,44,47,50,54,54,59,63,59,52,46,32,23,19,10,5,15,19,23,36,48,56,48,42,34,15,6,1,-8,-8,-12,-16,-13,-17,-19,-19,-20,-35,1,149,250,211,-116,-330,-325,-241,-127,-47,-29,-25,-18,-6,-5,-3,-2,5,6,11,16,19,31,35,43,46,47,47,50,64,75,85,93,102,104,101,97,86,74,54,34,15,2,-10,-16,-20,-25,-30,-32,-35,-35,-38,-33,-29
2019-05-31,10:46:46.086,196,192,193,193,194,189,189,190,178,169,166,161,156,152,148,143,133,132,129,131,143,139,140,153,163,164,158,149,131,109,96,93,88,80,75,71,69,66,67,67,62,51,157,324,395,221,-193,-312,-254,-144,-28,0,6,9,14,16,22,28,37,45,57,65,67,70,70,68,70,75,80,92,99,116,126,136,150,155,151,149,144,126,99,75,56,38,19,6,-5,-12,-19,-20,-22,-25,-22,-20,-22,-21,-18,-15,-14,-8,-6,-9,-5,-7,-2,-3,-3,-6,-11,-11,-12,-12,-12,-14,-19,-17,-4,-3,0,5,15,19,2,-7,-24,-45,-51,-47
2019-05-31,10:46:47.110,108,106,104,109,111,118,119,123,122,109,175,337,427,323,-86,-271,-248,-142,0,57,74,83,88,93,92,97,100,94,99,99,98,99,98,106,104,112,119,126,136,150,165,178,188,195,189,183,173,157,132,106,79,57,40,28,19,9,7,4,7,0,2,5,4,8,4,1,-6,-12,-14,-20,-28,-34,-41,-42,-40,-40,-34,-27,-21,-17,-10,-6,-3,0,-1,-3,1,16,10,4,-1,-16,-30,-38,-39,-39,-37,-43,-46,-47,-52,-52,-50,-50,-62,37,187,237,83,-267,-350,-317,-214,-98,-58,-40,-34,-28,-25,-24,-21,-16,-14,-12,-4,-2,3,6
2019-05-31,10:46:48.135,9,16,22,30,40,46,60,75,86,86,82,72,64,53,38,19,-5,-25,-36,-47,-50,-50,-49,-48,-43,-39,-39,-41,-37,-32,-31,-28,-24,-20,-18,-18,-17,-17,-19,-24,-26,-25,-24,-21,-24,-22,-14,-6,-1,2,15,26,20,10,6,-17,-32,-35,-36,-38,-41,-41,-39,-39,-34,-35,-33,-36,-34,94,243,288,46,-326,-369,-290,-165,-57,-31,-23,-15,-11,-5,-8,-6,-12,-9,-14,-14,-13,-17,-11,-4,5,16,33,51,69,88,110,125,131,131,125,119,105,80,57,30,14,0,-9,-15,-15,-20,-18,-19,-23,-23,-20,-20,-18,-16,-12,-7,-7,-5,0
2019-05-31,10:46:49.159,-116,-118,-118,-113,-116,-112,-112,-111,-114,-110,-108,-105,-92,-85,-83,-68,-47,-42,-47,-58,-72,-95,-110,-109,-106,-105,-98,-99,-97,-96,-92,-92,-92,-105,-84,81,220,218,-129,-442,-460,-354,-196,-93,-65,-48,-32,-19,-11,-11,-7,-9,-12,-12,-8,0,3,5,15,23,35,53,68,83,103,119,131,138,142,134,124,108,87,60,32,17,0,-10,-18,-19,-22,-23,-18,-16,-14,-9,-13,-9,-8,-3,0,3,3,0,4,3,-1,2,-4,-10,-3,-11,-24,-26,-25,-19,-24,-21,-14,-3,-10,-17,-12,-19,-35,-39,-34,-31,-30,-28,-31,-31,-32,-30,-38,-42,-56,13
2019-05-31,10:46:50.184,-14,65,-22,-379,-517,-493,-394,-270,-202,-183,-171,-164,-161,-150,-139,-135,-132,-124,-123,-120,-107,-100,-95,-86,-76,-63,-49,-29,-16,2,12,19,26,33,33,29,16,-7,-30,-45,-57,-62,-69,-70,-76,-81,-88,-94,-99,-98,-99,-96,-92,-90,-85,-82,-75,-70,-59,-47,-36,-30,-21,-21,-28,-35,-38,-25,-24,-26,-14,0,6,-2,-4,-19,-32,-43,-46,-40,-41,-43,-41,-42,-44,-46,-49,-47,-52,-20,122,234,201,-106,-339,-335,-253,-139,-58,-36,-29,-18,-13,0,7,11,9,11,17,22,23,30,39,44,55,61,76,90,104,111,118,119,124,122,126,111,97,61
2019-05-31,10:46:51.209,-124,-145,-162,-171,-163,-158,-156,-148,-139,-136,-139,-141,-144,-144,-143,-139,-132,-130,-122,-111,-116,-108,-100,-94,-90,-88,-88,-88,-86,-82,-73,-67,-60,-53,-36,-35,-45,-47,-55,-74,-85,-79,-80,-77,-79,-79,-71,-72,-65,-58,-55,-65,-9,164,287,216,-180,-402,-368,-243,-107,-62,-48,-41,-41,-38,-39,-41,-42,-40,-31,-23,-16,-6,4,16,28,44,59,80,94,107,117,131,137,137,135,130,120,107,83,58,28,19,6,-4,-15,-21,-20,-23,-24,-17,-31,-21,-15,-16,-15,-17,-16,-9,-6,0,0,0,5,6,3,3,0,1,1,14,15,16,31,44,51,46
2019-05-31,10:46:52.233,-74,-84,-99,-109,-109,-112,-107,-107,-108,-107,-108,-111,-112,-111,-121,-130,-24,127,181,-17,-420,-498,-419,-274,-128,-81,-58,-52,-51,-51,-45,-51,-52,-53,-49,-46,-46,-43,-33,-26,-17,-2,11,23,41,64,78,87,95,96,95,94,82,69,44,21,4,-8,-19,-35,-39,-43,-41,-42,-43,-40,-39,-33,-31,-30,-28,-18,-19,-16,-18,-12,-9,-5,-6,-12,-16,-15,-13,-21,-26,-30,-27,-27,-32,-29,-15,-11,-18,-20,-29,-44,-56,-53,-47,-42,-42,-36,-27,-28,-33,-32,-34,-39,-35,66,197,225,22,-308,-346,-295,-190,-80,-47,-38,-32,-31,-22,-24,-21,-18,-13,-11
2019-05-31,10:46:53.258,-104,-95,-89,-83,-73,-62,-52,-37,-19,-6,6,24,36,48,51,51,45,36,19,-2,-19,-36,-46,-60,-75,-89,-98,-101,-100,-102,-102,-98,-93,-90,-88,-94,-86,-83,-75,-62,-47,-42,-39,-38,-39,-42,-44,-43,-40,-33,-25,-20,-9,7,12,6,-3,-9,-30,-40,-41,-40,-42,-51,-52,-49,-49,-47,-50,-50,-61,-34,117,250,238,-85,-360,-360,-267,-137,-48,-28,-17,-10,-6,-1,1,0,6,8,14,21,25,28,34,37,37,43,46,54,64,82,94,102,114,114,112,113,103,86,68,52,34,17,4,-2,-10,-15,-22,-23,-25,-27,-30,-26,-25,-23,-21,-18
2019-05-31,10:46:54.282,-72,-68,-69,-71,-67,-65,-68,-69,-74,-70,-76,-73,-72,-66,-56,-50,-40,-13,-6,-13,-23,-27,-40,-47,-50,-55,-56,-55,-57,-62,-61,-60,-57,-54,-56,-51,102,271,315,33,-370,-422,-337,-203,-90,-63,-54,-51,-50,-50,-47,-40,-26,-16,-8,13,26,41,51,58,61,67,72,79,88,98,105,115,121,130,134,134,128,111,91,66,43,28,14,-1,-7,-7,-13,-19,-19,-24,-22,-18,-17,-18,-19,-15,-14,-8,-4,-2,-4,-3,-3,-5,-5,-5,-5,-2,1,-6,-2,6,8,20,37,49,46,36,24,7,-8,-22,-28,-34,-40,-43,-46,-45,-48,-49,-47,-44
2019-05-31,10:46:55.307,-114,-20,144,221,77,-298,-400,-356,-245,-125,-79,-67,-67,-58,-55,-48,-45,-44,-45,-39,-34,-28,-22,-14,-15,-5,5,13,15,26,43,55,66,80,84,83,83,79,61,41,19,0,-15,-25,-30,-36,-41,-41,-45,-49,-52,-50,-47,-41,-33,-30,-28,-30,-34,-33,-38,-37,-38,-44,-51,-51,-49,-49,-48,-47,-42,-33,-25,-4,14,14,12,6,-11,-28,-39,-44,-46,-43,-46,-50,-54,-52,-47,-47,-52,-41,87,221,246,13,-314,-344,-279,-168,-63,-37,-23,-19,-14,-9,-4,-5,-2,3,5,9,15,25,33,42,46,54,64,82,101,111,121,134,142,146,144,140
2019-05-31,10:46:56.332,87,63,36,13,-7,-24,-45,-56,-61,-71,-81,-80,-75,-75,-71,-63,-53,-47,-36,-23,-14,-5,-5,-3,-5,-11,-19,-23,-29,-35,-35,-36,-38,-35,-30,-23,-21,-11,0,21,19,9,1,-20,-35,-48,-45,-43,-45,-46,-47,-47,-44,-44,-44,-47,-40,94,256,301,72,-333,-402,-312,-177,-58,-32,-21,-11,-4,0,3,4,9,17,16,20,16,14,13,9,7,17,26,29,40,68,89,113,130,140,147,146,139,118,90,56,26,6,-10,-23,-26,-32,-34,-32,-25,-25,-20,-13,-11,-5,-3,-5,-2,-4,-3,-9,-7,-9,-13,-17,-20,-16,-17,-14,-11,-12,5
2019-05-31,10:46:57.356,15,21,38,49,60,48,40,28,9,0,0,-2,-1,-8,-18,-18,-21,-22,-25,-28,-46,-28,134,266,270,-55,-372,-377,-269,-125,-29,-4,6,12,8,10,15,14,13,11,8,8,14,17,17,28,32,42,56,71,92,108,121,123,125,122,120,107,89,71,45,21,4,-7,-20,-26,-25,-25,-28,-27,-28,-30,-21,-22,-25,-17,-15,-8,-7,-2,-1,-5,-3,-5,2,-4,-11,-20,-26,-36,-39,-30,-26,-25,-15,0,1,-13,-24,-37,-52,-56,-48,-39,-36,-29,-30,-30,-37,-44,-49,-54,-61,-7,141,228,153,-179,-340,-323,-232,-115,-46,-27,-19,-11,-9,-10
2019-05-31,10:46:58.381,-3,0,2,0,1,3,9,6,14,23,38,43,50,60,82,97,110,125,127,129,127,123,97,77,53,37,24,13,7,0,-9,-17,-26,-30,-35,-42,-44,-45,-36,-33,-26,-21,-18,-9,-3,1,6,13,12,11,10,6,3,3,-4,-1,1,6,7,16,24,23,12,5,-6,-21,-27,-29,-33,-38,-45,-46,-48,-45,-48,-51,-56,-60,61,228,281,62,-326,-388,-306,-179,-63,-33,-20,-10,-7,1,2,11,13,17,16,19,22,26,33,40,54,56,62,65,73,83,92,99,101,100,90,76,66,49,33,13,-2,-3,-3,-2,-2,-3,-7,-12,-23,-27
2019-05-31,10:46:59.405,-1,-1,0,0,1,2,3,4,2,8,14,14,6,7,11,15,11,4,5,2,14,21,27,35,52,59,52,43,30,13,0,-4,-6,-5,-2,-3,-3,-1,-4,1,3,-10,25,197,322,285,-85,-357,-344,-241,-105,-36,-26,-19,-18,-17,-13,-11,-5,1,3,6,11,25,41,53,66,81,95,108,119,128,134,146,156,152,148,145,135,117,94,72,48,32,14,4,-2,-9,-17,-19,-21,-21,-23,-27,-24,-25,-20,-18,-12,-10,-9,-4,-6,-4,-4,-8,-11,-9,-9,-8,-15,-12,-12,-9,3,9,14,24,31,27,14,3,-8,-25,-37,-36,-41,-56
2019-05-31,10:47:00.430,-46,-48,-43,-37,-32,-21,-11,-18,18,165,264,221,-102,-327,-324,-248,-134,-55,-41,-35,-29,-13,-8,-9,-6,0,1,4,8,10,12,16,21,24,31,42,57,69,82,97,113,117,122,119,110,102,79,54,34,18,6,-5,-7,-7,-10,-10,-12,-17,-14,-20,-24,-27,-29,-24,-26,-30,-30,-31,-31,-25,-19,-17,-5,3,9,13,14,15,22,20,18,21,24,27,17,8,0,-22,-36,-41,-42,-41,-45,-40,-39,-38,-33,-31,-34,-43,-15,126,242,226,-74,-339,-342,-256,-136,-50,-28,-16,-9,0,8,16,18,25,29,30,29,31,34,40,43,50,60,75
2019-05-31,10:47:01.454,110,126,139,148,149,150,142,134,125,106,82,51,16,-4,-13,-24,-20,-12,-9,-3,0,-3,-5,-12,-14,-13,-18,-15,-14,-18,-18,-26,-29,-24,-25,-25,-21,-20,-20,-16,-15,-17,-18,-7,0,2,10,28,31,23,21,8,-11,-26,-33,-36,-37,-45,-39,-42,-45,-45,-39,-39,-50,-21,160,308,295,-86,-388,-387,-279,-128,-49,-30,-23,-14,-13,-18,-19,-23,-22,-23,-22,-22,-25,-18,-7,2,17,37,55,77,104,119,132,142,145,144,138,124,109,85,64,39,14,0,-12,-23,-27,-33,-40,-43,-40,-40,-32,-26,-25,-25,-23,-27,-20,-17,-20,-15,-16,-24
2019-05-31,10:47:02.479,48,49,48,44,42,42,43,45,55,58,54,69,79,78,69,62,51,34,28,26,30,25,25,22,5,0,-10,-13,-21,-35,28,190,271,177,-209,-396,-379,-257,-108,-23,1,11,14,14,16,8,3,6,5,2,2,5,10,13,20,24,39,56,67,90,107,117,125,128,124,122,116,102,75,51,31,10,-1,-11,-12,-24,-28,-28,-31,-32,-27,-19,-20,-20,-21,-15,-13,-8,-7,-3,0,-3,-1,-3,-3,-5,-17,-21,-16,-16,-15,-9,0,12,9,2,-2,-12,-20,-14,-3,-1,0,-5,-6,-9,-11,-18,-15,-20,-24,82,217,244,38,-289,-324,-268
2019-05-31,10:47:03.504,-138,-35,-8,-3,3,4,4,6,10,9,9,15,18,16,22,27,36,45,57,63,76,98,112,126,132,140,141,142,138,125,104,79,55,33,18,4,-3,-12,-18,-27,-35,-37,-40,-38,-35,-37,-39,-35,-39,-43,-44,-39,-32,-25,-15,-9,-2,-1,-6,-8,-13,-18,-11,-16,-17,-3,6,5,-2,-2,-14,-29,-36,-32,-32,-34,-35,-41,-38,-39,-44,-38,-37,-46,70,233,304,124,-283,-375,-314,-185,-67,-39,-26,-25,-15,-4,0,6,10,13,15,15,20,23,28,27,33,38,52,68,79,94,103,110,111,110,110,104,102,87,62,45,27,13,10,5
2019-05-31,10:47:04.528,18,17,16,14,12,6,5,0,-4,-3,2,0,3,10,6,12,14,14,18,14,7,4,7,2,0,-1,14,15,26,33,45,47,38,32,12,-6,-18,-20,-17,-16,-20,-17,-18,-19,-18,-23,-26,-38,35,210,314,188,-232,-406,-337,-215,-85,-48,-39,-35,-33,-29,-25,-32,-33,-36,-30,-17,-2,17,32,48,56,66,69,74,83,87,96,104,110,110,103,104,100,85,67,45,28,12,2,-8,-19,-17,-19,-26,-26,-25,-28,-29,-25,-25,-26,-27,-29,-21,-16,-13,-6,-4,-5,-4,0,0,1,4,1,0,-1,5,17,18,24,43,49,43,37,27
2019-05-31,10:47:05.553,31,14,6,2,-8,-10,-16,-20,-22,-23,-21,-24,-30,-33,105,280,332,107,-300,-365,-299,-174,-44,-7,5,10,8,7,10,9,7,8,11,7,11,15,17,19,32,37,45,55,67,80,99,111,116,121,124,119,109,92,71,50,31,7,-8,-22,-31,-38,-38,-37,-37,-31,-26,-24,-23,-24,-30,-29,-30,-25,-30,-35,-34,-35,-35,-35,-43,-50,-48,-39,-26,-14,-6,2,-6,-2,5,11,9,-1,-11,-24,-41,-46,-51,-52,-51,-52,-55,-52,-50,-48,-50,-51,-54,28,174,237,94,-259,-345,-319,-223,-104,-55,-47,-37,-27,-19,-17,-5,-6,-6,-1,6,12
2019-05-31,10:47:06.577,29,35,39,48,59,71,81,94,109,126,135,132,135,128,127,112,93,69,41,18,-3,-14,-28,-31,-32,-37,-36,-19,-6,8,16,28,36,35,35,34,29,27,20,16,9,5,1,-1,0,-5,-8,-10,-12,-14,-3,5,10,24,37,38,28,16,-1,-14,-26,-32,-30,-31,-36,-35,-30,-28,-23,-26,-25,-38,69,239,311,138,-289,-396,-341,-220,-85,-40,-30,-31,-30,-31,-29,-30,-27,-20,-18,-17,-23,-26,-18,-11,2,19,38,70,95,118,137,150,157,150,141,129,113,93,67,41,17,5,-5,-17,-26,-29,-33,-37,-36,-33,-29,-23,-17,-10,-10,-5
2019-05-31,10:47:07.602,18,18,12,15,9,14,12,10,5,4,1,-1,-6,-5,-10,4,10,16,31,45,55,57,50,38,17,4,-1,-3,-6,-11,-12,-18,-21,-32,-42,-46,-69,-56,94,230,238,-52,-367,-365,-265,-127,-15,10,22,27,30,29,26,28,25,22,20,20,22,23,27,39,45,52,63,74,87,106,113,125,130,127,119,111,102,80,57,33,21,6,-3,-9,-14,-19,-20,-20,-22,-25,-22,-21,-19,-13,-11,-8,0,3,5,2,-5,-10,-16,-18,-25,-28,-28,-36,-30,-31,-30,-25,-25,-27,-29,-31,-25,-29,-29,-18,-12,-14,-23,-29,-34,-36,-38,-41,-47,-52
2019-05-31,10:47:08.627,-50,72,201,217,-27,-326,-345,-286,-168,-72,-45,-36,-26,-20,-14,-11,-10,-8,0,5,5,8,4,10,12,18,29,41,54,65,88,106,113,123,129,135,128,116,93,74,53,34,14,1,-4,-12,-20,-21,-28,-35,-37,-37,-39,-33,-31,-30,-20,-12,-4,1,11,16,17,20,11,9,9,6,3,0,0,-2,7,13,16,23,39,44,35,25,9,-12,-23,-28,-32,-32,-38,-43,-45,-47,-48,-44,-46,-45,55,212,274,103,-266,-353,-267,-139,-43,-17,-9,-10,-12,-11,-7,-9,-4,5,14,21,25,20,18,19,23,30,39,50,61,67,79,94,102,99
2019-05-31,10:47:09.651,89,72,62,55,48,45,40,28,20,12,-2,-9,-13,-18,-23,-24,-24,-22,-26,-25,-29,-34,-31,-29,-24,-24,-22,-19,-16,-16,-18,-18,-16,-23,-21,-22,-22,-12,-8,-3,4,12,18,5,-3,-14,-27,-38,-39,-45,-42,-39,-45,-46,-47,-48,-48,-50,-57,5,171,272,202,-170,-360,-329,-228,-107,-65,-58,-52,-50,-42,-32,-29,-16,-4,6,17,22,29,30,31,34,44,49,60,69,75,85,95,103,104,103,101,96,77,60,38,15,-6,-18,-34,-40,-47,-52,-50,-48,-48,-45,-39,-42,-40,-37,-30,-27,-30,-28,-28,-32,-31,-33,-34,-30,-28,-27,-27,-25
2019-05-31,10:47:10.676,27,27,15,5,13,6,6,11,23,32,26,19,-5,-28,-40,-38,-28,-17,-4,3,12,10,0,-6,-12,-27,9,164,267,218,-121,-343,-331,-245,-121,-53,-37,-32,-23,-17,-12,0,1,6,11,15,17,20,23,27,38,46,52,62,71,86,100,113,126,132,128,132,122,110,98,70,48,33,23,12,4,2,3,0,0,0,3,0,-2,-5,-11,-16,-14,-18,-18,-24,-25,-25,-20,-14,-6,3,13,13,16,19,12,8,4,13,12,12,20,33,38,27,21,10,-9,-14,-16,-20,-21,-27,-29,-31,-29,-33,-34,-33,-49,8,177,279,195,-181,-367,-328
2019-05-31,10:47:11.700,-200,-61,-15,-6,-4,-4,-1,1,2,11,14,18,27,33,43,44,45,44,46,51,56,68,76,82,90,87,80,75,69,73,75,76,74,61,45,30,17,2,-12,-23,-33,-41,-46,-47,-42,-35,-26,-27,-25,-22,-20,-13,-15,-14,-15,-15,-18,-19,-20,-19,-23,-24,-28,-27,-17,-9,-6,5,25,31,22,17,8,-6,-18,-20,-18,-21,-23,-24,-26,-17,-20,-18,-16,-27,15,177,286,242,-112,-347,-342,-250,-126,-54,-39,-32,-20,-17,-8,2,10,21,30,38,44,46,49,52,60,66,72,78,90,100,116,125,135,136,127,121,112,102,83,63,39,18
2019-05-31,10:47:12.725,-3,-10,-21,-25,-30,-31,-32,-24,-23,-20,-17,-12,-9,-6,-2,-8,0,1,-5,-9,-11,-20,-26,-32,-27,-29,-22,-22,-15,0,8,10,10,23,27,13,11,-6,-27,-45,-49,-62,-71,-76,-75,-77,-70,-53,-37,-27,-33,43,230,320,210,-205,-372,-351,-238,-103,-51,-41,-32,-30,-25,-22,-19,-12,-4,-2,1,7,16,14,18,27,40,45,58,71,90,96,101,110,114,106,101,90,76,59,39,14,-3,-13,-19,-25,-31,-35,-38,-34,-29,-24,-21,-12,-12,-8,-9,-4,-11,-16,-19,-20,-25,-35,-46,-56,-65,-67,-63,-48,-38,-20,7,39,56,55,46,31
2019-05-31,10:47:13.750,11,-3,-8,-11,-18,-23,-29,-34,-35,-38,-42,-45,-58,2,159,246,156,-203,-355,-344,-247,-129,-57,-43,-33,-32,-25,-18,-13,-9,-3,-2,1,9,11,19,25,37,43,50,60,76,93,104,116,124,135,136,132,112,92,60,35,12,-8,-26,-38,-41,-50,-60,-72,-77,-70,-63,-46,-29,-16,-8,0,4,-3,-10,-19,-20,-26,-25,-31,-36,-41,-39,-44,-34,-19,-14,-11,0,15,14,12,3,-7,-21,-27,-29,-34,-37,-38,-47,-50,-48,-53,-50,-59,-36,126,271,267,-56,-358,-356,-246,-107,-42,-22,-14,-7,-3,-1,4,9,16,21,22,21,20,29,32,38
2019-05-31,10:47:14.774,36,40,36,46,62,72,84,97,98,95,96,102,105,95,77,62,46,31,24,17,6,-1,-4,-7,-9,-5,-12,-10,-11,-15,-9,-7,-9,-14,-11,-10,-7,-10,-7,-7,-8,-8,-7,2,7,12,21,33,39,37,31,19,0,-14,-13,-22,-19,-34,-44,-46,-44,-49,-44,-38,-51,-16,164,294,249,-135,-401,-379,-272,-134,-62,-52,-54,-54,-49,-40,-33,-20,-3,7,17,20,28,24,25,28,33,34,43,57,65,78,90,99,103,110,116,111,92,73,57,37,17,4,-7,-13,-21,-27,-27,-27,-28,-32,-29,-25,-23,-16,-11,-6,-3,-6,1,7,10,4
2019-05-31,10:47:15.799,8,7,6,6,9,20,30,40,52,68,73,58,49,27,0,-19,-27,-28,-28,-32,-36,-39,-31,-23,-17,-11,-22,17,197,305,262,-118,-359,-351,-248,-123,-35,-17,-12,-2,-1,0,7,10,16,18,15,16,18,19,22,27,34,43,56,73,91,105,118,124,131,128,122,113,94,76,55,33,14,-1,-20,-26,-20,-20,-22,-31,-37,-46,-49,-49,-50,-53,-52,-54,-54,-58,-65,-60,-53,-39,-28,-21,-15,-5,-6,-13,-8,-5,-7,-11,-22,-35,-57,-69,-74,-72,-69,-66,-63,-70,-65,-64,-58,-57,-64,-46,96,207,189,-86,-333,-338,-278,-176,-83,-53,-47,-39
2019-05-31,10:47:16.823,-97,-93,-90,-82,-78,-78,-73,-63,-59,-51,-52,-45,-34,-23,-10,12,28,45,60,70,72,65,60,49,30,9,-15,-36,-63,-86,-96,-97,-103,-108,-111,-109,-105,-95,-81,-67,-49,-35,-28,-20,-15,-11,-12,-16,-15,-23,-26,-32,-25,-28,-31,-21,-13,-8,-15,-26,-31,-45,-54,-55,-62,-62,-65,-66,-69,-67,-66,-65,-70,-73,8,180,269,128,-268,-393,-339,-219,-88,-49,-31,-27,-23,-22,-19,-12,-6,-2,0,7,13,18,28,29,23,21,26,37,48,64,69,62,60,67,74,76,75,70,58,42,26,10,-7,-25,-36,-42,-50,-60,-64,-65,-63,-61,-55,-49
2019-05-31,10:47:17.848,-60,-57,-49,-47,-41,-36,-38,-34,-32,-31,-33,-28,-13,-11,-11,-6,12,30,23,10,1,-11,-21,-23,-26,-28,-24,-23,-29,-27,-23,-23,-21,-33,5,179,305,276,-74,-353,-355,-256,-116,-39,-30,-22,-8,-12,-7,0,-13,-8,6,14,15,25,36,51,59,68,67,72,83,100,105,116,120,121,119,108,93,79,73,51,24,-1,0,-11,-20,-26,-26,-22,-25,-18,-16,-15,-1,-5,-24,-57,-21,-35,30,20,-5,-5,-40,-25,24,22,38,38,42,43,46,38,31,15,-4,-18,-18,-28,-73,-32,-50,-72,-8,-24,-53,-35,-21,85,214,217,-14,-355,-326,-242
2019-05-31,10:47:18.873,-79,11,31,54,20,23,52,42,38,48,50,49,53,55,40,58,86,81,92,99,113,128,138,150,150,135,153,166,152,134,114,94,72,26,10,50,45,27,21,20,16,10,16,17,22,26,19,27,28,26,18,17,19,9,6,9,-2,-11,0,-14,26,27,30,40,28,18,47,24,-3,-4,-14,-16,-23,-24,-26,-30,-39,-38,-43,-43,-41,31,178,237,90,-274,-410,-348,-179,-52,-38,-26,-24,-20,-15,-14,-18,-18,-15,16,11,10,7,15,20,29,44,50,60,82,100,107,132,130,135,133,129,113,90,62,37,13,-10,-36,-57,-38,-54,-15
2019-05-31,10:47:19.897,26,28,28,20,30,46,33,67,54,48,70,68,68,65,59,55,49,41,35,34,44,41,61,64,69,84,73,65,45,21,27,30,13,37,33,18,10,10,10,11,5,-3,50,192,308,218,-141,-346,-318,-207,-71,-2,6,27,7,51,51,38,28,37,43,37,33,45,39,41,52,48,55,53,68,80,98,123,136,117,138,137,124,112,91,64,39,25,11,-1,-7,-17,-23,-29,-31,-38,-34,-33,-26,-33,-35,-28,-19,-14,-29,-21,-14,-14,-16,-15,-16,-20,-14,-15,-43,8,26,28,14,4,1,-17,-29,-35,-37,-37,-38,-38,-35,-37,-36,-38
2019-05-31,10:47:20.922,-9,-10,-4,77,207,224,42,-273,-324,-261,-173,-82,-1,11,15,15,20,27,29,33,37,37,33,34,36,37,38,47,53,58,71,88,103,133,143,131,133,132,133,125,103,87,63,46,34,23,16,1,30,18,19,1,-7,26,6,-44,-96,-93,-48,66,37,45,-14,20,18,29,35,24,36,-1,139,72,112,84,80,74,60,20,-12,-26,-33,-43,-23,-31,-24,-51,-68,-53,-61,-86,10,142,248,268,55,-318,-342,-245,-125,-63,-71,-53,-39,-42,-13,-38,-39,-38,-38,-51,-68,-42,-8,-28,-18,-9,-3,-5,4,22,30,41,34,31,27,63,43,21
