2019-06-06,16:34:19.806,4,3,2,1,6,13,19,28,42,56,73,72,60,37,16,2,-5,-9,-12,-11,-10,-14,-16,-20,-22,-20,-22,-24,-27,-25,-20,-24,-24,-27,-29,-28,-32,-35,-30,-33,-33,-35,-34,-38,-34,-33,-34,-28,-28,-27,-29,-30,-25,-28,-24,-9,-10,-9,-7,-18,-33,-37,-33,-30,-34,-40,-46,-103,-347,-409,-46,903,1304,554,-9,-239,-143,-84,-67,-61,-52,-50,-44,-45,-51,-56,-54,-42,-27,-5,-3,21,23,16,13,17,13,14,15,18,28,43,56,52,31,8,-4,-10,-22,-28,-34,-37,-34,-36,-33,-38,-37,-31,-30,-27,-24,-22,-24,-30,-33,-30,-38,-35
2019-06-06,16:34:20.830,-12,-16,-4,-6,-10,-10,-11,-10,-13,-13,-15,-19,-21,-25,-19,-14,0,16,11,9,15,3,-8,-13,-13,-13,-18,-20,-25,-108,-403,-444,79,1210,1494,737,189,19,-20,-40,-52,-61,-59,-61,-60,-59,-59,-58,-59,-56,-59,-67,-73,-84,-95,-105,-115,-123,-125,-125,-118,-110,-93,-68,-42,-28,-21,-19,-26,-28,-25,-26,-25,-30,-28,-28,-29,-30,-26,-23,-20,-20,-18,-18,-15,-10,-10,-11,-10,-9,-9,-6,-9,-8,-6,-4,-3,-6,-9,-7,-8,1,6,11,15,11,11,-3,-6,-3,-6,-2,-2,-4,-24,-208,-482,-338,543,1632,1308,630,179,51,-15,-31,-43,-45
2019-06-06,16:34:21.855,-27,-33,-35,-35,-36,-36,-36,-38,-39,-48,-57,-62,-78,-90,-96,-102,-104,-98,-90,-75,-51,-23,-11,-3,-5,-11,-13,-15,-15,-13,-17,-13,-20,-22,-22,-23,-25,-24,-20,-22,-23,-19,-19,-16,-14,-14,-17,-17,-17,-18,-23,-22,-27,-28,-30,-31,-23,-12,-2,4,4,8,-7,-19,-23,-27,-27,-29,-29,-41,-158,-463,-444,228,1384,1403,695,172,23,-37,-58,-64,-67,-68,-69,-74,-73,-73,-73,-73,-75,-75,-78,-83,-91,-102,-108,-115,-117,-114,-110,-101,-87,-69,-46,-26,-18,-22,-30,-36,-41,-40,-39,-34,-33,-31,-30,-30,-32,-31,-32,-30,-33,-34,-35,-35,-32,-37
2019-06-06,16:34:22.880,-66,-68,-63,-60,-61,-61,-63,-67,-69,-57,-47,-44,-39,-36,-34,-49,-61,-62,-62,-64,-62,-60,-67,-152,-449,-476,64,1196,1351,574,66,-84,-78,-84,-85,-87,-85,-84,-81,-78,-70,-70,-66,-59,-61,-58,-55,-54,-52,-51,-54,-49,-47,-38,-28,-15,4,23,30,21,0,-20,-35,-44,-50,-48,-49,-53,-50,-51,-50,-46,-50,-49,-48,-47,-44,-43,-46,-45,-39,-42,-41,-40,-45,-46,-44,-46,-47,-47,-27,-16,-10,-5,-12,-15,-34,-43,-40,-40,-41,-40,-39,-53,-193,-443,-355,320,1371,1021,265,-190,-199,-99,-79,-71,-65,-57,-54,-51,-46,-38,-35,-33,-30,-28,-21,-12
2019-06-06,16:34:23.904,-74,-66,-63,-57,-46,-36,-26,-18,-2,16,28,22,6,-17,-39,-55,-69,-72,-76,-78,-73,-76,-74,-74,-73,-72,-73,-70,-67,-67,-62,-60,-58,-62,-59,-58,-58,-57,-57,-60,-59,-52,-30,-29,-23,-19,-21,-32,-47,-50,-48,-48,-47,-46,-49,-104,-352,-428,-54,925,1288,462,-97,-283,-147,-86,-66,-58,-53,-46,-42,-39,-38,-34,-28,-19,-17,-11,-6,0,7,15,20,29,38,48,62,77,87,101,104,82,51,25,5,-7,-17,-23,-24,-27,-26,-28,-27,-27,-28,-29,-26,-24,-23,-26,-25,-23,-21,-19,-20,-24,-24,-22,-25,-27,-31,-28,-25,-11,2,2,11,7
2019-06-06,16:34:24.929,-28,-41,-51,-56,-58,-59,-53,-55,-66,-150,-411,-432,56,1097,1209,365,-185,-259,-134,-96,-84,-79,-76,-74,-69,-65,-63,-55,-53,-48,-47,-43,-35,-31,-22,-12,-5,0,7,24,37,51,66,80,86,66,35,10,-14,-31,-43,-45,-48,-52,-49,-47,-46,-47,-48,-46,-46,-47,-44,-44,-40,-41,-39,-35,-36,-35,-34,-34,-38,-42,-38,-37,-37,-38,-40,-36,-22,-6,1,6,-4,-4,-15,-29,-36,-35,-37,-36,-35,-45,-111,-369,-425,14,1043,1302,442,-131,-243,-117,-69,-53,-45,-42,-39,-35,-34,-29,-27,-27,-24,-19,-11,-6,-2,3,7,12,20,27,40,52,65,83
2019-06-06,16:34:25.953,98,102,85,59,30,5,-8,-21,-29,-30,-31,-34,-32,-34,-31,-34,-30,-32,-34,-33,-35,-32,-30,-29,-27,-26,-26,-30,-29,-29,-30,-29,-35,-34,-33,-32,-31,-31,-30,-31,-30,-22,-18,-5,8,-1,-2,-4,-24,-34,-34,-36,-37,-36,-38,-56,-207,-449,-336,371,1370,932,175,-246,-188,-96,-73,-66,-56,-49,-45,-43,-43,-37,-34,-32,-27,-22,-18,-12,-6,0,7,10,19,33,42,51,63,76,90,93,77,46,18,-5,-17,-29,-32,-32,-32,-32,-34,-35,-36,-33,-33,-32,-34,-32,-32,-29,-31,-28,-24,-29,-28,-27,-29,-29,-28,-28,-32,-28,-30,-28,-28,-27
2019-06-06,16:34:26.978,-9,-6,-1,3,3,19,26,15,17,17,4,-13,-17,-18,-17,-19,-25,-33,-113,-372,-381,92,1092,1195,400,-142,-247,-113,-70,-55,-44,-42,-35,-30,-28,-25,-20,-17,-10,-4,0,2,1,12,13,20,26,38,45,56,70,83,101,106,89,63,38,9,-4,-17,-23,-27,-28,-29,-30,-30,-33,-33,-33,-34,-31,-32,-29,-24,-27,-24,-29,-27,-26,-27,-28,-34,-36,-38,-35,-35,-32,-33,-36,-36,-34,-34,-36,-34,-33,-19,-16,-20,-20,-31,-38,-45,-48,-45,-46,-50,-54,-115,-320,-350,11,826,999,247,-166,-367,-238,-108,-72,-57,-44,-42,-30,-26,-24,-15,-8,-2
2019-06-06,16:34:28.003,37,44,53,63,75,85,99,112,129,143,154,166,174,180,175,152,114,76,42,18,0,-9,-8,-13,-15,-18,-19,-17,-16,-14,-14,-12,-7,-6,-5,1,-1,-2,-5,-5,-8,-4,-6,-10,-10,-15,-14,-13,-12,-10,-13,-10,-5,-2,4,17,25,23,16,19,4,-10,-16,-19,-18,-21,-21,-27,-96,-328,-356,72,1010,1110,325,-162,-254,-109,-59,-42,-34,-26,-22,-15,-13,-8,-5,-1,2,7,17,26,36,43,50,59,64,78,85,99,117,132,148,147,131,100,65,43,18,7,2,1,-1,-5,-3,-4,-6,-3,-6,-2,-5,-8,-8,-5,-6,-4,-4,-3
2019-06-06,16:34:29.027,-6,-8,-8,-8,-9,-12,-11,-14,-14,-12,-10,-10,-13,-9,-12,-13,-10,-5,4,13,17,7,11,1,-7,-17,-21,-25,-22,-27,-27,-58,-256,-413,-177,653,1355,632,3,-261,-139,-72,-51,-47,-43,-38,-30,-28,-28,-25,-22,-17,-14,-10,0,0,3,9,16,30,40,55,67,77,93,110,126,122,97,67,42,15,0,-13,-19,-21,-24,-29,-30,-33,-36,-33,-32,-35,-31,-35,-38,-34,-34,-35,-37,-39,-37,-39,-38,-38,-40,-41,-43,-42,-38,-39,-38,-40,-40,-43,-44,-43,-41,-38,-41,-35,-16,-19,-21,-25,-34,-43,-45,-46,-46,-45,-46,-67,-235,-414,-247,469
2019-06-06,16:34:30.052,1312,739,87,-273,-200,-89,-52,-43,-34,-27,-22,-18,-15,-11,-3,-1,1,7,14,17,25,35,45,54,67,79,93,102,113,130,144,139,117,89,55,31,14,0,-11,-14,-15,-12,-14,-14,-15,-14,-9,-16,-19,-18,-19,-17,-18,-20,-18,-23,-26,-28,-28,-27,-31,-30,-32,-32,-33,-29,-27,-30,-27,-28,-28,-26,-33,-34,-39,-13,-9,-17,-12,-14,-24,-32,-36,-35,-38,-37,-61,-239,-399,-202,565,1284,552,-51,-342,-198,-91,-59,-48,-43,-33,-27,-27,-23,-22,-17,-13,-10,-5,1,8,15,19,28,35,46,61,71,81,92,105,119,117,95,61,31,4,-13
2019-06-06,16:34:31.077,83,81,76,73,71,75,73,70,71,69,74,72,72,69,69,72,67,66,64,58,58,58,56,56,53,53,52,53,53,49,47,41,44,47,45,45,41,33,51,66,60,57,53,44,33,33,32,34,35,26,-62,-300,-300,188,1118,1041,255,-197,-271,-78,-20,0,7,16,23,29,27,32,36,34,39,42,49,57,59,64,70,78,85,92,104,106,112,121,129,139,128,101,68,38,18,3,-4,-7,-8,-10,-9,-9,-11,-7,-5,-9,-6,-5,-7,-10,-14,-15,-12,-15,-16,-18,-22,-19,-23,-22,-26,-26,-24,-27,-23,-22,-24,-24,-24,-26,-32,-32
2019-06-06,16:34:32.101,-31,-10,0,-8,-6,-11,-21,-26,-24,-24,-24,-25,-42,-198,-418,-287,411,1328,780,88,-302,-226,-93,-59,-47,-38,-30,-24,-19,-18,-15,-12,-10,-9,0,6,11,21,26,31,37,42,50,55,62,71,82,99,102,83,57,27,5,-11,-19,-27,-28,-28,-30,-30,-27,-26,-24,-26,-23,-21,-21,-19,-20,-19,-20,-22,-21,-25,-26,-26,-29,-29,-31,-34,-36,-38,-36,-36,-32,-29,-37,-42,-39,-42,-26,-15,-20,-22,-25,-34,-39,-40,-36,-34,-36,-48,-161,-404,-368,195,1177,985,216,-233,-330,-154,-90,-70,-57,-47,-46,-32,-25,-23,-25,-23,-13,-8,-7,0,9,19
2019-06-06,16:34:33.126,38,46,55,66,76,81,96,109,117,116,96,66,35,7,-4,-19,-25,-31,-33,-28,-32,-27,-29,-31,-32,-36,-29,-26,-26,-26,-29,-29,-31,-31,-32,-35,-34,-37,-37,-36,-40,-39,-36,-31,-27,-21,-13,-4,-12,-4,-12,-28,-38,-39,-41,-39,-37,-39,-65,-223,-368,-167,526,1140,411,-94,-388,-378,-151,-84,-61,-44,-30,-25,-11,-4,3,5,14,27,36,45,53,63,81,94,115,128,143,160,166,176,183,180,159,113,67,28,0,-17,-30,-34,-35,-34,-31,-34,-34,-31,-32,-34,-30,-26,-24,-22,-17,-25,-24,-26,-27,-31,-33,-35,-37,-38,-40,-42,-44,-42
2019-06-06,16:34:34.151,-12,10,13,19,14,14,2,-17,-23,-26,-28,-26,-26,-30,-70,-291,-432,-133,794,1373,521,-132,-297,-142,-75,-51,-41,-36,-28,-28,-29,-24,-23,-24,-22,-20,-16,-15,-7,-3,1,9,14,23,31,43,59,75,97,112,105,84,54,28,2,-14,-20,-28,-25,-28,-29,-31,-36,-30,-32,-34,-34,-39,-32,-33,-33,-33,-35,-31,-30,-29,-29,-32,-33,-31,-32,-33,-33,-30,-28,-26,-15,-6,11,0,0,-7,-21,-26,-37,-39,-42,-44,-40,-54,-198,-436,-332,358,1325,841,63,-344,-248,-120,-78,-67,-59,-52,-47,-42,-35,-34,-28,-28,-21,-14,-9,-5,2,12,14,26
2019-06-06,16:34:35.175,57,62,78,93,108,122,137,134,117,81,51,27,10,-3,-7,-7,-9,-15,-18,-19,-12,-17,-18,-19,-17,-20,-22,-23,-21,-25,-21,-26,-21,-24,-30,-28,-24,-22,-23,-23,-24,-25,-17,-10,5,16,8,2,1,-12,-23,-30,-31,-29,-31,-34,-36,-114,-334,-333,138,1038,939,174,-234,-340,-150,-80,-55,-45,-35,-33,-26,-18,-14,-11,-8,0,5,12,22,25,32,47,55,62,70,80,90,96,109,121,120,94,62,29,1,-23,-31,-34,-37,-41,-42,-43,-45,-44,-46,-46,-45,-46,-44,-49,-51,-47,-48,-46,-45,-52,-52,-53,-52,-56,-50,-51,-55,-55,-53,-48
2019-06-06,16:34:36.200,-18,-6,7,0,-3,0,-13,-25,-29,-28,-29,-28,-28,-36,-77,-276,-331,13,820,1015,232,-171,-360,-202,-85,-57,-44,-34,-20,-13,-7,-5,4,7,15,22,34,47,56,71,80,93,108,120,134,143,154,166,176,169,143,103,65,32,12,0,-6,-12,-17,-15,-15,-19,-16,-18,-21,-19,-19,-17,-16,-20,-20,-19,-17,-19,-21,-22,-21,-20,-25,-29,-30,-32,-33,-31,-30,-28,-22,4,5,-4,-6,-12,-29,-37,-40,-40,-42,-47,-49,-55,-162,-397,-335,246,1183,907,164,-260,-218,-114,-74,-64,-57,-51,-44,-41,-40,-38,-37,-29,-22,-17,-12,-6,4,6,12,21
2019-06-06,16:34:37.224,66,73,87,98,115,129,145,146,122,95,61,40,16,4,-4,-8,-7,-10,-13,-8,-11,-8,-9,-11,-10,-12,-13,-12,-12,-10,-15,-14,-15,-18,-19,-23,-21,-20,-24,-24,-20,-16,-12,-11,10,17,9,6,0,-15,-28,-31,-33,-35,-37,-36,-41,-93,-319,-384,-16,879,1183,396,-140,-289,-144,-85,-65,-57,-50,-44,-41,-39,-33,-34,-28,-23,-21,-14,-8,-2,0,8,16,20,29,37,46,61,72,92,96,85,57,24,-3,-19,-33,-47,-49,-49,-48,-50,-53,-52,-54,-56,-55,-49,-47,-46,-44,-43,-45,-44,-42,-40,-36,-38,-37,-35,-34,-37,-33,-35,-36,-40
2019-06-06,16:34:38.249,3,7,13,14,14,36,35,22,26,24,8,0,-4,-6,-10,-5,-7,-31,-186,-332,-144,545,1199,519,9,-299,-249,-82,-44,-27,-16,-3,-1,3,5,11,13,15,26,34,40,47,55,66,80,92,103,109,123,135,144,151,152,143,110,77,45,17,2,-7,-18,-20,-19,-19,-21,-19,-18,-23,-22,-22,-24,-23,-21,-20,-25,-25,-27,-31,-31,-34,-34,-37,-38,-40,-44,-43,-43,-44,-41,-34,-34,-31,-32,-17,-11,-17,-18,-15,-30,-41,-43,-47,-46,-44,-47,-53,-136,-384,-385,110,1074,1075,295,-203,-227,-121,-80,-68,-62,-58,-50,-45,-47,-41,-43,-39,-35,-34
2019-06-06,16:34:39.274,4,11,18,22,24,26,32,39,50,60,73,86,103,116,105,78,51,34,15,0,-2,-9,-12,-16,-14,-14,-15,-14,-16,-13,-16,-21,-18,-17,-18,-16,-17,-18,-15,-18,-17,-19,-20,-24,-26,-24,-29,-26,-26,-24,-17,-17,-18,-21,-8,3,0,-3,-4,-16,-30,-33,-31,-29,-32,-31,-46,-190,-414,-301,365,1269,809,109,-286,-211,-98,-63,-53,-47,-39,-32,-32,-29,-28,-25,-26,-19,-13,-11,-4,0,9,16,21,30,36,47,57,67,86,98,103,87,56,27,6,-10,-23,-32,-30,-32,-30,-29,-29,-30,-30,-28,-28,-30,-28,-29,-32,-31,-31,-34,-34,-35
2019-06-06,16:34:40.298,-18,-17,-17,-15,-16,-19,-24,-26,-24,-26,-24,-21,-17,-21,-31,-6,-3,-5,-8,-14,-25,-33,-29,-29,-29,-30,-38,-125,-353,-334,142,1049,971,228,-233,-304,-137,-73,-56,-43,-36,-34,-28,-26,-20,-16,-14,-6,-3,6,14,24,28,37,47,55,63,75,80,92,104,119,119,103,75,43,21,3,-9,-15,-23,-25,-23,-25,-24,-25,-23,-22,-20,-18,-18,-18,-21,-23,-22,-26,-24,-19,-24,-26,-26,-27,-27,-30,-32,-35,-35,-32,-34,-35,-34,-35,-42,-38,-16,-16,-21,-23,-29,-35,-39,-40,-36,-38,-39,-81,-298,-410,-108,765,1206,377,-155,-343,-176,-93,-68,-57
2019-06-06,16:34:41.323,-33,-24,-23,-23,-16,-11,-8,-5,-1,2,6,15,21,26,35,42,50,59,64,78,90,105,113,102,79,49,27,5,-6,-14,-19,-17,-21,-22,-18,-24,-24,-22,-19,-20,-22,-23,-23,-25,-26,-27,-27,-30,-29,-30,-30,-29,-29,-30,-29,-31,-28,-34,-35,-32,-30,-30,-33,-38,-40,-38,-13,-9,-12,-13,-22,-29,-32,-30,-29,-30,-30,-61,-258,-420,-189,629,1313,554,-66,-322,-165,-83,-56,-51,-43,-37,-36,-33,-28,-29,-24,-22,-16,-14,-7,0,5,8,13,17,24,30,38,46,60,77,88,87,70,44,22,1,-13,-23,-30,-29,-32,-30,-28,-33,-29,-30
2019-06-06,16:34:42.348,-24,-26,-27,-25,-21,-23,-27,-27,-25,-27,-27,-28,-30,-29,-28,-26,-31,-33,-32,-33,-29,-29,-28,-25,-31,-33,-32,-34,-9,-6,-10,-10,-18,-26,-29,-28,-28,-30,-29,-55,-229,-416,-234,530,1316,636,2,-318,-190,-89,-57,-52,-44,-34,-25,-22,-19,-19,-17,-14,-9,0,3,8,10,13,18,26,35,39,45,52,65,81,95,97,81,55,29,11,3,-4,-17,-20,-20,-17,-16,-15,-16,-16,-13,-14,-15,-11,-13,-13,-16,-21,-20,-19,-18,-23,-25,-22,-23,-22,-21,-21,-20,-23,-25,-26,-25,-24,-26,-23,-31,-21,0,-1,-3,-7,-15,-26,-27,-22,-23,-27
2019-06-06,16:34:43.372,-27,-68,-281,-388,-85,763,1220,396,-111,-364,-210,-84,-55,-47,-36,-23,-23,-17,-14,-13,-5,0,9,18,24,31,39,47,54,59,71,76,85,92,101,110,111,104,79,47,20,-3,-18,-27,-32,-33,-36,-36,-36,-33,-28,-28,-27,-24,-25,-20,-20,-22,-24,-24,-26,-28,-28,-27,-30,-28,-30,-30,-33,-33,-33,-37,-35,-36,-36,-27,-26,-24,-17,0,-4,-4,-2,-18,-30,-30,-34,-35,-35,-37,-51,-177,-411,-336,296,1251,876,123,-302,-225,-102,-68,-57,-47,-39,-33,-30,-27,-25,-26,-26,-22,-14,-7,-3,2,3,10,18,19,26,34,48,63,75,89,94,81
2019-06-06,16:34:44.397,64,40,14,-5,-16,-22,-25,-25,-23,-23,-22,-19,-20,-21,-23,-22,-20,-19,-21,-20,-23,-23,-22,-23,-22,-26,-24,-24,-28,-27,-30,-29,-27,-25,-24,-24,-21,-14,0,4,-1,2,0,-18,-28,-35,-34,-35,-36,-38,-55,-200,-424,-319,368,1299,811,81,-312,-214,-97,-63,-54,-49,-42,-37,-35,-30,-29,-26,-21,-18,-12,-5,2,6,11,16,21,29,34,40,49,62,78,91,93,79,53,30,6,-11,-21,-28,-31,-35,-33,-31,-32,-34,-35,-31,-29,-27,-26,-31,-31,-33,-30,-31,-27,-27,-28,-30,-33,-35,-32,-33,-31,-29,-27,-28,-22,-23,-20,-5,9,4
2019-06-06,16:34:45.422,9,13,3,-13,-20,-22,-21,-26,-27,-30,-85,-307,-362,8,883,1126,308,-157,-366,-205,-87,-53,-40,-30,-21,-15,-10,-7,2,8,13,21,23,31,41,46,54,64,78,83,91,101,107,122,128,125,106,77,51,24,1,-9,-17,-26,-27,-30,-29,-27,-25,-26,-27,-24,-22,-23,-19,-21,-23,-18,-24,-24,-24,-26,-30,-32,-34,-31,-32,-32,-32,-32,-33,-33,-28,-23,-13,7,0,-9,-8,-13,-33,-42,-45,-41,-42,-42,-44,-74,-260,-430,-224,579,1315,570,-57,-362,-218,-110,-73,-65,-57,-46,-38,-37,-33,-30,-30,-26,-19,-11,-5,1,8,13,21,28,34,44
2019-06-06,16:34:46.446,69,80,93,109,120,116,95,62,34,12,-2,-11,-14,-19,-20,-19,-20,-19,-18,-17,-20,-20,-15,-17,-19,-18,-18,-22,-20,-20,-20,-23,-24,-21,-26,-24,-23,-25,-24,-27,-26,-22,-19,-9,-9,5,15,4,-4,-7,-18,-30,-37,-35,-38,-39,-38,-45,-122,-375,-401,65,1053,1144,294,-248,-283,-129,-79,-68,-56,-50,-45,-40,-39,-35,-33,-29,-26,-22,-16,-11,-4,1,6,10,17,27,38,47,59,74,89,101,91,68,40,16,-2,-18,-28,-27,-31,-29,-30,-31,-33,-33,-32,-30,-30,-30,-33,-32,-32,-31,-29,-31,-28,-29,-28,-30,-32,-29,-30,-29,-31,-35
2019-06-06,16:34:47.471,-11,-12,-10,-7,-1,2,23,31,21,16,16,1,-11,-16,-17,-18,-22,-19,-25,-115,-367,-380,123,1113,1102,274,-240,-255,-107,-62,-46,-40,-31,-27,-19,-22,-21,-17,-15,-10,-3,-2,6,13,15,23,29,34,41,46,53,66,80,97,107,97,73,47,24,1,-7,-16,-16,-15,-18,-18,-21,-23,-23,-24,-20,-25,-23,-24,-24,-23,-30,-30,-32,-32,-31,-33,-30,-28,-28,-30,-33,-34,-36,-34,-31,-36,-32,-29,-21,-18,-11,0,-7,-14,-9,-17,-33,-42,-44,-44,-44,-43,-49,-102,-341,-421,-54,868,1249,418,-155,-320,-158,-89,-73,-66,-53,-49,-47,-44,-42,-39
2019-06-06,16:34:48.496,-21,-18,-11,-2,2,6,12,19,20,27,34,43,50,58,74,87,97,96,73,49,25,3,-9,-17,-20,-22,-20,-20,-21,-21,-22,-20,-21,-25,-27,-24,-23,-22,-23,-19,-24,-25,-22,-24,-28,-28,-28,-28,-32,-33,-34,-32,-34,-33,-27,-24,-22,-1,-4,-11,-9,-11,-28,-42,-44,-45,-45,-44,-47,-66,-228,-405,-242,456,1214,540,-42,-380,-321,-136,-86,-71,-58,-47,-39,-37,-33,-28,-26,-17,-13,-8,0,7,14,20,30,40,48,59,68,72,80,89,99,91,66,34,7,-15,-32,-43,-47,-51,-48,-46,-47,-47,-47,-44,-47,-47,-45,-44,-41,-44,-43,-45
2019-06-06,16:34:49.520,-4,-7,-8,-14,-13,-12,-14,-17,-19,-17,-20,-15,-17,-18,-17,-11,-4,-3,11,23,12,11,8,2,-16,-25,-24,-31,-31,-31,-38,-101,-356,-400,40,1012,1176,331,-217,-261,-117,-66,-57,-45,-41,-34,-29,-31,-30,-27,-25,-18,-12,-8,-3,-2,4,6,11,17,26,34,42,55,65,79,91,87,69,39,16,0,-13,-22,-27,-29,-25,-23,-21,-24,-27,-24,-27,-23,-27,-25,-22,-24,-25,-25,-30,-27,-29,-30,-32,-31,-34,-36,-32,-33,-34,-32,-30,-25,-21,-21,-3,3,-8,-7,-5,-20,-35,-38,-40,-40,-41,-45,-49,-122,-373,-402,54,1031,1125,282,-240,-278
2019-06-06,16:34:50.545,-111,-62,-50,-45,-36,-32,-26,-23,-22,-19,-21,-15,-12,-5,-1,1,8,12,22,25,35,40,48,61,71,85,95,85,64,41,22,0,-14,-19,-23,-25,-27,-26,-29,-26,-24,-23,-25,-24,-27,-21,-22,-26,-26,-27,-24,-28,-30,-27,-29,-28,-32,-33,-39,-38,-47,-41,-30,-18,-18,2,7,-1,0,0,-14,-31,-36,-35,-43,-45,-44,-53,-144,-391,-384,139,1109,987,190,-282,-298,-137,-87,-75,-65,-58,-52,-45,-42,-39,-33,-31,-27,-20,-10,1,3,13,15,17,25,37,50,57,66,80,91,93,75,47,21,-2,-18,-31,-36,-41,-45,-42,-42,-42,-41,-40
2019-06-06,16:34:51.569,-20,-20,-20,-20,-19,-20,-19,-23,-23,-25,-27,-30,-32,-30,-29,-30,-30,-28,-30,-31,-25,-22,-13,7,5,-2,-3,-4,-22,-31,-34,-38,-37,-39,-40,-61,-218,-374,-194,515,1215,512,-43,-362,-302,-123,-81,-60,-49,-44,-34,-30,-23,-18,-13,-2,2,13,18,25,35,40,51,61,71,83,90,99,107,117,120,106,80,50,21,-2,-19,-26,-29,-37,-35,-36,-34,-36,-34,-31,-33,-31,-33,-34,-30,-34,-28,-30,-32,-31,-34,-35,-38,-39,-36,-37,-39,-39,-33,-27,-24,-10,12,6,-4,-3,-11,-28,-38,-39,-40,-41,-41,-40,-75,-289,-430,-152,729,1303,492,-122
2019-06-06,16:34:52.594,-301,-144,-74,-50,-47,-40,-36,-26,-25,-22,-21,-22,-17,-12,-10,-1,6,12,15,22,30,38,46,53,67,80,95,107,100,76,52,26,7,-7,-16,-22,-22,-22,-25,-20,-21,-23,-26,-31,-28,-27,-25,-24,-27,-28,-29,-26,-25,-27,-23,-28,-29,-27,-30,-26,-28,-25,-20,-16,-2,10,16,0,-1,-6,-24,-33,-36,-39,-44,-42,-41,-60,-226,-424,-259,498,1309,645,-39,-342,-194,-99,-74,-62,-53,-48,-46,-40,-35,-37,-30,-23,-25,-14,-12,-6,0,11,21,29,32,47,63,76,86,100,112,104,89,60,30,9,-11,-21,-27,-24,-25,-30,-26,-29,-28,-29
2019-06-06,16:34:53.619,-48,-45,-49,-47,-51,-51,-44,-49,-51,-46,-45,-46,-49,-49,-48,-50,-50,-47,-47,-46,-45,-43,-36,-20,-10,-8,-20,-20,-30,-45,-55,-59,-61,-58,-61,-62,-106,-323,-410,-95,760,1204,422,-100,-328,-193,-109,-86,-72,-63,-63,-53,-53,-43,-40,-40,-37,-26,-16,-10,-3,1,11,17,26,36,45,53,62,73,85,92,82,58,31,4,-11,-25,-32,-35,-38,-37,-40,-34,-35,-37,-31,-33,-34,-29,-32,-30,-29,-30,-30,-32,-31,-35,-34,-36,-37,-35,-37,-36,-39,-40,-34,-20,-8,0,-6,-6,-14,-32,-38,-39,-39,-44,-45,-46,-56,-146,-346,-291,237,1051,714,60
2019-06-06,16:34:54.643,-276,-335,-141,-76,-55,-41,-35,-29,-19,-17,-12,-7,-1,5,13,26,33,40,51,60,70,80,89,100,106,114,124,125,113,84,51,21,-3,-14,-24,-26,-26,-32,-27,-29,-28,-31,-32,-32,-32,-32,-33,-30,-31,-30,-29,-32,-33,-36,-37,-38,-41,-47,-46,-42,-46,-46,-42,-25,-10,-7,0,-8,-11,-29,-35,-39,-39,-41,-42,-43,-47,-117,-356,-396,43,1006,1119,313,-206,-249,-123,-80,-69,-63,-57,-50,-45,-44,-42,-39,-37,-34,-32,-29,-23,-16,-12,-4,3,10,12,21,37,47,58,72,81,69,46,21,1,-18,-31,-40,-40,-43,-42,-41,-38,-35,-36,-38
2019-06-06,16:34:55.668,-36,-39,-41,-41,-39,-40,-39,-40,-41,-39,-39,-39,-39,-39,-42,-41,-43,-45,-41,-31,-11,-5,0,-11,-10,-20,-39,-48,-46,-47,-52,-56,-53,-75,-241,-429,-262,479,1271,635,-6,-323,-200,-111,-79,-71,-65,-57,-52,-52,-46,-44,-39,-37,-33,-31,-26,-16,-10,-5,4,11,23,34,42,55,70,85,96,89,68,43,18,0,-18,-24,-31,-33,-32,-33,-31,-34,-32,-30,-31,-32,-31,-29,-32,-33,-31,-33,-32,-38,-40,-37,-36,-35,-41,-41,-39,-44,-39,-42,-25,-8,0,-2,-12,-14,-26,-40,-45,-45,-48,-49,-52,-55,-127,-365,-390,48,988,1076,282,-222,-318,-154
2019-06-06,16:34:56.693,-76,-58,-51,-42,-34,-32,-31,-27,-26,-20,-14,-7,-1,2,8,9,17,29,37,47,58,72,86,96,113,113,101,71,42,18,-2,-12,-19,-25,-22,-29,-31,-29,-27,-26,-26,-26,-22,-22,-24,-23,-21,-16,-20,-18,-21,-21,-25,-30,-27,-23,-26,-27,-28,-25,-20,-5,9,16,9,8,2,-15,-27,-30,-34,-36,-36,-37,-40,-127,-339,-311,187,1050,779,64,-311,-407,-193,-98,-70,-55,-44,-30,-25,-18,-15,-11,-4,0,7,15,22,32,40,49,59,68,82,92,100,113,121,126,118,87,53,24,1,-15,-25,-30,-35,-36,-36,-38,-36,-32,-33,-31,-32,-29
2019-06-06,16:34:57.717,-16,-16,-19,-17,-18,-23,-26,-25,-24,-24,-25,-24,-29,-32,-27,-29,-26,-25,-19,-14,-3,13,15,5,4,-6,-20,-32,-35,-36,-38,-34,-38,-61,-243,-437,-240,566,1338,640,-42,-302,-161,-87,-60,-57,-47,-44,-37,-34,-35,-33,-28,-24,-24,-20,-16,-13,-8,1,3,11,17,28,42,52,64,77,88,86,69,46,17,-1,-16,-24,-31,-36,-35,-32,-32,-28,-30,-30,-29,-29,-31,-34,-33,-31,-33,-30,-31,-32,-30,-37,-32,-34,-39,-43,-41,-35,-29,-29,-29,-24,-25,-18,1,3,-7,-4,-10,-23,-34,-36,-37,-41,-41,-38,-64,-223,-400,-228,493,1273,621,-15
2019-06-06,16:34:58.742,-340,-242,-97,-60,-45,-33,-26,-22,-15,-15,-9,-4,-4,3,13,20,26,34,40,46,56,66,81,92,102,118,129,137,130,100,70,42,19,0,-14,-21,-26,-28,-28,-33,-33,-34,-34,-29,-27,-27,-25,-24,-24,-26,-23,-22,-20,-22,-29,-30,-29,-37,-34,-34,-36,-29,-30,-31,-32,-27,-21,-7,-8,-11,-12,-29,-44,-48,-45,-44,-46,-48,-53,-113,-309,-315,94,887,859,83,-295,-439,-242,-110,-75,-60,-48,-33,-28,-23,-13,-9,-3,3,9,14,22,32,43,57,66,80,99,116,127,141,148,152,140,110,75,40,14,-11,-25,-31,-36,-39,-40,-41,-42,-39
2019-06-06,16:34:59.767,-37,-37,-39,-41,-40,-34,-30,-36,-35,-36,-37,-39,-43,-41,-44,-47,-46,-46,-50,-54,-47,-45,-45,-29,-16,-11,-13,-20,-21,-40,-54,-57,-55,-60,-59,-60,-63,-126,-307,-287,137,875,699,-22,-357,-434,-223,-104,-72,-56,-45,-35,-23,-24,-18,-8,-6,1,13,19,30,36,47,58,73,89,101,118,131,143,156,161,152,123,85,48,16,-7,-21,-32,-34,-36,-38,-41,-44,-38,-40,-39,-40,-36,-34,-33,-31,-35,-37,-35,-36,-37,-35,-42,-41,-41,-41,-42,-43,-39,-41,-44,-42,-34,-24,-5,3,7,-8,-9,-20,-37,-47,-48,-46,-53,-53,-51,-97,-313,-400,-44
2019-06-06,16:35:00.791,874,1158,327,-202,-257,-118,-61,-46,-41,-31,-29,-21,-16,-19,-15,-16,-16,-12,-11,-5,0,3,13,20,30,39,51,67,76,97,113,122,115,87,54,28,1,-12,-23,-23,-25,-30,-31,-31,-26,-24,-24,-25,-24,-24,-27,-29,-26,-26,-24,-24,-23,-19,-24,-26,-28,-25,-23,-27,-28,-26,-26,-25,-30,-26,-31,-25,-24,-8,-5,2,-1,0,-7,-23,-32,-35,-34,-36,-35,-37,-63,-235,-419,-225,568,1303,611,-41,-292,-151,-83,-53,-51,-45,-38,-33,-28,-30,-28,-27,-23,-20,-16,-9,-10,-3,4,8,15,21,32,45,55,70,85,100,102,84,56,30,6,-10
2019-06-06,16:35:01.816,42,39,38,35,37,37,38,39,36,37,38,36,35,33,31,28,33,38,34,32,28,28,31,29,30,31,26,26,26,25,22,27,30,27,35,46,47,53,47,47,35,22,9,9,9,7,6,4,-36,-239,-355,-57,780,1213,421,-120,-258,-93,-38,-15,-12,-1,3,4,10,14,14,18,18,23,29,37,43,46,49,60,72,76,88,94,99,113,127,134,127,106,80,54,35,20,10,5,-2,-1,-3,-6,-6,0,-2,-4,-7,-8,-6,-8,-7,-12,-10,-10,-13,-12,-15,-12,-15,-19,-15,-15,-17,-18,-19,-21,-24,-25,-26,-19,-10,-4,6,1
2019-06-06,16:35:02.841,-19,-27,-44,-46,-49,-52,-49,-51,-54,-102,-313,-366,-10,814,1043,260,-176,-371,-200,-97,-70,-56,-48,-30,-24,-21,-18,-14,-8,-4,6,10,16,25,32,41,50,56,70,75,84,94,97,108,111,95,69,40,14,-7,-20,-30,-37,-39,-39,-36,-35,-33,-33,-32,-28,-26,-27,-22,-24,-19,-25,-32,-31,-33,-35,-38,-37,-37,-38,-39,-38,-38,-35,-35,-25,-11,-12,-5,-14,-11,-22,-40,-44,-44,-46,-48,-49,-51,-101,-299,-337,23,821,928,158,-246,-424,-233,-107,-72,-58,-45,-33,-31,-22,-15,-11,-3,0,6,13,24,35,40,53,64,73,89,99,107,114,129
2019-06-06,16:35:03.865,143,138,119,86,53,22,1,-10,-19,-29,-25,-28,-23,-22,-19,-15,-16,-18,-19,-18,-22,-21,-20,-21,-24,-26,-29,-31,-26,-31,-29,-31,-35,-36,-36,-25,-3,0,1,2,0,-14,-28,-37,-40,-37,-40,-42,-44,-75,-267,-412,-166,667,1250,466,-131,-304,-146,-81,-59,-57,-46,-36,-31,-30,-28,-29,-23,-19,-15,-9,-4,1,3,10,16,23,31,42,50,61,74,93,103,96,72,42,17,0,-14,-25,-25,-27,-28,-27,-26,-26,-22,-27,-26,-31,-30,-30,-29,-31,-32,-30,-33,-34,-32,-34,-32,-31,-34,-36,-41,-39,-30,-10,-3,0,-1,1,-12,-28,-39,-40
2019-06-06,16:35:04.890,-16,-18,-20,-25,-48,-225,-393,-189,592,1308,587,-56,-296,-136,-71,-44,-39,-30,-26,-22,-18,-15,-12,-12,-11,-4,-1,2,8,15,23,25,36,43,55,68,74,89,104,109,102,76,53,29,8,-8,-18,-20,-23,-21,-20,-23,-25,-25,-27,-26,-24,-22,-26,-25,-29,-32,-28,-30,-30,-33,-36,-35,-36,-34,-39,-38,-33,-17,-5,0,-2,-2,-9,-23,-36,-43,-40,-43,-41,-45,-56,-164,-395,-329,267,1196,856,107,-323,-253,-124,-84,-74,-67,-59,-54,-48,-45,-42,-39,-41,-35,-32,-24,-14,-8,-5,0,10,19,27,39,52,62,78,88,84,61,32,6,-17,-28
2019-06-06,16:35:05.915,-22,-30,-32,-33,-34,-34,-32,-31,-37,-32,-32,-28,-30,-33,-29,-26,-27,-30,-33,-35,-36,-35,-36,-38,-40,-39,-35,-22,-12,-3,1,-6,-10,-23,-36,-43,-42,-40,-42,-48,-55,-127,-326,-298,186,1011,816,82,-293,-395,-189,-98,-70,-55,-41,-34,-24,-19,-13,-9,-7,1,9,19,29,34,45,57,67,82,94,106,114,120,128,133,124,94,60,35,10,-9,-22,-26,-31,-35,-34,-31,-36,-37,-35,-29,-27,-25,-20,-24,-20,-22,-25,-26,-28,-26,-26,-29,-32,-35,-35,-36,-39,-34,-28,-11,-4,0,-3,-5,-13,-33,-40,-39,-41,-42,-45,-48,-66,-216,-341,-142
2019-06-06,16:35:06.939,545,1127,379,-124,-406,-330,-132,-84,-63,-46,-37,-29,-25,-20,-18,-12,0,5,14,24,34,44,56,67,78,89,102,113,122,132,140,142,121,87,56,24,1,-18,-26,-31,-33,-32,-36,-35,-34,-34,-32,-30,-27,-26,-27,-25,-25,-27,-28,-32,-29,-31,-32,-31,-32,-31,-34,-32,-33,-33,-36,-32,-21,-9,5,5,-9,-6,-15,-31,-39,-43,-41,-42,-46,-47,-83,-268,-373,-97,698,1137,328,-169,-404,-245,-119,-78,-65,-54,-41,-34,-31,-25,-22,-16,-10,-4,0,8,22,29,40,50,64,78,90,99,109,121,138,136,118,85,47,18,-7,-21,-26,-33,-35,-36
2019-06-06,16:35:07.964,10,9,7,5,4,7,8,10,11,12,13,15,14,13,11,11,11,9,6,2,3,0,2,3,1,-1,0,2,8,15,19,33,41,33,25,29,16,1,-3,-10,-9,-9,-13,-18,-113,-354,-343,193,1164,1024,203,-263,-230,-95,-48,-39,-31,-25,-15,-16,-15,-8,-9,-2,-2,3,6,10,17,23,32,35,46,59,68,83,100,116,134,136,118,91,57,31,8,-2,-12,-21,-22,-25,-19,-19,-19,-17,-16,-14,-19,-21,-27,-29,-31,-29,-26,-22,-25,-22,-26,-26,-25,-29,-30,-29,-30,-26,-28,-24,-27,-26,-28,-30,-27,-21,-16,-13,-18,5,5,-1
2019-06-06,16:35:08.988,-5,-5,-22,-32,-38,-40,-43,-41,-45,-58,-179,-407,-321,323,1252,841,85,-290,-192,-92,-55,-52,-41,-34,-33,-27,-29,-26,-21,-16,-10,-8,-4,0,7,14,15,23,33,44,54,68,84,100,114,118,99,70,38,12,-3,-19,-27,-28,-30,-29,-30,-29,-35,-32,-29,-31,-30,-31,-32,-30,-31,-27,-29,-30,-31,-32,-33,-36,-35,-29,-28,-28,-29,-28,-25,-27,-28,-29,-29,-26,-29,-27,-27,-22,-19,-20,-29,-19,-2,-4,-9,-6,-14,-27,-33,-35,-38,-38,-36,-52,-203,-401,-269,423,1276,723,39,-296,-171,-79,-53,-47,-40,-32,-27,-22,-20,-19,-15,-12,-7,1
2019-06-06,16:35:10.013,2,6,11,17,22,27,31,45,52,64,76,99,114,112,92,62,34,15,-4,-11,-20,-30,-30,-30,-29,-35,-36,-33,-37,-35,-34,-32,-32,-31,-30,-28,-31,-32,-37,-36,-34,-35,-32,-35,-33,-35,-36,-34,-33,-32,-31,-33,-35,-36,-35,-33,-34,-31,-35,-44,-27,-12,-14,-15,-19,-34,-40,-37,-38,-39,-35,-43,-125,-336,-308,173,1021,862,133,-259,-336,-141,-73,-49,-38,-32,-21,-12,-11,-7,0,5,12,14,21,30,41,48,52,66,74,80,95,101,115,126,131,128,109,79,46,20,3,-12,-19,-25,-32,-32,-32,-32,-38,-32,-31,-32,-29,-27,-23,-23
2019-06-06,16:35:11.038,-8,-6,-4,-5,-9,-11,-10,-8,-15,-13,-20,-20,-21,-22,-22,-21,-20,-20,-19,-17,-23,-17,-20,-22,-29,-26,-26,-15,0,1,0,-4,-19,-24,-27,-28,-29,-29,-32,-87,-312,-350,32,902,1051,241,-217,-354,-159,-75,-53,-40,-30,-25,-20,-19,-11,-7,-5,2,7,13,18,26,36,41,47,52,68,78,82,97,107,122,126,115,86,49,22,0,-16,-22,-26,-30,-33,-35,-34,-34,-34,-31,-31,-29,-32,-30,-27,-27,-28,-31,-32,-31,-30,-28,-32,-33,-34,-34,-32,-33,-34,-33,-31,-34,-34,-33,-34,-35,-33,-32,-33,-33,-35,-34,-40,-29,-7,-9,-10,-13
2019-06-06,16:35:12.062,-10,-17,-18,-18,-19,-17,-23,-84,-321,-384,27,970,1170,328,-198,-238,-98,-59,-41,-33,-26,-19,-18,-22,-20,-17,-21,-16,-11,-4,-1,1,7,12,19,24,29,41,54,66,79,97,109,111,87,60,33,10,-1,-13,-18,-21,-24,-23,-25,-26,-26,-27,-26,-30,-26,-25,-24,-25,-25,-27,-26,-28,-29,-31,-31,-32,-32,-31,-30,-31,-31,-31,-32,-34,-34,-34,-36,-34,-35,-33,-36,-37,-36,-39,-15,-12,-21,-17,-23,-28,-37,-39,-37,-34,-35,-61,-255,-405,-169,631,1288,528,-76,-317,-155,-81,-58,-51,-43,-35,-29,-28,-26,-26,-23,-16,-14,-8,-7,1,5,7
2019-06-06,16:35:13.087,23,25,35,44,56,68,80,93,109,110,97,68,38,17,-2,-13,-20,-21,-22,-23,-18,-18,-16,-18,-16,-21,-20,-19,-18,-16,-15,-17,-19,-18,-22,-21,-23,-23,-22,-23,-24,-26,-23,-22,-29,-28,-28,-29,-30,-31,-31,-35,-31,-34,-16,-10,-14,-15,-20,-32,-36,-36,-35,-35,-36,-44,-153,-387,-329,265,1187,856,117,-298,-239,-104,-63,-52,-45,-41,-36,-33,-33,-31,-27,-24,-22,-18,-13,-8,-3,6,11,17,25,35,40,49,61,73,90,95,87,62,37,14,-6,-15,-22,-30,-32,-35,-33,-33,-31,-30,-30,-28,-29,-29,-28,-30,-31,-33,-36,-33,-35,-38
2019-06-06,16:35:14.112,-25,-27,-24,-30,-27,-25,-31,-32,-32,-28,-25,-24,-19,-18,-10,4,9,3,1,0,-16,-26,-28,-30,-32,-32,-35,-52,-195,-371,-222,448,1204,569,-16,-344,-267,-104,-73,-56,-44,-34,-27,-22,-19,-13,-12,-7,0,6,11,20,27,34,43,53,61,71,76,86,92,104,112,112,91,64,34,13,-5,-13,-18,-26,-28,-26,-26,-25,-27,-28,-28,-27,-24,-25,-24,-23,-25,-23,-24,-26,-29,-32,-30,-34,-36,-35,-36,-37,-37,-34,-35,-28,-22,-7,7,2,-1,1,-17,-31,-38,-40,-41,-42,-40,-44,-106,-324,-345,79,946,961,168,-259,-368,-169,-88,-61,-50,-40
2019-06-06,16:35:15.136,-29,-22,-20,-15,-8,-5,1,7,11,23,34,43,49,56,71,79,89,95,100,114,125,122,102,69,42,14,-6,-17,-28,-30,-27,-32,-29,-28,-29,-30,-30,-27,-24,-23,-27,-29,-28,-28,-28,-30,-32,-35,-39,-36,-34,-32,-34,-38,-36,-38,-38,-34,-32,-18,-6,8,1,-9,-9,-26,-40,-43,-46,-42,-47,-47,-57,-169,-407,-351,261,1203,879,107,-293,-203,-105,-70,-62,-56,-47,-41,-40,-35,-36,-35,-31,-29,-23,-18,-15,-13,-7,2,6,14,24,34,48,57,75,91,95,83,58,32,9,-12,-21,-27,-30,-30,-32,-31,-31,-33,-31,-31,-26,-27,-26,-28
2019-06-06,16:35:16.161,-32,-30,-28,-31,-28,-31,-33,-33,-30,-31,-33,-32,-33,-36,-38,-39,-29,-30,-20,-7,8,3,-6,-6,-17,-30,-36,-41,-41,-39,-40,-43,-115,-358,-386,76,1030,1065,246,-246,-252,-114,-73,-56,-48,-42,-38,-39,-36,-31,-30,-23,-20,-16,-16,-11,-4,-1,3,8,14,25,31,42,57,73,92,95,85,60,30,7,-12,-25,-26,-31,-34,-36,-35,-33,-32,-31,-33,-32,-30,-31,-28,-33,-34,-32,-33,-34,-36,-34,-32,-34,-39,-37,-38,-37,-39,-36,-38,-33,-32,-30,-23,-20,0,1,-7,-3,-7,-23,-33,-38,-42,-45,-40,-43,-65,-225,-415,-240,513,1286,616,-20
2019-06-06,16:35:17.186,-307,-171,-91,-62,-59,-50,-43,-39,-34,-29,-23,-23,-20,-14,-8,0,4,7,11,15,23,31,43,52,54,64,81,94,93,74,46,26,3,-15,-24,-27,-29,-29,-33,-31,-30,-31,-29,-28,-26,-29,-27,-26,-27,-26,-29,-30,-32,-30,-32,-30,-31,-31,-32,-34,-33,-32,-36,-37,-37,-31,-26,-19,-19,-14,2,-1,-7,0,-9,-26,-36,-41,-37,-41,-43,-45,-83,-292,-383,-58,799,1183,359,-149,-345,-172,-91,-61,-57,-47,-38,-36,-32,-26,-23,-17,-18,-7,0,5,12,18,28,34,39,47,57,66,73,86,101,105,98,75,46,16,-5,-15,-27,-31,-36,-38
2019-06-06,16:35:18.210,-48,-45,-43,-43,-45,-40,-43,-42,-40,-41,-44,-44,-44,-39,-45,-46,-44,-45,-48,-48,-46,-47,-49,-49,-54,-49,-46,-44,-39,-40,-20,-18,-23,-25,-23,-39,-53,-57,-56,-58,-54,-58,-74,-194,-357,-218,386,1107,529,-50,-372,-361,-151,-93,-76,-56,-46,-39,-34,-31,-25,-20,-13,-6,3,14,24,31,45,53,64,73,88,104,112,124,134,135,128,100,65,28,2,-12,-22,-26,-33,-35,-33,-34,-32,-32,-31,-27,-26,-25,-24,-17,-18,-19,-20,-25,-22,-20,-22,-25,-24,-29,-26,-24,-23,-25,-32,-31,-26,-16,-15,-13,9,7,1,-2,2,-9,-25,-28,-31,-32
2019-06-06,16:35:19.235,-34,-36,-46,-165,-341,-223,372,1132,586,-12,-361,-350,-146,-83,-56,-41,-34,-25,-21,-14,-8,-3,3,7,15,26,36,44,49,61,71,81,96,105,119,136,146,155,144,113,78,41,10,-6,-22,-32,-37,-39,-40,-42,-42,-42,-41,-42,-41,-35,-34,-33,-27,-28,-29,-30,-29,-31,-35,-34,-35,-37,-38,-39,-37,-40,-39,-39,-37,-40,-41,-34,-30,-25,-10,3,0,-9,-9,-18,-35,-43,-48,-51,-50,-50,-52,-96,-314,-413,-85,814,1210,385,-174,-314,-151,-83,-59,-57,-51,-42,-43,-37,-32,-34,-31,-29,-25,-17,-10,-4,3,11,18,21,29,40,54,71,85,104
2019-06-06,16:35:20.259,128,127,104,74,43,17,3,-7,-17,-19,-18,-19,-16,-20,-21,-24,-20,-19,-21,-18,-19,-21,-19,-22,-21,-23,-22,-24,-26,-23,-25,-30,-26,-25,-26,-32,-29,-28,-30,-24,-24,-23,-17,-18,-10,5,4,0,1,-6,-21,-27,-32,-34,-35,-38,-39,-77,-286,-413,-116,758,1273,472,-122,-286,-136,-74,-59,-54,-48,-39,-32,-32,-28,-26,-24,-21,-18,-13,-8,-3,1,8,12,14,28,42,53,62,73,93,105,101,79,54,26,4,-15,-24,-30,-34,-37,-35,-32,-32,-32,-33,-32,-32,-31,-33,-30,-30,-25,-28,-28,-30,-30,-30,-33,-34,-29,-34,-29,-33,-34,-32
2019-06-06,16:35:21.284,-28,-27,-30,-28,-30,-30,-25,-25,-32,-20,-2,-8,-7,-12,-19,-27,-26,-29,-29,-27,-33,-76,-295,-395,-58,828,1221,404,-153,-286,-132,-71,-51,-49,-41,-33,-30,-30,-28,-23,-22,-15,-10,-6,0,0,5,11,18,25,32,44,54,65,82,95,109,105,84,59,32,11,-1,-14,-19,-24,-23,-22,-20,-19,-22,-23,-24,-19,-19,-22,-24,-27,-25,-23,-30,-27,-28,-29,-27,-29,-28,-31,-31,-33,-34,-34,-34,-38,-37,-35,-36,-42,-43,-40,-25,-11,-18,-13,-18,-29,-35,-35,-36,-34,-36,-39,-120,-339,-327,150,1041,946,186,-243,-330,-139,-75,-54,-41,-36,-25,-19
2019-06-06,16:35:22.309,-21,-22,-16,-10,-6,1,11,17,26,31,37,47,52,68,78,86,100,111,123,125,110,81,53,29,8,-5,-13,-16,-16,-16,-16,-17,-15,-11,-11,-12,-8,-5,-5,-4,-3,-1,-6,-3,-5,-5,-5,-6,-2,-9,-8,-8,-9,-7,-7,-9,-5,-6,-7,-12,-10,-8,4,23,19,18,15,0,-2,-4,-2,0,-3,0,-40,-246,-336,-15,829,1215,390,-114,-311,-130,-36,-8,4,15,23,29,33,37,42,46,48,57,66,67,77,82,92,98,106,117,126,137,147,160,178,184,176,151,121,96,71,55,51,46,42,40,39,43,42,44,43,41,44,43
2019-06-06,16:35:23.333,-58,-59,-61,-61,-62,-60,-60,-60,-60,-61,-62,-66,-65,-62,-62,-62,-58,-59,-60,-61,-56,-54,-38,-33,-26,-28,-27,-40,-55,-67,-67,-64,-64,-58,-61,-99,-311,-433,-140,732,1250,447,-147,-316,-161,-97,-73,-67,-59,-55,-51,-51,-46,-38,-39,-33,-29,-24,-16,-12,-8,-5,3,8,14,26,37,47,61,78,91,88,71,49,21,-2,-19,-30,-33,-34,-38,-35,-36,-35,-35,-32,-35,-36,-33,-32,-35,-32,-32,-28,-29,-30,-29,-31,-34,-32,-35,-37,-35,-32,-34,-32,-32,-35,-33,-21,0,-9,-2,-1,-4,-15,-29,-35,-39,-41,-38,-41,-44,-111,-353,-382,71,1020
2019-06-06,16:35:24.358,1095,276,-229,-257,-115,-70,-56,-51,-45,-39,-32,-31,-28,-25,-30,-24,-19,-11,-10,-4,0,7,11,18,32,39,50,66,80,98,105,94,68,42,16,0,-13,-20,-27,-28,-28,-27,-27,-31,-28,-29,-33,-33,-32,-31,-32,-39,-33,-32,-36,-34,-38,-36,-37,-39,-42,-42,-40,-39,-40,-41,-41,-36,-19,-12,-3,-8,-7,-14,-30,-38,-43,-45,-42,-44,-47,-61,-184,-373,-258,376,1174,637,35,-305,-240,-109,-75,-63,-53,-45,-39,-36,-32,-28,-28,-24,-17,-10,-4,0,5,12,16,23,29,36,44,52,63,76,85,83,65,42,17,-4,-21,-31,-36,-42,-44,-43
2019-06-06,16:35:25.383,41,42,38,38,40,37,39,40,39,41,44,42,42,36,41,39,36,36,36,31,34,40,51,61,62,66,62,56,39,32,28,23,19,21,23,15,-74,-253,-183,341,1089,741,115,-195,-283,-94,-27,-3,9,17,25,31,38,42,47,55,57,64,73,83,89,100,113,120,129,143,148,158,164,170,168,148,113,76,43,23,8,2,-3,-6,-7,-8,-8,-10,-8,-10,-8,-8,-12,-10,-8,-9,-14,-12,-15,-15,-14,-19,-26,-24,-28,-29,-29,-20,-7,-6,0,3,0,-20,-36,-42,-42,-41,-42,-41,-47,-109,-350,-401,0,951,1168,349,-170,-275,-138,-93
2019-06-06,16:35:26.407,-75,-65,-61,-59,-51,-51,-47,-37,-36,-37,-34,-29,-29,-24,-12,-7,-2,4,8,22,33,46,62,74,79,66,42,18,-7,-24,-33,-40,-39,-39,-36,-36,-39,-37,-35,-33,-37,-33,-31,-34,-33,-35,-36,-36,-39,-37,-37,-34,-34,-36,-30,-11,4,5,6,4,1,-11,-23,-28,-26,-25,-28,-34,-40,-146,-423,-390,218,1290,1195,383,-136,-147,-82,-52,-51,-45,-43,-42,-37,-45,-44,-43,-36,-40,-42,-38,-37,-37,-36,-37,-34,-33,-31,-31,-22,-6,12,31,36,22,10,-4,-17,-24,-29,-29,-30,-31,-33,-27,-26,-28,-30,-26,-30,-28,-30,-27,-27,-28,-26,-32
2019-06-06,16:35:27.432,-13,-12,-13,-10,-10,-12,-10,1,9,8,11,15,13,-4,-16,-15,-17,-21,-14,-15,-25,-116,-403,-398,157,1245,1274,469,-45,-108,-69,-49,-50,-47,-45,-44,-41,-40,-41,-40,-40,-35,-37,-38,-40,-39,-37,-42,-43,-45,-45,-40,-34,-19,-5,8,18,9,-5,-15,-22,-30,-31,-34,-32,-30,-32,-36,-32,-32,-33,-30,-31,-30,-28,-30,-32,-36,-33,-19,-17,-20,-16,-16,-16,-21,-21,-24,-11,0,8,7,4,8,-8,-20,-17,-21,-23,-26,-28,-32,-79,-332,-457,-94,929,1437,641,78,-119,-70,-59,-51,-48,-47,-50,-54,-48,-40,-43,-39,-38,-41,-42,-37,-36,-36
2019-06-06,16:35:28.457,-22,-19,-21,-19,-13,-5,6,20,37,38,26,10,-6,-19,-25,-28,-32,-34,-27,-28,-27,-28,-33,-31,-28,-26,-27,-30,-27,-26,-23,-25,-25,-22,-24,-19,-20,-26,-27,-27,-16,-6,0,7,-4,-1,-9,-26,-38,-44,-44,-42,-42,-42,-56,-201,-377,-229,424,1193,648,84,-238,-300,-129,-87,-71,-61,-53,-43,-32,-31,-32,-26,-15,-8,-2,4,11,18,29,40,48,59,65,80,85,93,101,98,83,51,18,-7,-22,-32,-34,-34,-35,-34,-32,-28,-28,-25,-27,-27,-27,-26,-19,-21,-21,-20,-24,-27,-26,-27,-34,-33,-33,-29,-15,-7,3,-3,-3,-7,-24,-32
2019-06-06,16:35:29.481,-57,-61,-61,-57,-58,-68,-183,-405,-348,219,1168,854,166,-273,-299,-153,-96,-80,-75,-62,-54,-49,-47,-45,-41,-36,-29,-28,-21,-18,-9,1,2,10,23,29,41,55,75,87,95,80,55,24,-2,-23,-42,-53,-55,-49,-50,-52,-60,-49,-48,-45,-48,-48,-61,-53,-56,-55,-52,-41,-49,-46,-56,-56,-51,-53,-57,-59,-51,-36,-37,-8,-16,-21,-16,-35,-43,-55,-47,-50,-49,-50,-51,-121,-379,-413,20,1026,1190,370,-177,-275,-148,-88,-74,-70,-62,-56,-51,-49,-46,-41,-43,-40,-37,-36,-28,-20,-17,-16,-10,-5,5,21,33,53,68,82,81,61,32,8,-15,-27
2019-06-06,16:35:30.506,-62,-65,-61,-55,-62,-64,-59,-60,-61,-61,-53,-55,-54,-53,-54,-55,-58,-53,-51,-47,-44,-43,-49,-53,-45,-47,-44,-36,-34,-24,-3,-4,-12,-11,-10,-23,-34,-36,-36,-37,-40,-40,-64,-263,-460,-234,658,1499,799,77,-212,-122,-78,-56,-50,-46,-45,-46,-45,-41,-41,-39,-31,-39,-37,-35,-32,-27,-27,-20,-19,-10,0,10,21,37,56,69,67,53,28,4,-6,-18,-17,-25,-20,-14,-6,-9,-11,-12,-14,-15,-17,-15,-8,-15,-19,-13,-16,-12,-13,-12,-16,-17,-11,-11,-9,-6,-2,-5,-1,0,-1,2,18,26,16,19,20,8,-5,-9,-10,-14,-21,-18
2019-06-06,16:35:31.531,-42,-125,-408,-433,97,1214,1341,496,-49,-120,-77,-58,-60,-64,-55,-57,-52,-55,-56,-52,-49,-47,-44,-46,-50,-48,-47,-47,-49,-42,-39,-29,-25,-10,9,26,39,33,12,-2,-22,-35,-43,-48,-45,-46,-48,-46,-45,-47,-48,-52,-51,-52,-53,-54,-52,-51,-47,-45,-50,-47,-50,-48,-48,-46,-46,-52,-47,-52,-49,-48,-45,-47,-43,-40,-35,-31,-13,-16,-25,-18,-23,-33,-41,-42,-39,-36,-40,-43,-94,-349,-480,-116,917,1462,673,82,-107,-72,-70,-61,-65,-62,-57,-57,-57,-57,-55,-52,-52,-54,-52,-52,-51,-50,-57,-59,-59,-61,-59,-48,-42,-28,-6,9,15,-1
2019-06-06,16:35:32.555,-85,-96,-104,-101,-107,-139,-81,-93,-92,-100,-98,-96,-95,-91,-86,-85,-85,-83,-79,-77,-76,-71,-67,-67,-68,-63,-61,-58,-56,-60,-56,-53,-54,-49,-47,-51,-42,-40,-34,-38,-30,-15,-18,-21,-17,-30,-40,-41,-40,-45,-48,-46,-60,-179,-461,-412,224,1309,1118,366,-83,-125,-79,-68,-66,-65,-58,-62,-61,-62,-63,-60,-61,-54,-51,-49,-47,-49,-49,-49,-46,-43,-34,-24,-12,0,16,36,48,39,22,3,-12,-23,-32,-39,-35,-37,-37,-36,-31,-28,-31,-25,-22,-23,-22,-23,-21,-17,-23,-23,-27,-29,-31,-30,-31,-38,-34,-33,-38,-36,-38,-39,-34,-35,-35,-24
2019-06-06,16:35:33.580,-127,-132,-125,-121,-132,-132,-133,-130,-125,-128,-126,-135,-257,-457,-366,238,1077,653,41,-300,-347,-185,-145,-125,-115,-105,-97,-90,-86,-82,-73,-67,-59,-50,-40,-33,-22,-13,-7,4,10,18,31,40,46,56,62,55,34,0,-23,-44,-55,-61,-64,-62,-59,-56,-57,-55,-53,-51,-52,-50,-51,-49,-50,-47,-41,-39,-38,-37,-40,-41,-42,-41,-42,-40,-37,-36,-35,-30,-28,-23,-15,1,0,-9,-3,-15,-27,-30,-29,-29,-28,-23,-26,-82,-321,-417,-61,871,1299,501,-10,-219,-113,-64,-51,-45,-33,-30,-24,-18,-18,-15,-14,-7,-3,-2,2,2,4,6,7,7,12,19
2019-06-06,16:35:34.604,-50,-38,-22,-4,6,0,-18,-39,-58,-69,-73,-78,-75,-76,-75,-78,-78,-75,-74,-72,-68,-68,-66,-64,-65,-64,-63,-66,-60,-60,-56,-57,-55,-52,-55,-55,-57,-55,-56,-39,-32,-27,-24,-28,-31,-48,-53,-51,-50,-50,-49,-49,-53,-136,-398,-435,39,1040,1172,374,-67,-221,-115,-78,-66,-60,-56,-47,-48,-43,-38,-36,-33,-29,-27,-23,-23,-18,-20,-16,-11,-5,-1,6,17,25,39,57,64,50,30,8,-9,-19,-27,-27,-28,-25,-30,-27,-29,-28,-26,-27,-26,-22,-23,-22,-20,-22,-19,-23,-22,-24,-21,-24,-26,-23,-26,-21,-23,-20,-14,-7,-1,11,12,7
2019-06-06,16:35:35.629,-35,-49,-61,-66,-65,-64,-61,-66,-69,-114,-366,-514,-179,816,1448,694,139,-91,-76,-84,-87,-86,-87,-85,-80,-79,-78,-77,-76,-70,-69,-69,-67,-70,-70,-72,-75,-74,-73,-66,-59,-43,-19,4,22,22,9,-4,-23,-38,-45,-47,-45,-45,-45,-48,-45,-39,-41,-39,-44,-44,-42,-43,-45,-43,-40,-44,-46,-43,-43,-43,-43,-41,-37,-39,-37,-34,-23,-12,-4,-8,-7,-10,-27,-31,-33,-35,-36,-34,-37,-45,-128,-385,-395,103,1087,1102,305,-116,-278,-146,-81,-69,-58,-51,-46,-42,-38,-30,-23,-18,-10,-4,2,1,6,12,20,29,35,41,54,67,80,92,104,103
2019-06-06,16:35:36.654,71,38,7,-15,-30,-38,-38,-39,-38,-37,-36,-37,-35,-33,-33,-32,-30,-29,-28,-26,-25,-24,-24,-24,-25,-24,-23,-24,-27,-25,-27,-24,-16,-5,5,15,6,8,0,-16,-24,-22,-23,-22,-22,-24,-45,-219,-440,-292,450,1405,855,186,-202,-187,-88,-70,-59,-49,-43,-35,-33,-30,-26,-27,-19,-16,-12,-10,-7,-5,-3,2,10,18,27,39,56,68,84,98,91,66,35,6,-11,-24,-33,-31,-32,-31,-31,-34,-34,-37,-39,-41,-40,-38,-37,-37,-40,-38,-35,-34,-32,-34,-39,-37,-41,-40,-41,-43,-41,-38,-30,-19,-5,-4,-9,-9,-20,-34,-40,-38,-39,-40
2019-06-06,16:35:37.678,-57,-60,-92,-290,-489,-285,554,1434,761,107,-240,-187,-118,-100,-93,-87,-77,-73,-72,-71,-67,-68,-65,-64,-63,-58,-55,-57,-55,-50,-46,-35,-23,-9,8,29,50,63,58,32,4,-21,-42,-49,-54,-57,-52,-44,-47,-48,-58,-47,-48,-41,-35,-45,-37,-43,-48,-36,-34,-29,-25,-22,-23,-21,-23,-26,-26,-27,-25,-17,-18,-3,11,16,7,8,7,-11,-17,-16,-19,-17,-16,-27,-39,-169,-401,-327,309,1285,853,153,-275,-314,-143,-80,-60,-51,-39,-33,-29,-25,-21,-16,-13,-11,-4,-6,-2,7,12,16,28,41,49,61,77,91,107,119,112,84,46,14,-9,-29
2019-06-06,16:35:38.703,-78,-78,-79,-76,-79,-76,-78,-76,-77,-81,-77,-79,-79,-77,-76,-74,-73,-74,-71,-68,-69,-71,-70,-67,-64,-60,-60,-60,-56,-56,-58,-60,-57,-49,-37,-21,-17,-25,-18,-25,-37,-44,-43,-43,-45,-44,-46,-71,-251,-471,-307,486,1428,838,140,-235,-172,-93,-73,-65,-56,-54,-49,-47,-46,-42,-44,-41,-38,-36,-29,-22,-21,-21,-21,-14,-12,-6,3,20,38,56,77,82,64,40,14,-2,-12,-18,-17,-18,-15,-15,-18,-16,-18,-18,-17,-17,-17,-21,-21,-22,-23,-17,-17,-17,-19,-18,-16,-17,-16,-21,-20,-16,-17,-18,-16,-18,-17,-20,-18,-12,-9,-8,-1,10
2019-06-06,16:35:39.728,-16,-20,-11,-20,-36,-46,-49,-46,-45,-49,-49,-95,-333,-477,-183,751,1422,645,38,-245,-154,-98,-81,-76,-70,-61,-59,-56,-55,-52,-47,-43,-36,-32,-28,-26,-28,-22,-18,-14,-2,4,15,31,48,68,82,80,55,26,-1,-23,-31,-39,-46,-45,-47,-43,-43,-45,-44,-48,-45,-45,-41,-41,-40,-34,-34,-37,-37,-37,-34,-37,-35,-34,-33,-34,-37,-36,-37,-35,-33,-32,-31,-28,-21,-23,-22,-2,0,-9,-4,-4,-19,-27,-31,-31,-35,-32,-35,-54,-193,-438,-348,322,1330,961,233,-201,-209,-101,-74,-67,-58,-50,-48,-41,-42,-39,-33,-31,-26,-22,-17,-12,-9,-6
2019-06-06,16:35:40.752,-24,-19,-11,-3,8,21,36,57,69,71,56,26,-3,-26,-40,-48,-53,-53,-53,-57,-58,-60,-63,-65,-65,-63,-59,-61,-62,-57,-56,-58,-56,-59,-57,-59,-59,-56,-56,-54,-54,-54,-52,-54,-51,-50,-50,-47,-49,-48,-48,-46,-41,-43,-38,-20,-20,-25,-21,-23,-39,-48,-48,-48,-49,-50,-52,-88,-292,-430,-194,621,1296,545,8,-300,-234,-125,-98,-85,-74,-64,-58,-53,-48,-40,-35,-32,-29,-23,-14,-8,-2,1,8,17,25,38,47,58,69,83,92,84,56,21,-8,-32,-46,-52,-59,-62,-61,-65,-63,-64,-63,-62,-63,-63,-64,-63,-64,-58,-57,-59,-55,-57
2019-06-06,16:35:41.777,-22,-20,-23,-29,-25,-29,-30,-29,-32,-32,-28,-24,-24,-23,-25,-28,-24,-24,-19,-16,-13,-2,0,0,-1,7,-7,-20,-25,-27,-32,-33,-36,-47,-167,-423,-390,149,1191,1126,364,-158,-258,-127,-90,-71,-68,-58,-43,-42,-41,-32,-30,-25,-19,-17,-11,-8,-4,10,8,16,20,29,33,35,56,75,94,107,98,70,36,14,-3,-15,-17,-22,-20,-20,-15,-15,-16,-19,-17,-16,-23,-30,-27,-23,-26,-25,-29,-26,-25,-27,-23,-18,-17,-22,-22,-25,-26,-24,-24,-21,-20,-22,-20,-13,-10,-10,-6,14,13,5,13,7,-10,-12,-17,-17,-19,-17,-20,-54,-259,-468
2019-06-06,16:35:42.802,-217,670,1557,887,160,-158,-83,-42,-22,-19,-15,-13,-10,-12,-15,-14,-12,-12,-8,-8,-7,-11,-12,-8,-10,-15,-13,-3,2,13,31,49,74,88,80,59,31,14,3,-4,-7,-6,-5,-1,-5,-9,-9,-11,-10,-9,-9,-8,-8,-7,-6,-7,-4,-10,-8,-5,-7,-1,-5,-2,-4,-6,-3,-5,-3,-5,-6,-2,0,3,5,5,8,26,27,19,23,26,8,-1,-2,-7,-8,-9,-8,-21,-134,-413,-396,188,1284,1209,414,-63,-119,-60,-53,-49,-48,-45,-41,-42,-42,-38,-33,-35,-36,-28,-29,-28,-28,-29,-27,-22,-20,-16,-9,0,15,31,48,64,56,37
2019-06-06,16:35:43.826,25,3,-15,-26,-33,-29,-32,-35,-37,-38,-42,-40,-36,-37,-37,-41,-45,-45,-50,-49,-50,-55,-54,-56,-56,-52,-56,-56,-58,-59,-58,-61,-58,-60,-61,-60,-57,-54,-51,-49,-36,-30,-38,-40,-35,-46,-58,-60,-61,-63,-63,-64,-76,-183,-411,-370,127,1055,934,251,-174,-315,-163,-107,-76,-72,-67,-51,-47,-44,-38,-36,-25,-13,-2,11,10,20,27,36,49,57,74,87,96,108,122,131,133,111,72,35,4,-15,-26,-32,-30,-27,-27,-31,-33,-37,-33,-28,-29,-28,-21,-23,-26,-26,-22,-29,-34,-37,-35,-34,-38,-34,-29,-45,-41,-38,-36,-31,-35,-33,-26,-22
2019-06-06,16:35:44.851,-38,-21,-24,-34,-27,-33,-55,-58,-61,-62,-62,-62,-62,-112,-359,-473,-111,895,1368,523,-100,-246,-142,-95,-79,-78,-69,-66,-64,-63,-61,-62,-57,-58,-52,-51,-49,-46,-50,-50,-49,-51,-44,-38,-30,-17,-1,20,41,48,39,16,-4,-23,-32,-39,-45,-45,-43,-40,-42,-40,-37,-42,-42,-47,-51,-50,-43,-45,-47,-44,-42,-44,-44,-42,-41,-38,-37,-38,-36,-33,-34,-35,-32,-27,-22,-20,-6,5,0,-1,6,-8,-23,-27,-24,-22,-23,-26,-29,-97,-363,-436,-5,1030,1341,509,-44,-193,-94,-68,-55,-51,-44,-39,-34,-33,-30,-29,-28,-29,-20,-16,-15,-14,-15,-8
2019-06-06,16:35:45.876,-44,-45,-36,-27,-19,-9,8,28,40,38,18,-3,-26,-43,-47,-53,-56,-60,-61,-56,-52,-53,-52,-60,-58,-62,-59,-56,-59,-57,-58,-55,-52,-52,-51,-53,-51,-49,-47,-49,-46,-47,-46,-45,-41,-39,-36,-19,-18,-21,-20,-18,-29,-37,-39,-44,-43,-45,-43,-57,-198,-409,-311,325,1233,790,146,-223,-281,-122,-81,-63,-52,-38,-32,-28,-25,-20,-16,-11,-4,1,8,10,17,29,34,46,59,69,80,90,91,97,107,93,65,36,6,-17,-32,-40,-44,-42,-44,-39,-35,-35,-38,-34,-31,-27,-30,-31,-30,-28,-28,-28,-27,-32,-34,-37,-30,-35,-37,-35,-34,-33
2019-06-06,16:35:46.900,-57,-56,-53,-54,-50,-47,-42,-23,-24,-26,-23,-21,-37,-46,-51,-52,-53,-51,-50,-76,-265,-477,-300,516,1424,762,72,-266,-168,-106,-86,-75,-73,-71,-64,-58,-53,-53,-50,-45,-47,-42,-40,-33,-31,-27,-24,-27,-21,-12,-2,8,22,46,68,76,64,45,21,-2,-13,-18,-20,-23,-25,-24,-23,-25,-23,-21,-27,-25,-27,-25,-25,-26,-29,-23,-24,-24,-27,-29,-27,-23,-22,-22,-23,-28,-26,-26,-25,-16,-18,-19,2,5,1,0,-2,-14,-24,-19,-21,-20,-21,-25,-36,-196,-450,-341,421,1471,1010,243,-164,-120,-72,-56,-49,-44,-37,-32,-33,-30,-24,-24,-26,-24
2019-06-06,16:35:47.925,-39,-40,-39,-42,-40,-38,-35,-38,-33,-27,-19,-4,12,36,45,37,18,-3,-19,-29,-35,-38,-43,-37,-44,-39,-38,-41,-42,-33,-43,-40,-42,-39,-44,-44,-40,-41,-37,-39,-37,-35,-35,-36,-40,-38,-35,-32,-37,-38,-33,-27,-24,-25,-8,-3,-16,-16,-14,-29,-32,-31,-32,-32,-32,-36,-50,-201,-475,-369,397,1470,1078,339,-56,-61,-63,-59,-61,-62,-58,-60,-57,-57,-53,-51,-51,-50,-52,-53,-50,-52,-65,-74,-82,-85,-86,-84,-77,-61,-41,-17,0,0,-12,-20,-28,-32,-35,-43,-40,-39,-39,-43,-44,-41,-44,-42,-47,-48,-44,-49,-44,-38,-40,-39,-43,-36
2019-06-06,16:35:48.949,-55,-56,-59,-53,-53,-50,-52,-49,-44,-38,-37,-34,-30,-16,-8,-15,-17,-11,-22,-32,-40,-41,-39,-42,-42,-49,-124,-362,-399,52,997,1095,312,-122,-286,-150,-89,-75,-65,-53,-44,-42,-35,-32,-25,-19,-14,-13,-10,-2,4,8,14,24,30,44,48,58,69,78,90,91,75,41,9,-11,-24,-30,-34,-34,-30,-30,-31,-32,-35,-37,-34,-34,-35,-34,-33,-30,-28,-27,-26,-23,-27,-27,-33,-27,-26,-27,-27,-27,-32,-29,-29,-24,-20,-19,-11,3,1,-7,1,-4,-19,-21,-23,-25,-24,-26,-29,-65,-294,-453,-184,739,1465,715,107,-162,-96,-67,-56,-57,-56,-52
2019-06-06,16:35:49.974,-52,-47,-43,-43,-38,-40,-35,-30,-27,-24,-21,-20,-19,-22,-19,-11,-2,10,25,43,54,53,38,19,-3,-18,-29,-31,-36,-36,-32,-31,-32,-33,-31,-29,-29,-26,-23,-25,-28,-28,-26,-26,-24,-26,-27,-28,-26,-24,-24,-21,-21,-23,-20,-21,-24,-28,-20,-14,-13,7,16,10,3,4,-21,-26,-34,-29,-25,-21,-18,-32,-112,-364,-369,113,1104,1180,425,-60,-206,-77,-31,-20,-9,-2,4,11,17,20,26,32,39,44,50,53,58,66,76,90,97,103,119,122,131,147,158,159,140,108,78,50,34,29,27,20,18,23,20,18,16,13,17,26,23,22
2019-06-06,16:35:50.999,-50,-46,-48,-48,-49,-49,-48,-48,-52,-55,-56,-53,-57,-57,-55,-53,-51,-48,-39,-37,-38,-20,-22,-24,-23,-18,-33,-45,-46,-42,-43,-45,-45,-58,-170,-442,-407,202,1284,1152,322,-181,-192,-112,-79,-73,-66,-59,-58,-53,-54,-55,-56,-50,-43,-47,-45,-58,-52,-57,-66,-67,-67,-64,-51,-50,-30,-8,7,21,16,1,-19,-32,-43,-54,-54,-55,-51,-52,-51,-47,-47,-50,-52,-51,-47,-48,-46,-46,-45,-38,-36,-39,-36,-42,-41,-39,-40,-40,-42,-38,-39,-44,-44,-40,-39,-34,-32,-37,-31,-13,-14,-18,-19,-31,-40,-43,-45,-49,-48,-50,-48,-86,-295,-401,-128,698
2019-06-06,16:35:52.023,1243,502,-10,-276,-184,-87,-57,-47,-42,-36,-31,-24,-20,-25,-17,-9,-4,0,3,8,17,19,26,37,48,59,74,72,96,108,120,109,84,46,12,-4,-14,-25,-28,-29,-30,-31,-31,-31,-32,-31,-23,-24,-24,-23,-22,-18,-19,-23,-22,-23,-22,-25,-19,-22,-20,-21,-20,-23,-22,-20,-19,-16,-8,-8,-13,-5,0,2,1,3,-10,-20,-19,-19,-18,-16,-24,-40,-172,-413,-329,338,1335,979,212,-210,-159,-81,-52,-49,-44,-40,-35,-35,-39,-33,-34,-36,-33,-32,-30,-30,-26,-22,-20,-13,-12,-3,13,21,36,58,73,83,72,48,24,3,-12,-23,-26,-27
2019-06-06,16:35:53.048,85,84,84,84,78,83,84,76,75,77,80,78,80,81,75,77,84,82,82,80,78,78,73,69,71,70,71,65,70,68,70,64,75,87,84,82,82,69,54,51,50,52,53,52,36,-93,-354,-304,329,1387,1112,363,-84,-125,-27,-9,0,1,6,12,16,13,11,12,18,22,20,23,24,27,30,30,36,33,37,46,56,67,83,99,99,83,56,36,15,4,-4,-9,-11,-8,-8,-10,-13,-11,-14,-13,-18,-19,-17,-18,-17,-15,-14,-14,-17,-17,-19,-18,-19,-18,-20,-22,-22,-21,-23,-28,-29,-22,-20,-24,-22,-26,-31,-6,-8,-9,-3,-13
2019-06-06,16:35:54.073,-34,-37,-32,-32,-33,-30,-45,-176,-432,-369,259,1302,1037,303,-127,-193,-98,-74,-68,-63,-56,-50,-48,-46,-41,-36,-31,-27,-24,-20,-17,-19,-15,-10,-3,-2,3,15,22,36,52,66,70,54,24,1,-19,-29,-38,-37,-38,-38,-42,-42,-41,-42,-41,-40,-41,-35,-29,-34,-29,-24,-23,-25,-25,-28,-23,-31,-27,-22,-20,-25,-28,-29,-27,-25,-27,-22,-22,-22,-22,-29,-14,-3,-4,0,-12,-18,-17,-20,-24,-24,-23,-27,-115,-385,-410,87,1125,1204,390,-95,-230,-108,-70,-55,-54,-44,-36,-31,-26,-30,-25,-18,-15,-11,-6,-1,1,5,5,3,10,19,26,40
2019-06-06,16:35:55.097,58,77,95,94,82,57,26,2,-19,-25,-27,-28,-30,-30,-28,-31,-34,-38,-39,-35,-33,-30,-31,-26,-25,-26,-22,-19,-24,-25,-25,-24,-28,-28,-28,-23,-24,-17,-26,-23,-23,-24,-31,-32,-29,-32,-16,-6,-12,-4,-16,-21,-26,-28,-26,-27,-26,-41,-185,-453,-365,327,1396,1069,324,-106,-120,-73,-63,-55,-49,-52,-51,-49,-48,-44,-38,-37,-37,-36,-38,-32,-32,-38,-41,-36,-35,-28,-24,-13,-1,18,31,39,40,12,-9,-17,-30,-40,-40,-32,-29,-30,-33,-30,-33,-27,-32,-28,-23,-32,-42,-33,-35,-33,-18,-20,-28,-16,-22,-24,-29,-24,-28,-29,-29,-29
2019-06-06,16:35:56.122,16,23,20,20,17,10,19,11,11,25,31,29,27,9,5,10,1,8,16,0,-55,-316,-405,-14,1004,1443,599,82,-117,-56,-39,-31,-33,-25,-22,-24,-23,-22,-15,-18,-18,-12,-12,-8,-8,-8,-11,-14,-4,-1,7,23,29,42,69,79,86,58,28,10,-9,-12,-24,-26,-21,-28,-22,-21,-20,-25,-20,-22,-21,-22,-16,-11,-13,-13,-8,-13,-10,-14,-14,-12,-16,-20,-20,-20,-23,-21,-18,-17,-22,-15,-22,-19,-19,-8,1,-10,-7,-13,-25,-33,-35,-37,-37,-32,-48,-191,-408,-303,324,1242,836,168,-220,-288,-126,-84,-68,-58,-49,-44,-43,-37,-32,-25
2019-06-06,16:35:57.147,33,37,40,48,52,57,60,70,80,85,105,117,124,135,152,160,153,124,83,43,18,2,-8,-10,-13,-11,-9,-16,-21,-19,-14,-12,-11,-9,-9,-8,-13,-12,-7,-10,-11,-13,-17,-18,-23,-25,-24,-22,-26,-24,-24,-21,-18,-12,-14,-13,1,3,0,-3,-4,-20,-31,-30,-31,-33,-32,-35,-62,-240,-424,-237,537,1338,677,56,-278,-194,-99,-72,-63,-53,-49,-41,-38,-37,-37,-34,-28,-24,-18,-13,-12,-10,-6,-2,2,11,22,33,48,62,81,100,97,76,47,21,-1,-22,-33,-36,-37,-36,-41,-35,-40,-44,-46,-44,-42,-43,-44,-46,-44,-42,-41,-39
2019-06-06,16:35:58.171,16,13,14,15,13,16,11,13,12,12,12,17,22,21,26,45,39,28,31,25,12,7,6,7,3,1,0,-26,-215,-407,-220,571,1424,768,132,-217,-158,-67,-42,-36,-32,-30,-20,-19,-17,-13,-10,-6,-4,0,3,8,14,14,18,23,32,42,57,62,76,91,108,102,75,41,11,-8,-26,-32,-36,-38,-38,-38,-37,-36,-40,-39,-41,-42,-38,-41,-38,-41,-40,-42,-42,-38,-34,-36,-36,-38,-34,-40,-45,-38,-40,-35,-34,-28,-26,-26,-14,-9,-15,-17,-17,-32,-44,-44,-47,-50,-48,-52,-68,-209,-426,-317,317,1246,820,156,-234,-309,-152,-105,-89,-78
2019-06-06,16:35:59.196,-9,-1,5,7,13,13,18,24,31,29,40,49,53,59,75,85,103,114,130,144,154,161,148,116,79,45,23,9,-2,-4,-11,-10,-8,-3,-4,-8,-6,-8,-6,-5,-15,-4,-7,-6,-10,-11,-11,-15,-18,-20,-18,-15,-17,-15,-16,-19,-22,-17,-16,-9,-11,-10,2,3,-5,-7,-2,-18,-32,-37,-30,-30,-35,-40,-45,-163,-407,-344,251,1263,1040,266,-211,-226,-119,-80,-71,-63,-60,-51,-46,-44,-44,-37,-31,-30,-26,-23,-20,-15,-16,-11,-8,-1,14,26,40,63,79,100,102,83,52,18,-8,-28,-37,-39,-44,-48,-51,-47,-48,-48,-49,-51,-52,-48
2019-06-06,16:36:00.220,18,16,13,11,8,10,12,12,13,12,11,9,6,7,8,7,7,5,5,3,5,9,11,7,20,28,31,25,33,22,7,-1,-4,-1,-4,-5,-8,-59,-299,-418,-84,880,1417,616,7,-196,-92,-58,-44,-44,-36,-29,-30,-29,-27,-25,-24,-23,-21,-18,-16,-11,-13,-8,1,5,13,27,43,66,81,108,122,116,90,60,33,7,-6,-15,-19,-20,-23,-23,-23,-24,-24,-25,-21,-25,-27,-22,-25,-23,-25,-26,-23,-21,-20,-20,-22,-20,-25,-24,-24,-23,-22,-25,-25,-25,-21,-18,-16,-13,2,7,3,2,6,-9,-20,-20,-23,-19,-23,-24,-32,-140
2019-06-06,16:36:01.245,-325,-277,270,1161,842,173,-199,-285,-110,-57,-37,-29,-19,-10,-6,-1,1,1,11,17,22,29,36,45,51,62,74,83,95,112,127,140,149,161,149,118,74,33,4,-17,-26,-39,-41,-39,-40,-40,-40,-41,-41,-40,-37,-40,-36,-33,-36,-35,-35,-34,-32,-32,-37,-42,-44,-40,-40,-41,-41,-39,-39,-40,-40,-42,-43,-39,-38,-39,-34,-26,-24,-28,-11,-8,-12,-12,-12,-27,-35,-43,-43,-47,-44,-47,-64,-191,-426,-342,314,1291,928,195,-208,-166,-101,-74,-72,-64,-58,-54,-52,-52,-50,-47,-42,-44,-37,-32,-33,-30,-25,-21,-16,-8,0,11,23,44,60,76
2019-06-06,16:36:02.270,63,52,24,-4,-27,-44,-58,-64,-67,-69,-63,-64,-63,-66,-66,-66,-63,-59,-57,-64,-64,-65,-61,-56,-56,-49,-51,-51,-47,-46,-45,-45,-46,-47,-44,-43,-44,-45,-48,-48,-42,-44,-41,-37,-37,-30,-31,-33,-23,-7,-12,-14,-1,-19,-30,-29,-29,-26,-24,-22,-27,-82,-323,-431,-76,879,1354,555,10,-175,-79,-60,-47,-44,-37,-31,-24,-22,-21,-17,-14,-11,-5,-3,-1,4,7,10,16,21,29,42,54,71,85,106,123,125,100,70,44,25,12,6,4,1,-1,0,-2,1,0,-4,0,1,0,0,-3,1,0,-1,0,4,9,4,5,6,3,4
2019-06-06,16:36:03.294,-49,-50,-48,-49,-49,-47,-43,-43,-44,-41,-40,-42,-43,-45,-40,-41,-43,-42,-23,-27,-30,-20,-30,-42,-47,-49,-43,-48,-51,-53,-96,-318,-435,-173,664,1300,595,55,-249,-198,-102,-87,-78,-72,-65,-60,-52,-43,-39,-34,-27,-20,-14,-2,-1,-6,6,17,18,32,40,59,66,80,96,100,96,78,53,29,4,-9,-18,-18,-16,-22,-24,-24,-21,-21,-22,-15,-14,-19,-14,-17,-14,-12,-14,-17,-19,-21,-26,-19,-16,-23,-19,-20,-20,-15,-26,-29,-29,-26,-22,-23,-17,-12,-9,-12,-20,-5,0,-4,-3,0,-10,-22,-25,-21,-20,-21,-18,-43,-226,-432,-260,534
2019-06-06,16:36:04.319,1436,873,149,-206,-133,-76,-47,-44,-40,-34,-30,-27,-23,-27,-25,-18,-13,-16,-18,-12,-10,-13,-14,-13,-7,2,13,22,41,59,79,93,83,58,30,8,-12,-24,-32,-33,-33,-30,-34,-35,-35,-32,-31,-36,-33,-34,-33,-34,-37,-34,-30,-31,-29,-32,-29,-31,-34,-27,-23,-20,-22,-28,-26,-27,-30,-25,-29,-26,-22,-19,-21,-22,-6,-3,-2,-2,-3,-17,-20,-22,-20,-25,-33,-33,-43,-197,-445,-343,352,1374,997,252,-180,-155,-89,-68,-65,-57,-51,-51,-47,-40,-35,-35,-31,-28,-26,-21,-22,-17,-15,-16,-15,-12,-5,1,12,24,41,65,78,69,49,24
2019-06-06,16:36:05.344,116,100,86,82,80,82,80,82,79,80,80,80,81,81,78,75,76,69,76,75,73,70,74,73,71,72,73,67,63,63,65,65,62,63,64,64,62,69,68,68,83,83,80,77,80,68,59,51,52,49,43,39,30,-92,-367,-316,332,1411,1225,439,-39,-53,-17,1,2,6,7,5,5,5,6,8,4,3,0,4,5,2,0,-2,-4,-7,-4,0,7,17,32,49,71,74,65,45,26,14,1,-4,-6,-4,-6,-7,-8,-10,-8,-3,-7,-4,-5,-7,-8,-12,-14,-15,-16,-17,-16,-16,-16,-17,-16,-18,-16,-17,-23,-22,-23,-23,-23,-19
2019-06-06,16:36:06.368,-20,-22,-19,-1,-2,-6,-2,-8,-25,-28,-29,-30,-28,-28,-35,-56,-245,-442,-258,531,1390,758,160,-169,-142,-71,-65,-55,-49,-47,-41,-42,-38,-31,-27,-26,-23,-20,-15,-12,-6,-3,0,2,7,14,23,34,45,61,79,79,67,39,13,-5,-22,-30,-35,-36,-34,-33,-35,-36,-37,-35,-37,-34,-36,-35,-36,-38,-35,-38,-36,-36,-40,-39,-35,-33,-30,-27,-31,-31,-32,-30,-25,-17,-19,-17,-3,7,3,-1,0,-7,-18,-23,-25,-22,-26,-27,-38,-142,-385,-358,190,1152,1007,281,-130,-234,-101,-70,-57,-52,-45,-37,-32,-22,-20,-20,-13,-12,-9,-5,-3,-1
2019-06-06,16:36:07.393,-3,-2,5,10,13,25,35,44,59,76,74,67,45,14,-7,-22,-32,-39,-40,-34,-34,-33,-34,-32,-32,-31,-32,-36,-37,-36,-35,-35,-37,-33,-35,-36,-33,-37,-35,-32,-30,-32,-34,-31,-24,-25,-26,-12,-7,-11,-12,-8,-25,-39,-39,-37,-42,-42,-43,-52,-162,-378,-320,215,1101,854,176,-190,-325,-166,-91,-72,-60,-56,-48,-43,-37,-31,-27,-18,-13,-9,-5,0,10,17,22,34,46,63,71,84,92,103,121,119,91,58,19,-6,-26,-36,-40,-45,-45,-42,-43,-42,-40,-38,-40,-41,-40,-43,-39,-41,-41,-39,-40,-43,-46,-49,-45,-46,-49,-52,-51,-47
2019-06-06,16:36:08.418,-58,-58,-59,-36,-29,-39,-35,-38,-50,-60,-71,-65,-70,-65,-65,-84,-248,-413,-246,439,1215,615,55,-276,-308,-145,-101,-85,-73,-61,-56,-41,-35,-28,-21,-16,-4,2,10,20,25,41,57,68,84,98,112,120,138,151,148,138,102,54,20,-16,-32,-42,-43,-47,-42,-44,-45,-47,-48,-47,-42,-44,-41,-40,-40,-36,-37,-36,-34,-35,-41,-46,-45,-48,-54,-47,-50,-44,-38,-41,-36,-17,-18,-25,-26,-29,-43,-47,-50,-52,-50,-49,-55,-74,-243,-453,-282,533,1442,879,121,-223,-157,-93,-70,-71,-63,-56,-54,-51,-50,-50,-47,-42,-47,-45,-43,-41,-37,-39,-29,-23
2019-06-06,16:36:09.442,-41,-30,-15,1,27,46,70,77,63,36,3,-19,-36,-43,-51,-53,-55,-50,-47,-48,-48,-46,-53,-49,-54,-46,-47,-48,-50,-48,-46,-43,-44,-43,-42,-40,-40,-45,-36,-33,-25,-30,-29,-8,-6,-11,-11,-13,-27,-38,-38,-32,-33,-35,-37,-48,-183,-443,-362,351,1427,1107,266,-176,-146,-90,-69,-64,-53,-48,-52,-51,-49,-46,-49,-49,-46,-49,-46,-42,-36,-37,-30,-24,-26,-13,0,16,36,54,74,83,75,48,21,1,-14,-26,-31,-33,-31,-33,-35,-27,-29,-28,-29,-30,-31,-32,-31,-33,-34,-36,-33,-34,-30,-31,-31,-31,-30,-28,-29,-31,-33,-30,-27,-28
2019-06-06,16:36:10.467,-47,-47,-39,-30,-32,-35,-33,-31,-46,-51,-52,-56,-53,-55,-53,-85,-293,-456,-208,674,1403,676,34,-209,-125,-97,-84,-79,-77,-69,-62,-58,-54,-53,-55,-55,-51,-48,-45,-44,-40,-38,-30,-28,-24,-12,0,13,30,49,68,70,50,25,3,-18,-30,-38,-43,-47,-44,-42,-41,-43,-43,-40,-38,-38,-38,-38,-39,-39,-40,-41,-38,-35,-37,-33,-35,-35,-33,-31,-34,-36,-35,-33,-32,-31,-29,-26,-24,-25,-18,-1,2,-5,-8,-10,-24,-30,-32,-34,-33,-28,-33,-52,-220,-407,-241,506,1331,718,115,-207,-133,-75,-57,-49,-45,-39,-37,-35,-28,-27,-25,-23,-22,-14
2019-06-06,16:36:11.492,-38,-40,-29,-27,-24,-19,-11,-7,0,10,21,41,59,65,51,27,3,-17,-27,-31,-37,-37,-37,-40,-40,-40,-37,-34,-36,-32,-29,-30,-28,-27,-25,-24,-25,-22,-25,-26,-28,-22,-22,-23,-15,-17,-17,-15,-17,-17,-14,-15,-6,0,0,4,21,23,17,19,15,1,-3,-2,-1,-3,-2,-3,-30,-205,-393,-196,606,1418,786,165,-130,-57,-33,-20,-18,-12,-4,-1,1,1,3,8,12,15,18,21,28,29,27,29,32,38,44,49,59,76,94,111,119,109,92,69,52,46,38,36,37,36,37,35,31,36,37,36,37,33,33,33,35,33,33,33
2019-06-06,16:36:12.516,-77,-74,-76,-78,-69,-72,-68,-67,-70,-65,-64,-61,-62,-60,-59,-58,-54,-52,-49,-43,-26,-26,-29,-26,-35,-46,-49,-49,-49,-53,-53,-56,-112,-356,-434,-31,913,1227,450,-16,-174,-90,-76,-69,-66,-62,-56,-56,-49,-47,-45,-40,-37,-35,-30,-25,-21,-22,-17,-15,-10,-4,0,5,17,31,49,58,54,35,9,-9,-21,-32,-35,-37,-35,-37,-38,-39,-34,-34,-35,-32,-35,-34,-29,-32,-33,-31,-33,-30,-28,-30,-30,-29,-27,-29,-30,-29,-34,-34,-34,-30,-27,-21,-20,-23,-20,-9,-1,-7,-4,-1,-19,-33,-34,-35,-34,-31,-34,-45,-168,-408,-347,270,1246,956
2019-06-06,16:36:13.541,244,-152,-187,-93,-85,-76,-67,-63,-57,-54,-49,-45,-42,-38,-34,-31,-27,-25,-23,-17,-17,-15,-10,0,4,12,27,44,62,65,53,26,-1,-17,-33,-41,-47,-46,-43,-45,-44,-44,-44,-48,-48,-44,-45,-44,-42,-37,-30,-33,-33,-30,-32,-33,-34,-35,-32,-35,-32,-34,-35,-35,-36,-33,-28,-23,-20,-4,-4,-10,-5,-6,-21,-27,-28,-25,-26,-25,-27,-65,-271,-397,-114,722,1267,497,2,-257,-166,-70,-60,-47,-43,-37,-32,-25,-16,-18,-16,-15,-8,-2,3,8,14,17,27,33,44,54,62,66,80,93,101,87,57,28,0,-23,-30,-35,-35,-35,-40,-37
2019-06-06,16:36:14.565,-19,-20,-21,-22,-19,-17,-17,-17,-16,-15,-17,-16,-17,-16,-17,-21,-19,-20,-21,-16,-18,-24,-21,-22,-23,-15,-12,-10,-3,13,11,3,9,0,-17,-19,-20,-17,-23,-27,-27,-79,-318,-432,-97,862,1397,614,29,-173,-87,-65,-56,-55,-48,-44,-41,-42,-37,-34,-33,-32,-27,-19,-17,-16,-12,-14,-18,-11,-6,0,11,27,44,66,77,78,62,37,14,0,-11,-22,-28,-27,-28,-27,-29,-30,-29,-28,-30,-31,-30,-30,-31,-28,-27,-28,-25,-26,-22,-28,-27,-26,-31,-29,-27,-29,-27,-29,-26,-21,-21,-15,-2,0,-8,-3,-4,-18,-25,-28,-29,-28,-29,-31
2019-06-06,16:36:15.590,-63,-232,-457,-302,468,1424,885,194,-178,-134,-87,-71,-72,-67,-60,-58,-58,-53,-47,-44,-43,-41,-43,-44,-41,-44,-42,-39,-42,-41,-33,-20,-7,8,33,55,58,48,24,3,-16,-24,-32,-41,-42,-43,-44,-42,-40,-38,-36,-34,-34,-35,-34,-35,-33,-34,-34,-24,-27,-25,-23,-25,-24,-25,-23,-24,-23,-24,-23,-20,-17,-13,-10,0,9,4,0,3,-7,-18,-24,-27,-23,-27,-26,-31,-110,-351,-381,66,1035,1138,352,-115,-274,-135,-80,-62,-55,-44,-39,-34,-31,-30,-23,-21,-14,-7,-2,3,8,10,16,23,31,39,48,58,70,86,100,105,94,60,27,1
2019-06-06,16:36:16.615,-23,-35,-42,-42,-40,-40,-38,-41,-39,-40,-40,-39,-43,-43,-40,-38,-35,-36,-35,-36,-37,-32,-32,-33,-35,-39,-38,-39,-37,-34,-40,-34,-35,-29,-26,-29,-17,-1,-5,-10,-7,-15,-31,-36,-35,-38,-38,-39,-43,-87,-321,-445,-128,806,1386,610,15,-207,-106,-77,-66,-59,-54,-51,-52,-50,-45,-44,-42,-40,-38,-33,-28,-30,-24,-19,-14,-13,-3,4,18,30,45,66,83,81,60,36,12,-10,-23,-26,-31,-31,-31,-30,-26,-31,-30,-30,-30,-29,-33,-32,-32,-31,-28,-31,-31,-31,-28,-30,-32,-30,-31,-31,-29,-30,-33,-29,-35,-33,-30,-23,-20,-20,-2,7
2019-06-06,16:36:17.639,5,2,2,-7,-21,-26,-24,-26,-27,-29,-32,-126,-389,-400,109,1150,1216,414,-99,-177,-89,-72,-67,-63,-57,-53,-51,-49,-45,-40,-36,-31,-29,-25,-22,-19,-14,-13,-11,-8,-1,7,23,38,50,69,84,78,56,32,7,-10,-19,-29,-35,-32,-29,-27,-26,-30,-32,-35,-35,-35,-36,-37,-33,-33,-31,-31,-26,-27,-30,-20,-23,-21,-28,-32,-33,-33,-27,-31,-32,-25,-24,-19,-18,-19,-3,5,3,0,4,-12,-21,-28,-32,-32,-30,-31,-37,-110,-373,-419,32,1056,1294,479,-67,-185,-89,-73,-65,-59,-53,-50,-51,-50,-43,-40,-41,-35,-33,-28,-29,-23,-21,-22
2019-06-06,16:36:18.664,-1,1,7,17,32,45,59,81,95,86,66,39,17,-2,-13,-22,-25,-24,-25,-28,-30,-28,-27,-29,-27,-26,-28,-25,-23,-24,-26,-28,-31,-29,-23,-22,-27,-25,-24,-23,-24,-29,-26,-27,-28,-26,-26,-22,-25,-26,-11,3,-4,-4,-1,-12,-27,-32,-30,-30,-29,-32,-41,-124,-359,-367,77,1014,1094,343,-113,-287,-147,-87,-71,-60,-52,-43,-37,-34,-32,-32,-20,-15,-7,0,1,6,10,20,32,41,49,57,71,83,94,109,110,91,60,27,4,-14,-29,-41,-38,-36,-41,-40,-39,-38,-37,-34,-36,-37,-39,-38,-39,-38,-40,-42,-44,-45,-45,-44,-46,-43
2019-06-06,16:36:19.689,-28,-29,-30,-32,-32,-36,-38,-36,-43,-36,-31,-38,-26,-16,-24,-28,-22,-29,-36,-33,-38,-39,-34,-34,-40,-109,-353,-388,6,946,1213,453,-58,-274,-151,-85,-64,-57,-49,-37,-34,-32,-28,-22,-13,-12,-7,-1,5,12,16,26,37,47,59,67,82,94,115,125,121,110,79,34,11,-13,-27,-38,-38,-37,-38,-38,-40,-42,-41,-43,-42,-45,-42,-43,-40,-43,-40,-44,-40,-41,-38,-41,-40,-38,-39,-38,-38,-37,-36,-35,-36,-33,-30,-29,-31,-21,-8,-3,-11,-8,-12,-28,-36,-43,-43,-41,-39,-43,-86,-333,-480,-151,876,1551,737,55,-149,-91,-70,-64,-58,-55
2019-06-06,16:36:20.713,-36,-31,-32,-35,-36,-34,-36,-35,-31,-33,-31,-33,-39,-34,-38,-38,-35,-26,-11,8,36,64,75,69,54,29,12,3,-6,-13,-13,-17,-11,-7,-9,-8,-10,-11,-9,-7,-7,-9,-12,-12,-15,-14,-12,-14,-11,-12,-10,-7,-5,-4,-7,-12,-13,-15,-4,-5,-11,4,14,7,8,11,3,-10,-15,-20,-20,-19,-19,-25,-116,-419,-444,131,1286,1408,536,-5,-70,-59,-61,-60,-64,-66,-63,-64,-57,-59,-65,-59,-59,-61,-58,-59,-60,-64,-70,-74,-83,-83,-79,-71,-54,-35,-8,15,27,18,1,-13,-25,-30,-35,-38,-35,-33,-39,-37,-37,-35,-38,-35,-35,-38
2019-06-06,16:36:21.738,-56,-56,-58,-54,-52,-53,-48,-51,-47,-49,-49,-45,-40,-39,-39,-44,-42,-37,-34,-35,-33,-25,-9,-18,-17,-12,-28,-39,-38,-40,-40,-40,-41,-44,-136,-441,-457,159,1317,1395,622,115,1,-40,-58,-61,-63,-67,-67,-63,-66,-66,-67,-71,-74,-73,-77,-82,-88,-97,-103,-115,-119,-115,-116,-108,-96,-74,-47,-20,-7,-7,-15,-21,-26,-27,-35,-39,-35,-31,-26,-26,-29,-27,-24,-25,-29,-30,-27,-30,-32,-28,-25,-25,-25,-26,-25,-24,-27,-29,-31,-31,-31,-27,-22,-26,-24,-3,3,-2,2,-1,-16,-21,-23,-23,-26,-29,-28,-48,-222,-470,-308,539,1505,959,316,-10
2019-06-06,16:36:22.763,-80,-99,-106,-111,-114,-111,-109,-105,-100,-98,-99,-100,-99,-94,-93,-91,-94,-93,-97,-97,-96,-91,-80,-74,-63,-46,-22,-9,-16,-30,-44,-54,-60,-66,-63,-57,-59,-56,-58,-54,-52,-55,-52,-56,-55,-53,-52,-46,-48,-43,-43,-45,-40,-40,-39,-37,-34,-34,-33,-27,-30,-32,-17,-1,-15,-13,-10,-22,-34,-34,-35,-38,-36,-34,-42,-133,-398,-394,174,1214,1110,327,-70,-152,-72,-66,-65,-64,-59,-53,-52,-49,-43,-40,-35,-27,-30,-25,-24,-25,-27,-25,-25,-17,-13,-8,-3,18,34,53,58,41,21,-2,-17,-29,-38,-38,-35,-31,-29,-32,-30,-27,-30,-28,-27,-31
2019-06-06,16:36:23.787,-62,-62,-63,-62,-62,-64,-58,-57,-62,-67,-60,-54,-59,-60,-55,-49,-42,-44,-35,-16,-28,-23,-17,-33,-46,-48,-47,-45,-46,-43,-52,-144,-444,-457,132,1283,1364,548,47,-39,-57,-68,-74,-75,-73,-75,-70,-72,-71,-66,-66,-62,-66,-60,-61,-65,-70,-77,-81,-81,-82,-77,-68,-54,-35,-12,8,14,4,-7,-17,-30,-36,-36,-36,-35,-31,-32,-35,-36,-36,-31,-32,-33,-31,-30,-28,-31,-29,-26,-30,-29,-25,-24,-26,-28,-26,-24,-20,-17,-21,-8,7,-2,2,4,-12,-25,-23,-23,-27,-27,-31,-34,-119,-412,-441,105,1231,1348,531,33,-50,-42,-52,-52,-51,-53
2019-06-06,16:36:24.812,-68,-63,-60,-56,-58,-59,-56,-56,-52,-51,-54,-55,-52,-54,-49,-39,-31,-25,-10,7,28,39,33,15,-5,-18,-27,-36,-39,-44,-44,-49,-52,-52,-53,-55,-62,-61,-57,-60,-57,-55,-56,-54,-52,-53,-50,-51,-48,-49,-47,-44,-47,-42,-43,-39,-25,-16,-20,-21,-21,-37,-48,-44,-44,-41,-43,-45,-54,-166,-394,-338,225,1195,992,290,-147,-252,-120,-85,-72,-63,-58,-51,-46,-41,-36,-33,-26,-24,-18,-16,-8,1,6,14,24,30,43,51,64,76,87,95,93,70,38,8,-10,-24,-32,-35,-36,-35,-35,-37,-37,-37,-35,-41,-37,-35,-34,-30,-32,-33,-33,-36
2019-06-06,16:36:25.836,-50,-44,-50,-49,-53,-52,-44,-43,-41,-42,-25,-12,-20,-21,-23,-39,-51,-56,-52,-54,-53,-55,-61,-157,-408,-397,97,1096,1125,371,-135,-273,-144,-98,-88,-76,-73,-64,-58,-55,-51,-50,-42,-32,-30,-26,-26,-15,-10,-6,3,10,24,34,48,60,72,86,89,65,36,6,-16,-28,-33,-38,-39,-39,-39,-44,-41,-39,-39,-37,-39,-37,-39,-36,-31,-29,-28,-30,-31,-32,-32,-30,-32,-35,-33,-31,-27,-24,-18,-4,-4,-13,-10,-13,-26,-32,-35,-37,-39,-39,-37,-59,-211,-427,-312,367,1356,953,233,-211,-225,-113,-81,-67,-62,-56,-51,-46,-42,-41,-43,-38,-35,-27
2019-06-06,16:36:26.861,-33,-31,-24,-22,-18,-14,-2,13,24,38,52,68,80,77,58,27,0,-16,-28,-38,-40,-39,-39,-42,-41,-42,-46,-45,-48,-46,-41,-43,-42,-41,-38,-41,-39,-38,-36,-33,-35,-38,-32,-33,-32,-31,-28,-24,-22,-11,-4,-12,-12,-13,-25,-31,-38,-36,-37,-36,-35,-45,-156,-404,-367,196,1213,1067,316,-172,-253,-125,-79,-66,-57,-52,-45,-39,-37,-36,-33,-34,-29,-30,-25,-23,-16,-11,-4,7,11,25,38,56,73,89,101,102,78,46,16,-6,-26,-39,-43,-43,-40,-39,-44,-46,-47,-49,-46,-48,-44,-47,-48,-45,-44,-39,-39,-42,-39,-37,-37,-38,-34,-34
2019-06-06,16:36:27.886,-36,-35,-34,-31,-28,-30,-28,-25,-22,-5,-8,-13,-10,-15,-29,-35,-36,-40,-42,-41,-40,-59,-224,-428,-287,419,1328,802,161,-233,-223,-108,-82,-68,-61,-56,-50,-44,-39,-40,-37,-31,-27,-24,-14,-10,-5,0,7,13,22,37,51,65,77,91,107,99,75,43,10,-11,-27,-38,-39,-41,-41,-41,-43,-43,-46,-47,-46,-44,-42,-47,-42,-40,-39,-37,-40,-39,-36,-35,-36,-35,-34,-32,-32,-31,-37,-35,-36,-34,-36,-33,-31,-26,-24,-22,-21,-5,-7,-11,-3,-6,-23,-30,-35,-34,-36,-35,-36,-56,-232,-431,-282,437,1351,839,178,-208,-186,-99,-76,-69,-61,-56
2019-06-06,16:36:28.910,-47,-43,-41,-39,-40,-33,-28,-23,-21,-20,-14,-9,-6,1,4,15,27,42,62,85,103,103,81,52,26,0,-14,-25,-28,-30,-33,-34,-33,-32,-37,-34,-36,-37,-34,-36,-30,-25,-26,-31,-28,-27,-27,-27,-28,-28,-24,-25,-26,-28,-28,-29,-26,-27,-25,-27,-22,-18,-14,-13,-9,10,7,1,2,0,-16,-25,-25,-23,-25,-28,-29,-53,-216,-412,-263,447,1313,738,126,-242,-217,-102,-73,-60,-55,-47,-44,-36,-32,-25,-24,-21,-17,-15,-9,-1,0,7,13,21,33,40,55,66,81,105,117,116,88,54,23,-3,-17,-28,-29,-32,-36,-31,-32,-35,-37,-39
2019-06-06,16:36:29.935,-37,-40,-41,-38,-35,-33,-30,-28,-28,-29,-28,-31,-28,-28,-31,-32,-34,-33,-34,-35,-35,-34,-32,-35,-35,-34,-34,-34,-33,-32,-26,-30,-29,-9,-5,-7,-12,-5,-21,-31,-36,-41,-39,-40,-38,-48,-146,-404,-391,140,1163,1118,354,-125,-183,-88,-73,-63,-64,-59,-52,-54,-51,-49,-46,-44,-40,-36,-32,-32,-29,-30,-32,-32,-26,-18,-8,8,24,48,61,85,69,44,21,6,-11,-23,-26,-22,-21,-27,-22,-24,-29,-29,-29,-24,-23,-24,-24,-22,-20,-23,-18,-16,-18,-17,-20,-21,-23,-26,-25,-25,-28,-14,-18,-23,-24,-30,-31,-26,-23,-21,-19,-19,-16,-11
2019-06-06,16:36:30.960,20,19,17,21,7,-5,-4,-6,-12,-12,-10,-14,-75,-332,-427,-47,949,1408,576,12,-190,-91,-60,-51,-44,-37,-35,-29,-32,-26,-24,-24,-27,-22,-20,-21,-21,-18,-16,-13,-10,-4,4,11,26,41,60,83,82,65,37,10,-8,-23,-24,-30,-32,-29,-27,-27,-32,-33,-32,-36,-36,-35,-36,-37,-40,-39,-38,-37,-33,-35,-32,-32,-35,-34,-34,-30,-30,-31,-30,-29,-35,-32,-29,-29,-29,-28,-27,-31,-26,-23,-22,-18,-1,-4,-12,-7,-17,-32,-39,-34,-31,-32,-33,-36,-86,-335,-469,-114,880,1476,732,194,-25,-21,-48,-50,-57,-56,-53,-52,-54,-57,-57,-52
2019-06-06,16:36:31.984,-26,-22,-25,-22,-23,-23,-25,-29,-30,-25,-20,-8,3,20,45,69,80,70,53,33,15,5,-1,-6,-3,-3,-1,-3,-4,2,3,0,-5,-2,-3,-4,-5,-8,-6,-3,-7,-6,-3,-6,-8,-7,-5,-9,-9,-7,-10,-7,-8,-9,-7,-5,-2,0,1,4,19,21,13,21,22,7,-4,-5,-4,-6,-10,-11,-23,-147,-389,-325,275,1270,1040,333,-75,-152,-51,-37,-36,-30,-20,-15,-10,-7,-4,0,3,10,14,18,22,29,33,40,46,55,63,76,86,98,114,128,136,122,93,63,37,15,3,1,1,-2,-4,-3,-2,-3,-6,-8,-4,-3,-1,-3
2019-06-06,16:36:33.009,-53,-53,-54,-56,-56,-56,-56,-57,-59,-64,-64,-65,-61,-59,-59,-58,-58,-55,-48,-45,-45,-39,-23,-22,-31,-30,-31,-45,-49,-50,-50,-51,-57,-55,-83,-273,-432,-233,528,1276,609,63,-263,-231,-116,-96,-72,-71,-57,-50,-46,-49,-41,-31,-29,-16,-10,-5,5,8,12,18,27,40,55,67,81,96,112,119,116,87,49,16,-6,-22,-33,-34,-41,-34,-38,-36,-33,-33,-35,-38,-39,-40,-34,-34,-32,-29,-32,-28,-31,-31,-36,-37,-31,-36,-30,-36,-36,-35,-40,-32,-25,-28,-23,-22,-17,0,2,-2,1,-3,-20,-29,-26,-31,-30,-29,-33,-63,-257,-466,-270,572
2019-06-06,16:36:34.034,1505,896,174,-170,-105,-68,-52,-49,-43,-42,-39,-36,-37,-36,-35,-34,-37,-38,-35,-33,-34,-36,-38,-40,-37,-28,-22,-11,5,30,54,67,61,40,17,2,-12,-22,-25,-27,-24,-22,-21,-24,-19,-19,-21,-18,-20,-21,-23,-25,-22,-20,-18,-18,-14,-19,-19,-16,-14,-13,-14,-11,-12,-14,-14,-11,-10,-11,-7,-6,12,11,5,13,-1,-14,-15,-17,-18,-19,-17,-22,-54,-250,-456,-257,576,1489,869,185,-154,-107,-67,-52,-49,-43,-40,-36,-33,-34,-35,-35,-35,-30,-31,-29,-27,-24,-19,-20,-11,-5,4,18,30,44,66,82,86,74,49,21,-1,-14,-29,-35
2019-06-06,16:36:35.058,63,62,65,65,66,63,62,65,62,63,61,60,61,58,58,60,58,61,59,57,55,56,57,58,58,56,57,58,56,59,59,58,71,80,74,68,69,53,39,39,35,30,32,24,17,-63,-316,-337,129,1126,1232,442,-47,-190,-63,-29,-16,-8,-2,0,3,3,6,7,10,20,22,30,31,34,40,45,51,57,65,74,88,103,118,136,139,125,98,63,35,12,1,-5,-8,-6,-8,-10,-11,-8,-11,-13,-15,-10,-11,-9,-12,-10,-11,-14,-11,-15,-12,-13,-19,-17,-14,-15,-20,-22,-18,-17,-9,-3,-6,7,14,6,4,5,-8,-20,-24,-25
2019-06-06,16:36:36.083,-101,-97,-100,-106,-207,-460,-442,105,1124,1032,269,-210,-262,-153,-126,-117,-111,-104,-95,-91,-89,-87,-82,-80,-74,-69,-61,-59,-52,-51,-45,-36,-28,-15,-2,11,28,44,61,69,53,22,-3,-24,-41,-53,-60,-63,-60,-61,-60,-56,-61,-61,-57,-59,-60,-59,-56,-56,-52,-47,-49,-51,-48,-50,-48,-45,-45,-50,-45,-48,-51,-47,-33,-34,-23,-5,-5,-22,-15,-26,-34,-39,-46,-45,-42,-48,-48,-77,-289,-454,-195,673,1425,695,68,-220,-135,-83,-69,-63,-60,-54,-47,-43,-37,-39,-37,-32,-30,-25,-27,-23,-15,-15,-13,-7,4,16,28,47,60,85,99,96,71,49
2019-06-06,16:36:37.108,-23,-49,-63,-66,-69,-71,-70,-72,-69,-68,-66,-66,-67,-66,-68,-61,-62,-61,-59,-57,-56,-53,-52,-49,-52,-53,-51,-52,-49,-48,-47,-45,-44,-36,-36,-21,-13,-21,-20,-17,-27,-38,-44,-46,-48,-43,-45,-50,-112,-381,-465,-50,995,1405,544,-47,-231,-129,-91,-79,-69,-63,-64,-57,-55,-52,-46,-45,-41,-41,-33,-26,-29,-24,-22,-14,-6,-2,11,26,42,60,79,90,82,56,22,0,-19,-27,-32,-33,-36,-34,-32,-32,-34,-37,-37,-42,-42,-41,-40,-39,-40,-42,-40,-41,-36,-33,-35,-36,-35,-31,-33,-33,-33,-28,-25,-14,0,-7,-11,-6,-22,-37,-35,-39
2019-06-06,16:36:38.132,-39,-43,-38,-41,-90,-346,-469,-128,880,1454,614,6,-233,-134,-88,-74,-65,-60,-55,-51,-48,-48,-39,-35,-34,-30,-24,-17,-17,-19,-11,-10,3,12,27,37,57,75,88,99,90,59,26,-1,-19,-32,-39,-38,-39,-37,-35,-37,-37,-34,-36,-34,-37,-38,-35,-36,-38,-35,-35,-35,-34,-34,-39,-40,-34,-29,-15,-9,0,-6,-6,-13,-27,-41,-45,-45,-42,-46,-46,-64,-217,-450,-339,348,1372,947,222,-217,-258,-125,-93,-81,-77,-67,-58,-52,-48,-47,-45,-36,-34,-28,-22,-17,-12,-7,2,15,30,46,61,78,90,107,117,105,76,39,7,-14,-28,-33,-35,-37
2019-06-06,16:36:39.157,-17,-16,-20,-20,-19,-21,-21,-19,-19,-18,-21,-19,-18,-18,-19,-25,-23,-26,-23,-12,-2,-1,13,5,7,-8,-22,-24,-25,-23,-25,-26,-29,-65,-285,-440,-189,716,1453,665,40,-273,-180,-95,-68,-59,-51,-48,-42,-38,-36,-31,-31,-30,-26,-21,-16,-13,-11,-7,-4,0,8,25,43,59,75,91,102,88,58,21,-7,-30,-41,-50,-52,-51,-51,-47,-52,-54,-52,-54,-51,-48,-53,-51,-50,-45,-47,-46,-41,-44,-38,-41,-40,-43,-38,-18,-20,-14,-9,-13,-24,-42,-48,-46,-48,-49,-50,-50,-82,-272,-400,-171,608,1258,500,-30,-332,-287,-134,-91,-69,-60,-53,-45
2019-06-06,16:36:40.181,-25,-20,-15,-9,1,1,10,11,22,32,37,47,62,80,91,102,121,137,153,153,130,96,59,26,-2,-17,-24,-29,-35,-30,-33,-36,-35,-32,-34,-32,-31,-27,-26,-22,-23,-21,-19,-19,-23,-25,-22,-22,-26,-28,-27,-20,-5,1,1,0,-1,-18,-27,-30,-33,-32,-39,-41,-41,-65,-256,-433,-250,529,1366,705,83,-299,-282,-131,-82,-68,-57,-51,-44,-38,-34,-31,-27,-24,-18,-15,-11,-4,3,12,22,29,43,60,74,88,108,122,129,116,78,39,7,-19,-30,-43,-48,-46,-46,-43,-45,-47,-45,-46,-46,-45,-47,-46,-44,-41,-40,-34,-38,-42,-41,-43
2019-06-06,16:36:41.206,-13,-14,-14,-18,-18,-13,-12,-17,-10,-9,9,15,22,19,13,12,-3,-12,-12,-17,-16,-18,-23,-31,-158,-424,-377,230,1324,1170,354,-179,-241,-120,-75,-63,-52,-48,-46,-48,-48,-41,-44,-37,-28,-23,-25,-25,-23,-25,-20,-17,-7,8,23,40,56,77,97,104,88,59,29,9,-12,-24,-32,-37,-34,-32,-30,-31,-32,-34,-34,-33,-31,-32,-31,-33,-29,-31,-33,-29,-30,-26,-24,-27,-25,-27,-26,-28,-26,-23,-28,-26,-28,-20,-13,0,14,10,3,5,-5,-17,-27,-26,-27,-33,-32,-35,-67,-275,-432,-217,602,1385,678,69,-289,-253,-123,-84,-73,-65,-58,-55
2019-06-06,16:36:42.231,-32,-28,-22,-18,-14,-8,-5,0,4,10,17,23,39,53,72,86,106,128,143,156,146,119,83,50,22,2,-10,-15,-21,-27,-32,-34,-34,-35,-38,-40,-39,-35,-34,-34,-38,-33,-33,-32,-31,-39,-34,-36,-38,-44,-47,-45,-46,-46,-43,-40,-44,-41,-44,-46,-48,-48,-42,-41,-39,-25,-10,-17,-25,-18,-30,-43,-46,-44,-40,-42,-37,-44,-101,-327,-388,-26,865,1113,336,-102,-318,-182,-101,-74,-60,-53,-42,-32,-30,-23,-21,-14,-6,-2,8,18,24,28,43,50,62,78,91,108,122,132,150,158,145,112,68,32,0,-17,-28,-35,-35,-35,-34,-36,-39,-36
2019-06-06,16:36:43.255,-14,-11,-11,-12,-13,-10,-9,-7,-8,-7,-6,-1,-7,-10,-11,-9,-11,-12,-13,-12,-12,-16,-13,-14,-11,-10,-2,1,6,23,29,27,21,24,12,-1,-6,-5,-13,-7,-13,-19,-95,-363,-405,106,1165,1312,420,-118,-152,-83,-48,-49,-42,-42,-39,-38,-36,-37,-34,-36,-36,-34,-31,-30,-24,-24,-22,-22,-22,-13,-10,3,23,37,65,85,88,69,40,14,-7,-24,-33,-32,-38,-39,-39,-40,-36,-41,-39,-40,-41,-40,-42,-42,-42,-44,-45,-40,-42,-38,-37,-40,-39,-39,-38,-36,-41,-43,-43,-45,-45,-45,-44,-40,-39,-34,-31,-27,-20,-23,-22,-3,-4,-8
2019-06-06,16:36:44.280,-30,-39,-49,-55,-57,-59,-55,-60,-65,-149,-415,-442,69,1138,1221,380,-143,-187,-112,-89,-88,-82,-83,-74,-64,-72,-74,-69,-71,-71,-68,-68,-65,-65,-67,-69,-66,-59,-53,-40,-28,-14,5,29,55,64,51,27,3,-15,-31,-42,-46,-43,-40,-43,-47,-41,-47,-46,-47,-43,-44,-47,-50,-43,-48,-53,-47,-44,-48,-43,-44,-43,-45,-42,-40,-39,-36,-38,-38,-35,-35,-34,-35,-33,-26,-25,-27,-21,-3,-4,-11,-6,-15,-27,-27,-29,-28,-25,-30,-53,-203,-446,-339,389,1391,911,199,-185,-145,-85,-72,-68,-59,-56,-51,-52,-43,-42,-38,-35,-29,-27,-25,-22,-20,-23
2019-06-06,16:36:45.305,-107,-108,-105,-100,-100,-92,-80,-58,-39,-24,-26,-46,-66,-91,-99,-99,-103,-100,-99,-85,-82,-87,-91,-87,-84,-84,-81,-84,-77,-75,-79,-78,-73,-69,-72,-70,-73,-72,-73,-69,-69,-68,-66,-57,-60,-59,-66,-60,-47,-42,-39,-31,-25,-22,-19,-9,-21,-36,-37,-38,-36,-39,-43,-43,-116,-405,-456,4,1078,1368,590,47,-105,-71,-60,-61,-59,-53,-53,-51,-52,-50,-49,-43,-49,-45,-39,-33,-39,-50,-49,-56,-59,-57,-59,-50,-43,-29,-3,18,29,30,12,0,-11,-16,-25,-28,-27,-19,-18,-32,-25,-18,-19,-19,-23,-25,-21,-15,-13,-14,-17,-23,-23,-18,-24,-27
2019-06-06,16:36:46.329,-64,-60,-58,-57,-55,-57,-55,-53,-51,-49,-29,-33,-34,-29,-32,-51,-57,-56,-56,-52,-50,-51,-82,-305,-498,-255,665,1465,795,197,-81,-73,-77,-70,-75,-72,-72,-73,-66,-71,-65,-64,-63,-62,-60,-56,-59,-62,-64,-72,-74,-76,-73,-67,-58,-45,-33,-12,3,9,0,-11,-20,-24,-31,-30,-23,-22,-20,-19,-17,-12,-14,-11,-10,-12,-11,-9,2,8,11,6,5,-2,-10,-8,-7,-3,-4,-10,-11,-10,-7,-5,2,17,13,8,10,-3,-17,-22,-16,-19,-21,-22,-29,-97,-367,-426,50,1115,1352,601,126,-30,-25,-51,-64,-66,-67,-66,-70,-66,-65,-69,-73,-72
2019-06-06,16:36:47.354,-115,-113,-113,-119,-120,-114,-115,-114,-107,-99,-88,-75,-57,-43,-21,-22,-34,-48,-61,-73,-82,-83,-80,-80,-74,-75,-72,-70,-72,-70,-71,-69,-71,-72,-69,-69,-68,-66,-71,-67,-68,-68,-65,-61,-54,-46,-37,-28,-37,-32,-39,-50,-56,-61,-60,-60,-67,-67,-88,-219,-367,-203,415,1081,524,-1,-266,-345,-180,-111,-94,-73,-74,-59,-42,-42,-34,-20,-6,1,10,15,27,40,51,59,75,94,104,119,129,137,152,166,153,119,83,49,13,-4,-14,-22,-22,-23,-19,-17,-23,-22,-19,-19,-21,-19,-18,-16,-15,-23,-25,-27,-28,-27,-37,-43,-41,-35,-11,-14,-4,-12
2019-06-06,16:36:48.379,-60,-70,-81,-89,-93,-95,-93,-97,-99,-126,-308,-455,-244,539,1211,478,-63,-361,-261,-150,-118,-104,-94,-87,-82,-76,-67,-66,-62,-58,-58,-55,-50,-47,-38,-35,-28,-25,-17,-6,6,20,31,52,71,69,43,13,-13,-32,-44,-51,-54,-56,-55,-55,-54,-54,-50,-50,-47,-44,-44,-40,-42,-39,-36,-34,-34,-33,-31,-32,-30,-20,-10,1,12,0,2,-8,-21,-22,-22,-22,-21,-25,-26,-63,-274,-396,-115,762,1314,534,7,-214,-104,-66,-56,-49,-44,-36,-33,-29,-29,-25,-25,-25,-18,-13,-15,-15,-16,-9,-11,-8,-2,1,9,18,33,54,58,50,35,7,-12,-26
2019-06-06,16:36:49.403,-60,-72,-72,-65,-58,-59,-57,-62,-58,-64,-56,-52,-53,-52,-49,-46,-45,-44,-44,-47,-47,-38,-30,-19,-6,-7,-9,-23,-30,-42,-40,-41,-44,-43,-49,-71,-239,-415,-226,528,1303,591,28,-296,-276,-121,-91,-75,-63,-55,-48,-46,-42,-34,-32,-26,-27,-20,-16,-11,1,9,7,22,36,50,63,75,91,100,106,81,43,5,-25,-43,-56,-59,-55,-54,-53,-52,-51,-57,-58,-59,-58,-56,-52,-50,-44,-41,-44,-44,-50,-48,-48,-50,-47,-48,-39,-27,-13,-17,-24,-24,-44,-53,-55,-55,-53,-53,-53,-60,-144,-409,-434,58,1125,1260,414,-140,-209,-123,-93,-80,-79,-75
2019-06-06,16:36:50.428,-161,-149,-139,-140,-145,-137,-139,-133,-129,-125,-122,-120,-111,-110,-99,-91,-79,-66,-48,-24,-4,1,-12,-39,-64,-81,-91,-94,-95,-96,-88,-86,-85,-86,-82,-82,-82,-76,-74,-72,-73,-69,-63,-63,-64,-61,-59,-60,-57,-56,-56,-57,-56,-57,-49,-47,-49,-41,-23,-23,-28,-25,-29,-41,-49,-46,-48,-50,-46,-46,-78,-281,-468,-246,615,1452,804,129,-176,-114,-85,-72,-69,-66,-63,-59,-58,-54,-52,-49,-50,-49,-47,-46,-40,-41,-46,-43,-42,-34,-22,-11,4,24,39,55,54,33,11,-6,-21,-35,-40,-41,-37,-41,-37,-35,-38,-42,-42,-40,-41,-45,-42,-41,-39,-39
2019-06-06,16:36:51.453,-154,-151,-146,-143,-139,-141,-137,-139,-135,-133,-131,-126,-124,-123,-116,-113,-112,-110,-113,-106,-103,-100,-94,-79,-79,-79,-72,-71,-84,-87,-89,-85,-85,-80,-80,-103,-287,-491,-301,521,1399,836,248,-55,-70,-74,-84,-88,-87,-77,-75,-74,-72,-69,-66,-64,-60,-57,-55,-52,-56,-53,-50,-52,-44,-31,-19,-5,13,37,53,57,45,24,1,-15,-27,-35,-35,-32,-31,-28,-28,-29,-27,-31,-33,-37,-37,-33,-33,-32,-27,-28,-22,-20,-19,-19,-22,-18,-20,-20,-22,-23,-22,-21,-20,-19,-22,-22,-24,-23,-24,-23,-19,-18,-18,-22,-25,-23,-28,-14,-3,-7,-3,-10,-18,-22
2019-06-06,16:36:52.477,-92,-86,-85,-85,-89,-146,-380,-445,-59,866,1194,421,-45,-233,-145,-104,-98,-94,-86,-80,-77,-72,-71,-64,-59,-53,-45,-37,-32,-24,-27,-20,-11,0,11,26,46,63,77,91,103,95,62,25,-11,-34,-46,-56,-60,-58,-55,-56,-58,-58,-60,-62,-59,-58,-54,-47,-47,-41,-42,-43,-40,-41,-42,-43,-42,-41,-40,-41,-44,-42,-45,-43,-38,-38,-38,-38,-39,-38,-41,-36,-33,-40,-44,-47,-36,-19,-11,-15,-19,-24,-30,-28,-27,-26,-29,-31,-51,-212,-413,-260,443,1318,802,184,-160,-145,-69,-62,-59,-52,-49,-45,-43,-36,-30,-24,-19,-15,-12,-3,-2,0,6,11
2019-06-06,16:36:53.502,21,30,41,61,73,92,111,127,125,104,72,33,6,-10,-27,-30,-30,-28,-28,-30,-37,-45,-44,-40,-42,-38,-37,-35,-36,-36,-32,-33,-31,-29,-28,-29,-28,-29,-27,-29,-29,-27,-30,-31,-31,-31,-32,-32,-31,-34,-29,-26,-24,-22,-24,-27,-31,-33,-33,-12,-4,-10,-7,-12,-24,-24,-23,-22,-22,-24,-44,-199,-406,-267,423,1345,861,212,-152,-147,-69,-63,-60,-53,-49,-43,-41,-35,-33,-32,-30,-28,-27,-30,-30,-25,-21,-15,-8,-3,12,27,50,75,96,115,120,100,67,30,-2,-22,-33,-41,-46,-46,-47,-52,-53,-58,-54,-59,-62,-59,-60,-58,-53,-49
2019-06-06,16:36:54.526,9,11,4,-5,1,7,6,7,4,5,2,1,4,4,-3,-5,-9,-11,-8,-13,-14,-13,-13,-6,-8,-15,-23,-18,0,13,18,12,19,10,4,5,2,4,4,0,-52,-283,-366,-48,840,1309,536,17,-237,-137,-62,-49,-40,-33,-30,-29,-29,-27,-18,-16,-5,-3,-2,-1,3,12,18,22,33,43,59,75,89,105,123,134,128,104,65,30,1,-17,-30,-36,-39,-36,-38,-41,-44,-45,-45,-49,-48,-47,-47,-45,-43,-43,-40,-37,-34,-39,-36,-35,-34,-36,-38,-37,-35,-33,-33,-39,-34,-39,-42,-37,-34,-37,-39,-37,-38,-40,-37,-36,-41,-48,-54,-55
2019-06-06,16:36:55.551,1,16,14,12,15,0,-3,-3,-2,-2,-7,-18,-108,-360,-352,155,1160,1161,404,-88,-145,-67,-44,-39,-35,-29,-27,-26,-26,-27,-25,-20,-19,-16,-13,-13,-15,-14,-11,-12,-3,2,13,26,43,62,86,106,108,92,57,28,9,-5,-12,-20,-26,-25,-26,-21,-19,-21,-26,-25,-21,-21,-22,-25,-25,-27,-27,-26,-23,-27,-20,-20,-18,-18,-21,-16,-17,-19,-16,-15,-12,-15,-19,-19,-18,-18,-18,-19,-20,-19,-17,-17,-12,-14,-16,-14,-20,-28,-35,-27,-8,-1,-6,-5,-8,-17,-21,-21,-19,-18,-19,-53,-253,-425,-200,622,1436,790,211,-97,-82,-49,-49,-50
2019-06-06,16:36:56.576,-20,-16,-15,-12,-9,-8,-8,-4,-2,-1,-2,-5,-8,-7,-5,-2,6,14,30,50,75,98,123,135,127,98,68,39,14,0,-9,-11,-18,-16,-17,-19,-18,-19,-19,-18,-23,-19,-21,-20,-19,-16,-15,-22,-20,-24,-24,-23,-23,-28,-31,-35,-34,-29,-29,-35,-33,-31,-31,-34,-31,-32,-33,-29,-27,-31,-41,-49,-59,-64,-55,-34,-23,-31,-39,-31,-31,-46,-46,-42,-37,-41,-98,-322,-370,-11,838,1124,382,-37,-254,-160,-72,-60,-46,-35,-28,-26,-25,-18,-10,-8,0,1,13,20,22,35,41,55,70,73,90,103,117,132,146,156,145,119,75,35,-1,-20
2019-06-06,16:36:57.600,36,30,31,33,34,35,36,32,33,26,25,32,26,26,22,20,20,21,21,17,19,12,11,9,8,7,7,8,10,9,10,11,11,12,6,11,14,11,14,16,18,19,6,-2,-6,0,15,35,23,20,23,17,13,17,20,20,22,-15,-236,-390,-128,773,1484,741,93,-158,-67,-23,-1,5,13,13,11,15,12,10,15,17,23,31,31,28,33,31,33,33,39,48,63,76,98,125,150,167,164,149,118,88,68,53,45,43,36,38,39,44,45,45,47,43,44,43,42,36,37,38,35,32,38,36,39,36,37,36,29,31,27,34
2019-06-06,16:36:58.625,3,0,2,1,-5,-6,-1,1,2,2,8,7,-3,-9,-11,6,25,22,11,19,13,-1,-3,-4,-3,0,-7,-59,-316,-425,-66,925,1440,625,20,-169,-83,-53,-36,-35,-33,-35,-30,-24,-23,-20,-14,-18,-17,-16,-17,-20,-19,-19,-16,-18,-18,-10,-2,13,30,53,78,97,89,66,45,20,3,-10,-15,-22,-19,-20,-18,-15,-20,-15,-19,-18,-16,-22,-27,-30,-26,-24,-25,-21,-22,-24,-21,-20,-18,-18,-19,-19,-22,-24,-26,-23,-20,-22,-21,-15,-17,-23,-22,-24,-23,-34,-36,-22,-2,0,-5,-3,-14,-20,-22,-16,-12,-12,-20,-102,-390,-430,63,1170
2019-06-06,16:36:59.650,1444,628,83,-30,-1,3,5,3,2,3,3,3,2,2,1,-5,-4,-3,-3,-3,-10,-17,-18,-28,-27,-28,-21,-5,4,29,58,76,76,60,43,26,9,0,-9,-10,-5,-6,-4,-6,-4,-5,-7,-11,-13,-10,-15,-16,-11,-14,-9,-13,-13,-16,-15,-13,-11,-14,-11,-14,-14,-17,-15,-17,-16,-15,-17,-16,-19,-19,-15,-23,-32,-34,-37,-17,-3,-11,-4,-8,-21,-21,-20,-20,-23,-26,-46,-212,-466,-336,447,1476,1051,363,-30,-54,-57,-59,-57,-57,-55,-56,-57,-55,-52,-52,-53,-50,-46,-44,-45,-48,-56,-56,-66,-62,-62,-56,-48,-34,-10,11,39,47
2019-06-06,16:37:00.674,175,161,147,129,121,111,113,113,113,116,109,111,108,108,104,103,104,101,100,99,97,96,90,89,89,90,90,90,86,84,86,85,77,73,73,70,73,69,70,71,71,66,56,58,69,78,84,82,76,65,58,56,53,52,51,45,-5,-247,-351,-14,896,1371,600,109,-111,-40,-3,-2,-4,0,2,5,5,6,9,11,14,14,18,23,24,25,24,29,34,41,47,57,66,73,89,105,107,91,63,34,14,-3,-17,-21,-24,-24,-25,-26,-26,-32,-25,-27,-32,-28,-26,-27,-30,-29,-31,-31,-30,-32,-29,-29,-28,-27,-34,-31,-29,-30,-31,-30
2019-06-06,16:37:01.699,-22,-20,-21,-24,-30,-29,-28,-13,-2,-6,1,-4,-17,-19,-20,-17,-17,-17,-34,-176,-384,-283,337,1248,867,232,-151,-207,-81,-59,-46,-41,-33,-28,-24,-19,-15,-12,-7,-4,-2,1,8,13,15,21,29,33,40,53,67,76,94,109,118,104,81,48,23,0,-14,-21,-29,-35,-38,-30,-31,-33,-37,-33,-34,-37,-38,-38,-39,-35,-36,-34,-30,-33,-33,-31,-36,-34,-36,-38,-39,-39,-31,-33,-29,-34,-33,-40,-43,-49,-40,-24,-23,-23,-27,-33,-39,-39,-37,-37,-36,-47,-146,-365,-314,215,1067,814,147,-199,-322,-150,-75,-56,-43,-34,-25,-15,-16,-12,-5,-3
2019-06-06,16:37:02.724,23,33,39,41,48,55,66,75,88,104,116,125,140,149,159,163,148,118,74,36,9,-11,-14,-21,-28,-30,-30,-29,-30,-33,-30,-30,-28,-34,-32,-28,-29,-35,-36,-32,-31,-32,-30,-29,-32,-32,-28,-32,-31,-34,-33,-34,-32,-36,-28,-24,-19,-6,-4,-11,-8,-22,-34,-39,-36,-33,-37,-36,-46,-132,-400,-410,81,1138,1205,383,-136,-244,-125,-88,-73,-67,-60,-57,-58,-56,-54,-55,-50,-49,-41,-38,-38,-35,-29,-23,-22,-11,-8,-11,9,40,69,85,99,105,87,56,25,0,-14,-34,-40,-41,-43,-39,-35,-32,-32,-35,-36,-38,-38,-36,-37,-37,-36,-29
2019-06-06,16:37:03.748,13,18,14,11,12,10,11,12,11,16,11,15,21,26,41,48,37,33,33,23,13,5,0,0,11,19,5,-115,-391,-348,278,1409,1255,406,-109,-136,-66,-41,-34,-31,-27,-22,-15,-21,-13,-18,-19,-16,-18,-17,-18,-16,-11,-21,-25,-28,-30,-15,-2,16,39,64,81,83,70,43,23,4,-12,-19,-27,-28,-29,-26,-23,-23,-24,-23,-29,-27,-27,-27,-28,-30,-32,-32,-30,-31,-30,-29,-24,-27,-27,-37,-37,-37,-32,-37,-37,-31,-28,-31,-19,-5,-8,-12,-13,-27,-36,-33,-37,-36,-37,-40,-47,-125,-415,-485,-17,1110,1475,626,39,-130,-86,-81,-76,-80
2019-06-06,16:37:04.773,-70,-64,-64,-65,-61,-59,-55,-55,-51,-47,-49,-52,-59,-59,-60,-62,-56,-49,-38,-21,-3,23,45,58,51,26,4,-14,-32,-40,-40,-40,-35,-38,-35,-37,-33,-41,-39,-39,-42,-40,-46,-40,-44,-44,-45,-42,-42,-40,-39,-37,-38,-36,-37,-39,-37,-40,-40,-34,-33,-23,-30,-26,-12,-10,-11,-3,-3,-20,-28,-24,-24,-23,-25,-28,-47,-235,-483,-317,529,1573,1002,289,-85,-92,-70,-64,-70,-63,-61,-57,-65,-59,-60,-58,-56,-56,-56,-58,-55,-56,-60,-65,-62,-61,-49,-41,-26,-14,2,27,44,42,25,2,-8,-27,-35,-37,-36,-36,-35,-37,-31,-32,-38,-37
2019-06-06,16:37:05.798,-87,-89,-87,-84,-86,-84,-87,-89,-85,-83,-85,-76,-74,-75,-77,-76,-78,-77,-76,-71,-72,-65,-70,-63,-59,-57,-61,-69,-53,-33,-38,-42,-43,-60,-58,-72,-71,-59,-76,-63,-79,-335,-502,-180,837,1570,826,217,-24,-28,-56,-64,-74,-76,-79,-73,-79,-83,-81,-74,-67,-62,-74,-68,-66,-71,-70,-70,-76,-74,-69,-52,-37,-19,3,29,47,41,39,21,8,-1,-3,-2,2,1,0,5,3,3,4,5,0,-2,-7,-7,-3,-3,3,5,3,3,3,6,5,7,4,0,0,2,1,1,0,-1,-4,0,-2,-7,-7,9,4,8,13,3,-11,-17,-15,-14
2019-06-06,16:37:06.822,-67,-71,-75,-122,-364,-475,-140,788,1339,553,13,-213,-138,-108,-104,-99,-93,-87,-83,-81,-81,-78,-74,-70,-64,-60,-56,-57,-51,-44,-36,-30,-21,-9,0,16,32,53,70,68,50,18,-13,-34,-49,-59,-63,-64,-63,-61,-58,-58,-57,-60,-66,-62,-59,-58,-55,-57,-54,-54,-53,-52,-48,-48,-46,-51,-49,-53,-53,-53,-55,-49,-49,-49,-46,-46,-38,-43,-27,-20,-21,-20,-19,-32,-41,-43,-44,-45,-43,-44,-54,-174,-404,-338,249,1220,1000,321,-67,-148,-70,-61,-54,-51,-47,-47,-48,-42,-35,-29,-28,-27,-26,-27,-31,-32,-24,-32,-30,-23,-18,-5,5,20,29,49
2019-06-06,16:37:07.847,-2,-3,-23,-41,-52,-67,-74,-73,-69,-70,-75,-79,-77,-81,-79,-76,-79,-81,-79,-74,-70,-74,-65,-66,-68,-65,-63,-65,-67,-65,-67,-65,-65,-61,-61,-58,-60,-63,-53,-52,-41,-39,-22,-22,-27,-24,-21,-44,-49,-43,-41,-43,-37,-40,-51,-175,-433,-364,300,1363,1193,546,147,-7,-22,-51,-63,-65,-63,-66,-64,-63,-56,-60,-62,-67,-65,-64,-71,-73,-80,-91,-97,-98,-106,-118,-121,-104,-41,-9,-4,23,31,4,-37,-32,-42,-15,-28,-53,-75,-38,-62,-64,-154,-178,-7,-127,-182,-78,-19,-9,-32,15,-33,-103,-153,-141,-95,-145,-77,47,-108,-22,57,-190,-160,-8
2019-06-06,16:37:08.871,-16,-81,41,-46,-171,-51,39,-76,-174,-24,-138,-241,109,115,-74,-134,-437,-485,282,1453,1294,647,155,54,-54,-85,-89,-29,-140,-115,-124,-97,-77,-60,-32,-67,-43,-69,-61,-67,-34,-48,-75,-48,-24,-19,-16,-3,24,39,49,51,35,13,0,-18,-23,-32,-37,-31,-21,-16,-15,-17,-13,-9,-4,6,26,33,0,0,-5,-9,-8,-10,-8,-11,-9,-9,-13,-16,-18,-22,-15,-24,-13,-7,7,12,10,12,20,23,25,27,29,22,-72,-321,-338,191,1198,1272,697,350,144,107,50,21,10,4,3,0,-1,-6,-7,-13,-17,-23,-27,-31,-32,-35,-35,-39,-41,-39
2019-06-06,16:37:09.896,8,18,30,47,71,91,94,78,67,47,32,26,22,17,15,-2,-34,-3,8,34,25,19,8,0,1,0,-2,-7,-13,-18,-22,-26,-30,-29,-32,-35,-38,-46,-38,-26,-28,-22,-37,-36,-40,-53,-58,-59,-56,-58,-62,-62,-109,-328,-478,-215,673,1466,618,47,-266,-236,-131,-112,-105,-93,-84,-76,-73,-67,-60,-52,-47,-45,-47,-49,-46,-43,-55,-57,-66,-64,-25,0,28,41,58,81,91,81,53,19,-16,-39,-55,-69,-68,-70,-72,-71,-70,-70,-71,-69,-70,-75,-72,-69,-63,-57,-55,-53,-52,-50,-46,-41,-39,-29,-4,3,4,-5,-27,-28,-34,-34,-19,-21
2019-06-06,16:37:10.921,-122,-103,-72,-87,-292,-462,-276,534,1426,715,102,-269,-302,-148,-110,-92,-83,-77,-70,-73,-71,-62,-107,-69,-77,-94,-31,14,-14,-90,-157,-379,-283,-67,147,143,113,131,103,69,40,-50,25,-81,-143,-74,-47,0,-32,-45,-61,-62,-62,-72,-74,-80,-71,-74,-81,-83,-77,-73,-70,-68,-65,-63,-68,-65,-63,-53,-34,-30,-31,-27,-29,-43,-57,-58,-61,-59,-57,-58,-61,-103,-327,-471,-192,714,1469,720,169,-138,-123,-86,-84,-86,-86,-84,-79,-78,-72,-71,-73,-70,-64,-62,-58,-54,-52,-46,-39,-26,-11,-13,-15,-19,-21,-6,12,25,23,5,-19,-36,-41,-42,-44,-48
2019-06-06,16:37:11.945,-124,-109,-98,-92,-88,-85,-82,-82,-81,-75,-83,-85,-85,-86,-87,-86,-82,-83,-78,-62,-44,-41,-36,-36,-33,-47,-59,-64,-58,-57,-66,-68,-61,-103,-335,-506,-277,614,1464,788,199,-139,-125,-99,-91,-85,-76,-69,-66,-65,-88,-132,-101,-6,-2,-16,-22,-29,-62,-25,-23,-47,-66,-60,-18,-21,-10,13,34,53,51,39,16,4,-14,-21,-26,-25,-21,-21,-22,-16,-19,-17,-20,-21,-24,-24,-30,-31,-36,-38,-48,-52,-45,-40,-24,-22,-25,-28,-38,-39,-53,-58,-50,-42,-40,-34,-35,-48,-191,-461,-392,269,1431,1221,470,4,-114,-99,-120,-128,-129,-114,-97,-77,-70,-49
2019-06-06,16:37:12.970,-71,-70,-72,-65,-58,-51,-56,-61,-70,-71,-72,-74,-72,-72,-68,-58,-35,-13,-3,-12,-20,-36,-43,-45,-56,-55,-57,-53,-51,-51,-54,-57,-54,-49,-38,-30,-32,-26,-20,-19,-23,-13,-3,19,27,25,25,14,7,-12,-27,-27,-28,-31,-30,-31,-34,-85,-350,-493,-209,775,1513,718,127,-184,-128,-77,-66,-60,-57,-57,-52,-46,-44,-48,-47,-39,-39,-41,-41,-44,-49,-49,-49,-52,-56,-50,-43,-38,-26,0,21,35,33,21,-2,-18,-27,-35,-42,-48,-46,-45,-43,-42,-45,-51,-52,-55,-59,-57,-62,-64,-67,-75,-68,-62,-46,-34,-28,-26,-26,-33,-53,-64,-64,-69
2019-06-06,16:37:13.995,-120,-119,-114,-120,-224,-500,-492,52,1203,1286,498,8,-168,-119,-110,-107,-109,-106,-103,-99,-93,-84,-79,-74,-69,-71,-69,-65,-66,-72,-73,-77,-78,-75,-72,-66,-56,-39,-19,-3,2,-3,-13,-32,-46,-51,-52,-57,-54,-51,-47,-44,-43,-41,-49,-46,-45,-50,-57,-62,-65,-69,-72,-60,-44,-34,-24,-33,-37,-53,-57,-57,-54,-55,-55,-59,-57,-126,-393,-461,-91,928,1400,649,116,-132,-94,-75,-70,-67,-68,-59,-61,-55,-62,-55,-50,-52,-46,-46,-45,-40,-44,-48,-58,-59,-56,-56,-53,-42,-25,-10,13,26,25,18,2,-4,-14,-24,-25,-17,-15,0,9,2,-1,-3
2019-06-06,16:37:15.019,-43,-49,-60,-59,-60,-62,-69,-79,-67,-59,-53,-73,-71,-79,-88,-84,-78,-73,-66,-66,-58,-82,-271,-456,-262,538,1438,794,195,-154,-169,-86,-81,-71,-68,-68,-57,-65,-60,-57,-47,-39,-35,-29,-30,-25,-24,-27,-24,-18,-20,-21,-12,-4,0,16,26,42,37,16,-1,-17,-24,-31,-33,-31,-31,-30,-31,-32,-35,-36,-36,-33,-34,-31,-31,-36,-35,-39,-25,-5,-1,-20,-23,-33,-51,-53,-51,-46,-44,-49,-47,-69,-259,-453,-260,565,1497,903,274,-77,-77,-62,-65,-66,-62,-59,-61,-58,-58,-63,-60,-56,-58,-58,-62,-56,-58,-55,-74,-80,-67,-64,-70,-67,-62,-28
2019-06-06,16:37:16.044,-31,-31,13,-32,-12,-35,-34,-41,-57,-70,-34,-66,-89,-51,-16,-13,-57,-80,-63,-41,-23,-36,-17,-19,-8,-8,-45,-27,-24,-35,-62,-60,-58,-54,-54,-62,-101,-317,-416,-79,833,1348,541,4,-150,-92,-107,-61,-77,-103,-41,-17,-18,-19,-26,-18,-24,-42,-25,-61,-101,-94,-22,20,19,6,5,20,9,11,67,63,36,-12,60,34,33,0,-76,-99,-51,-47,-56,-8,-1,-17,-10,-25,-33,-46,-175,-70,-63,28,-25,-5,12,19,-11,-4,-31,-93,-108,-72,-65,-82,-168,-380,-271,396,1262,728,86,-199,-282,-136,-44,-14,-114,-51,-29,-49,-84,-101,-27,-40,-43,-84
2019-06-06,16:37:17.069,-67,-61,-61,-133,-106,-41,-148,-81,-69,-16,-35,-46,-1,49,-1,-16,-44,-91,-51,-53,-48,-112,-91,-49,-176,-58,-15,-34,-85,-87,-94,-116,-80,-46,-32,-24,-30,-47,-61,-55,-38,-89,-150,-65,-43,-68,-87,-235,-405,-232,469,1292,716,102,-189,-131,-68,-88,-80,-78,-68,-46,-39,-74,-80,-60,-65,-27,-22,-21,-24,-28,-28,-28,-38,-25,-72,-30,-1,1,15,27,31,8,44,18,-15,-28,-6,-26,-26,0,-6,-16,-14,-22,-35,-58,-28,7,-20,-26,8,22,1,12,-4,-40,-28,10,-54,-63,3,2,-31,-162,-378,-272,344,1297,987,326,-47,-55,-35,-46,-49,-24
2019-06-06,16:37:18.093,-166,-152,-146,-162,-146,-146,-132,-116,-130,-129,-114,-123,-133,-111,-118,-114,-113,-117,-97,-91,-61,-52,-34,-34,-38,-51,-58,-46,-73,-83,-60,-62,-56,-68,-64,-106,-86,-78,-79,-79,-60,-58,-45,-39,-30,-29,-46,-59,-71,-84,-58,-73,-74,-73,-130,-338,-442,-57,823,1245,532,69,-94,-52,-52,-63,-64,-74,-69,-60,-63,-74,-53,-28,-26,-24,-39,-34,-40,-9,-1,-34,-39,-28,-27,-23,-30,-3,-5,28,46,33,18,8,10,-1,-4,-7,-2,-31,-37,-6,-7,-5,-9,-9,-9,-13,4,25,11,11,12,0,-17,-19,-16,-11,-16,-18,-36,-201,-410,-224,549,1412,884,286
2019-06-06,16:37:19.118,-98,-107,-107,-106,-106,-101,-98,-94,-93,-88,-88,-98,-84,-93,-75,-66,-66,-72,-79,-93,-88,-84,-96,-98,-90,-64,-38,-23,-16,-19,-24,-40,-15,-38,-55,-49,-41,-54,-37,-30,-57,-54,-46,-42,-45,-53,-34,-20,-33,-40,-39,-53,-69,-71,-69,-70,-69,-72,-113,-331,-479,-193,692,1343,646,76,-127,-105,-94,-85,-77,-72,-70,-73,-75,-66,-62,-67,-65,-60,-63,-61,-60,-61,-64,-67,-67,-75,-72,-68,-63,-48,-24,-8,2,-1,-23,-36,-46,-53,-61,-56,-49,-48,-41,-39,-37,-38,-34,-37,-43,-33,-1,-5,-23,-22,-33,-48,-46,-45,-47,-51,-49,-64,-225,-471,-364,330
2019-06-06,16:37:20.142,1368,939,169,-276,-225,-96,-50,-38,-24,-15,-10,-5,1,7,17,23,27,36,41,43,44,43,44,41,38,36,32,33,37,49,63,70,57,34,14,-2,-11,-20,-19,-21,-19,-17,-22,-28,-24,-13,-17,-17,-16,20,22,6,0,-10,-23,-32,-41,-41,-38,-38,-45,-128,-396,-440,31,1043,1114,271,-236,-239,-120,-70,-67,-60,-54,-51,-46,-44,-36,-33,-33,-34,-30,-29,-30,-29,-30,-32,-36,-41,-43,-47,-46,-42,-25,-3,8,2,-7,-17,-28,-38,-36,-37,-38,-32,-30,-31,-30,-30,-29,-28,-25,-29,-10,15,10,-3,-7,-18,-25,-34,-39,-41,-42,-42,-85,-349
2019-06-06,16:37:21.167,-383,-53,956,1592,749,49,-126,-11,55,75,84,91,96,97,100,100,100,108,103,104,105,112,110,103,101,97,92,89,81,80,95,111,131,149,147,130,106,99,82,72,71,65,69,63,60,63,61,65,66,65,58,68,94,97,81,77,64,40,25,18,13,17,6,-19,-178,-461,-387,317,1381,962,160,-328,-282,-110,-46,-32,-17,-8,0,0,4,6,16,24,28,30,36,34,40,47,47,44,46,51,54,60,78,93,106,94,64,33,9,-10,-22,-30,-36,-39,-39,-38,-40,-38,-34,-34,-29,-25,-30,-3,6,-9,-16,-22,-36,-53,-60,-64,-64,-62
2019-06-06,16:37:22.192,-78,-164,-446,-487,20,1043,1000,139,-384,-423,-213,-103,-77,-66,-54,-43,-37,-32,-27,-20,-14,-9,-1,5,15,24,26,31,33,35,52,53,65,85,108,123,122,105,78,39,13,-3,-14,-20,-22,-21,-22,-21,-21,-19,-26,-22,-15,-21,-5,23,18,1,-4,-18,-32,-45,-49,-52,-52,-59,-119,-369,-447,-32,869,890,36,-418,-481,-238,-100,-67,-60,-47,-35,-31,-26,-19,-12,-3,2,8,16,25,34,43,56,67,67,74,81,86,102,118,137,132,110,73,35,0,-23,-37,-50,-50,-51,-49,-48,-52,-55,-50,-47,-42,-36,-16,-9,-17,-21,-32,-56,-70,-78,-82
2019-06-06,16:37:23.216,-88,-89,-106,-254,-392,-191,440,841,79,-361,-523,-347,-140,-97,-80,-65,-56,-54,-46,-43,-38,-26,-17,-11,1,9,12,15,26,40,50,63,65,73,89,107,120,126,110,76,48,16,-7,-18,-23,-34,-39,-44,-36,-34,-46,-47,-42,-40,-35,-31,-25,-12,-6,-13,-23,-34,-51,-70,-66,-74,-69,-76,-115,-224,-198,135,582,365,-140,-350,-451,-289,-104,-79,-64,-55,-49,-38,-33,-33,-25,-12,-5,0,5,15,24,29,42,49,65,83,103,113,124,141,150,141,115,86,62,31,3,-1,-13,-22,-24,-30,-32,-28,-16,-27,-37,-44,-40,-19,-6,-15,-12,-14,-30,-50
2019-06-06,16:37:24.241,-73,-75,-77,-73,-73,-81,-146,-209,-64,327,585,121,-224,-391,-431,-235,-99,-76,-58,-47,-42,-33,-26,-21,-13,-5,0,8,15,21,25,40,55,65,80,94,107,118,138,152,153,133,97,60,27,-2,-21,-36,-48,-49,-47,-49,-42,-42,-42,-39,-41,-40,-40,-47,-46,-43,-14,2,5,4,-2,-10,-22,-26,-29,-29,-32,-33,-66,-181,-207,76,646,675,-4,-310,-390,-210,-63,-34,-23,-16,-8,-4,-4,1,5,11,14,12,17,16,23,29,36,40,45,49,49,59,64,75,89,98,90,72,34,8,-10,-30,-36,-40,-42,-40,-44,-36,-33,-32,-29,-32,-28,-31
2019-06-06,16:37:25.266,-14,-17,-20,-20,-20,-19,-21,-22,-21,-11,12,33,24,14,8,-1,-20,-25,-24,-27,-31,-37,-121,-270,-181,361,992,453,-151,-357,-176,-62,-38,-39,-30,-20,-19,-14,-15,-15,-13,-6,-4,1,9,10,20,16,23,28,30,36,35,42,39,51,67,77,84,74,44,29,14,9,-6,-14,-18,-18,-15,-11,-8,-17,-5,-3,-7,-4,-4,-1,0,-1,2,4,3,0,4,11,11,14,26,36,45,64,74,54,52,41,30,22,16,9,13,12,-27,-218,-299,47,909,1161,270,-252,-305,-115,-31,-9,2,9,14,13,20,21,22,23,21,26,27,29,26,26
2019-06-06,16:37:26.290,23,22,26,22,21,9,14,19,31,41,51,53,34,11,-9,-22,-35,-42,-46,-52,-57,-59,-61,-63,-63,-64,-66,-69,-72,-74,-70,-76,-74,-80,-79,-83,-83,-86,-81,-81,-78,-76,-79,-75,-72,-68,-70,-68,-43,-49,-57,-52,-55,-71,-80,-85,-82,-81,-89,-170,-383,-353,153,1022,766,34,-359,-343,-160,-97,-75,-65,-55,-45,-41,-33,-27,-22,-12,-7,0,2,10,12,17,19,19,17,21,21,22,31,44,68,87,95,86,61,33,11,-3,-11,-17,-22,-21,-21,-20,-19,-21,-22,-22,-15,-12,-18,-20,-21,-27,-27,-29,-29,-31,-30,-27,-29,-28,-29,-29,-31
2019-06-06,16:37:27.315,-158,-158,-151,-147,-146,-122,-115,-124,-126,-124,-135,-148,-147,-142,-142,-138,-177,-405,-520,-199,729,1259,497,-123,-376,-263,-170,-141,-127,-116,-110,-105,-103,-99,-93,-87,-79,-76,-70,-64,-63,-62,-62,-67,-68,-71,-72,-71,-65,-54,-32,-11,4,4,-9,-29,-43,-54,-61,-61,-63,-62,-62,-61,-59,-61,-61,-64,-60,-61,-61,-60,-58,-60,-60,-57,-60,-63,-65,-60,-62,-64,-63,-62,-61,-59,-58,-52,-49,-45,-25,-24,-35,-38,-32,-44,-56,-57,-56,-60,-58,-97,-328,-447,-140,784,1322,545,-40,-323,-204,-103,-71,-61,-55,-48,-45,-36,-27,-19,-10,0,4,11,16,15,9,6
2019-06-06,16:37:28.340,-148,-145,-149,-147,-141,-130,-112,-92,-72,-60,-61,-77,-102,-119,-126,-131,-132,-130,-127,-123,-119,-114,-112,-113,-114,-115,-106,-104,-103,-98,-94,-90,-88,-83,-82,-75,-75,-73,-69,-62,-59,-57,-56,-48,-27,-31,-36,-30,-35,-47,-52,-50,-45,-50,-57,-142,-433,-459,56,1158,1327,509,-107,-235,-133,-81,-67,-61,-54,-52,-50,-49,-46,-41,-34,-29,-31,-28,-27,-26,-32,-35,-39,-41,-40,-42,-39,-27,-18,0,18,27,20,3,-13,-27,-39,-37,-34,-34,-29,-24,-26,-27,-31,-31,-33,-29,-27,-26,-28,-28,-27,-28,-25,-30,-25,-24,-27,-22,-22,-18,-16,-9,9,7,0,-3
2019-06-06,16:37:29.364,-45,-56,-69,-69,-62,-66,-67,-90,-304,-515,-298,607,1548,914,141,-243,-176,-113,-82,-77,-72,-68,-65,-64,-61,-55,-49,-45,-45,-42,-45,-44,-47,-49,-50,-53,-57,-58,-55,-54,-47,-35,-17,-1,0,-12,-24,-37,-40,-42,-42,-42,-43,-42,-40,-41,-40,-42,-40,-37,-37,-39,-40,-39,-38,-39,-36,-39,-37,-37,-36,-29,-31,-10,8,1,-7,-3,-15,-28,-32,-32,-36,-34,-34,-103,-394,-469,-8,1099,1473,603,-77,-218,-119,-68,-54,-46,-44,-43,-40,-39,-37,-35,-27,-27,-24,-25,-27,-26,-30,-32,-35,-38,-39,-38,-37,-36,-22,-3,10,19,11,1,-12,-16,-22,-26
2019-06-06,16:37:30.389,-11,-13,-15,-9,-10,-5,-4,-1,0,-4,-3,-1,0,-1,0,1,0,1,3,5,7,9,31,43,32,30,32,18,4,-3,-2,-3,-1,-6,-82,-375,-431,67,1185,1473,628,-29,-148,-66,-28,-20,-17,-9,0,4,2,0,-2,0,0,0,0,8,12,3,-5,-14,-18,-22,-20,-18,-10,0,12,32,41,43,31,26,26,24,24,26,24,24,28,34,36,34,36,38,41,45,41,37,37,45,50,57,63,63,84,100,87,84,90,79,62,62,54,56,60,53,4,-269,-384,47,1113,1596,801,145,-7,26,60,52,30,42,43,38,50,61,54,53
2019-06-06,16:37:31.414,-75,-70,-67,-72,-86,-95,-99,-107,-109,-110,-109,-105,-118,-118,-106,-78,-72,-76,-83,-79,-76,-80,-78,-81,-82,-79,-80,-91,-95,-103,-105,-104,-98,-98,-92,-88,-85,-77,-76,-65,-37,-31,-37,-31,-28,-44,-48,-43,-45,-44,-43,-59,-195,-456,-340,384,1405,1152,440,25,-3,-24,-27,-42,-43,-43,-40,-42,-32,-30,-32,-24,-32,-37,-41,-41,-49,-54,-65,-72,-72,-78,-72,-62,-46,-25,-18,-11,-9,-17,-14,-15,-6,-3,-7,14,14,21,18,27,20,14,3,26,10,5,11,24,33,33,42,50,43,51,39,23,5,3,-8,4,-14,-14,-50,-294,-406,-5,1020,1391
2019-06-06,16:37:32.438,704,163,5,-29,-47,-61,-69,-59,-64,-64,-59,-62,-71,-81,-93,-102,-108,-122,-117,-110,-103,-111,-109,-112,-108,-114,-106,-83,-62,-42,-54,-69,-77,-83,-81,-78,-81,-85,-88,-89,-86,-83,-86,-86,-83,-77,-68,-69,-76,-63,-47,-35,-10,29,31,26,27,4,-26,-27,-38,-41,-44,-44,-73,-282,-467,-220,744,1463,951,313,53,-37,-55,-61,-70,-71,-74,-74,-76,-73,-72,-77,-77,-81,-91,-92,-103,-110,-120,-122,-126,-128,-127,-122,-104,-87,-69,-61,-58,-66,-76,-71,-67,-66,-60,-60,-60,-61,-58,-55,-52,-51,-49,-47,-47,-48,-41,-39,-37,-28,-30,-21,0,-1,-14,-9
2019-06-06,16:37:33.463,-67,-82,-86,-86,-85,-85,-79,-85,-198,-449,-422,275,1300,1166,523,72,-39,-85,-81,-88,-94,-92,-91,-90,-91,-87,-82,-82,-84,-82,-85,-84,-86,-93,-105,-105,-103,-99,-89,-75,-55,-36,-18,-16,-25,-39,-49,-53,-52,-46,-44,-45,-43,-42,-36,-34,-33,-31,-29,-24,-21,-21,-20,-20,-22,-14,-10,-15,3,23,12,8,12,6,-8,-17,-17,-17,-25,-26,-51,-248,-460,-234,653,1506,890,194,-102,-71,-49,-38,-35,-36,-33,-35,-33,-32,-27,-25,-24,-23,-25,-29,-34,-39,-45,-56,-66,-68,-71,-69,-61,-46,-26,-11,-8,-17,-26,-30,-31,-29,-24,-23,-25,-20,-20,-25
2019-06-06,16:37:34.487,-129,-127,-124,-119,-115,-117,-115,-107,-106,-106,-105,-100,-97,-87,-68,-49,-59,-61,-61,-75,-85,-86,-82,-84,-83,-81,-137,-381,-448,28,1091,1294,557,2,-91,-89,-74,-74,-75,-70,-68,-71,-71,-69,-66,-71,-73,-76,-78,-85,-91,-94,-101,-111,-116,-118,-119,-113,-98,-81,-62,-47,-48,-53,-58,-53,-51,-51,-46,-44,-38,-35,-36,-35,-33,-30,-31,-29,-29,-29,-31,-29,-27,-27,-28,-28,-29,-27,-16,0,3,10,2,6,-8,-17,-12,-10,-13,-13,-15,-59,-302,-389,19,1043,1401,724,130,-25,-38,-30,-31,-32,-33,-33,-34,-38,-37,-38,-42,-43,-42,-44,-48,-54,-63,-72
2019-06-06,16:37:35.512,-85,-89,-92,-88,-83,-68,-50,-35,-25,-27,-39,-47,-43,-40,-36,-35,-29,-30,-29,-30,-26,-26,-28,-25,-20,-19,-14,-14,-15,-12,-14,-19,-17,-17,-19,-20,-17,-1,7,8,8,9,2,-9,-16,-16,-14,-14,-14,-26,-153,-377,-295,440,1382,1089,411,-6,-40,-43,-31,-34,-35,-34,-34,-40,-43,-40,-39,-36,-35,-41,-49,-54,-61,-68,-79,-88,-88,-87,-82,-74,-59,-36,-22,-23,-29,-42,-47,-51,-49,-47,-45,-42,-40,-36,-35,-37,-34,-33,-35,-33,-29,-27,-28,-27,-23,-23,-24,-23,-26,-24,-29,-32,-29,-8,4,0,1,2,0,-11,-20,-18,-18,-17,-15,-21
2019-06-06,16:37:36.537,-69,-304,-264,395,1373,1184,482,35,-2,-2,12,9,9,14,10,10,10,13,8,5,5,2,-1,-10,-18,-26,-32,-37,-40,-41,-40,-32,-21,0,10,14,5,-5,-9,-11,-11,-10,-12,-9,-12,-10,-9,-8,-9,-8,-6,-9,-7,-4,-3,-6,-10,-9,-9,-8,-14,-13,-9,-15,-17,-18,-2,10,8,11,9,0,-13,-16,-20,-19,-21,-20,-26,-134,-359,-297,398,1340,1098,390,-34,-60,-54,-42,-43,-45,-39,-40,-42,-43,-45,-42,-44,-45,-51,-55,-60,-67,-72,-77,-89,-94,-95,-95,-86,-73,-54,-40,-35,-40,-52,-55,-55,-54,-50,-52,-53,-50,-52,-51,-52,-47
2019-06-06,16:37:37.561,-18,-21,-18,-15,-17,-17,-18,-18,-15,-16,-21,-24,-23,-20,-21,-22,-19,3,4,5,4,10,-1,-16,-20,-19,-21,-20,-18,-36,-211,-381,-172,707,1412,874,227,-41,-53,-45,-47,-45,-43,-44,-45,-48,-46,-44,-42,-43,-49,-51,-55,-60,-64,-70,-77,-82,-83,-81,-78,-67,-52,-36,-23,-25,-36,-45,-47,-45,-40,-40,-38,-37,-35,-36,-35,-33,-31,-32,-27,-24,-26,-25,-26,-25,-25,-27,-28,-22,-21,-23,-23,-25,-24,-12,3,4,3,1,4,-11,-22,-23,-20,-21,-20,-22,-71,-303,-366,62,1060,1322,653,83,-42,-50,-40,-46,-41,-42,-43,-49,-45,-47,-46,-47
2019-06-06,16:37:38.586,-53,-53,-54,-58,-65,-73,-81,-87,-90,-88,-85,-73,-57,-41,-25,-22,-31,-40,-43,-45,-49,-47,-43,-44,-39,-43,-41,-36,-35,-32,-34,-30,-28,-30,-29,-31,-29,-26,-23,-22,-24,-22,-24,-22,-23,-24,-3,0,0,-2,-4,-8,-14,-20,-22,-19,-19,-21,-38,-198,-388,-221,615,1404,946,282,-39,-54,-45,-40,-42,-41,-41,-40,-41,-45,-46,-46,-45,-43,-46,-54,-59,-66,-71,-78,-85,-86,-81,-73,-61,-45,-26,-17,-21,-30,-38,-40,-38,-35,-32,-30,-29,-27,-24,-25,-21,-25,-25,-24,-21,-19,-19,-19,-20,-24,-24,-24,-22,-21,-20,-20,-23,-12,0,2,5,0
2019-06-06,16:37:39.611,3,-2,-11,-12,-15,-16,-14,-15,-71,-317,-369,105,1114,1318,635,69,-40,-48,-34,-35,-37,-34,-34,-32,-40,-39,-41,-41,-39,-42,-46,-49,-55,-63,-67,-76,-81,-82,-78,-69,-55,-36,-20,-20,-29,-42,-43,-46,-43,-42,-43,-41,-38,-41,-39,-38,-34,-38,-36,-35,-35,-36,-35,-36,-36,-35,-35,-37,-37,-38,-38,-33,-29,-11,-8,0,-16,-16,-24,-31,-38,-36,-36,-37,-36,-60,-251,-387,-155,696,1344,759,72,-219,-143,-75,-61,-57,-50,-48,-47,-43,-42,-38,-35,-33,-27,-26,-24,-23,-23,-29,-33,-31,-24,-18,-6,6,26,38,41,29,4,-12,-23,-31,-30,-29
2019-06-06,16:37:40.635,8,5,2,6,3,1,2,2,3,1,-2,-2,-5,-2,-5,-7,-6,-6,3,15,27,43,41,26,25,14,2,0,-2,-4,-1,-4,-61,-291,-356,34,917,1112,318,-171,-251,-102,-36,-21,-12,-5,2,8,9,11,16,23,31,41,44,45,48,49,51,53,50,46,48,55,62,73,79,67,48,22,2,-11,-18,-22,-25,-24,-21,-21,-15,-11,-13,-13,-18,-20,-22,-22,-21,-18,-20,-22,-24,-28,-28,-18,-2,3,12,1,0,-6,-22,-29,-29,-31,-32,-29,-38,-161,-377,-292,491,1392,955,154,-163,-113,-60,-47,-50,-47,-40,-36,-37,-34,-39,-38,-37,-34
2019-06-06,16:37:41.660,-16,-18,-23,-22,-31,-36,-44,-51,-51,-52,-45,-35,-17,-4,-5,-14,-21,-33,-39,-37,-36,-35,-36,-35,-37,-36,-33,-35,-31,-31,-32,-33,-38,-35,-34,-38,-35,-37,-37,-42,-44,-38,-22,-15,-10,-14,-20,-22,-34,-42,-45,-44,-45,-45,-56,-149,-387,-375,245,1234,1099,367,-114,-127,-84,-57,-70,-70,-62,-55,-55,-55,-52,-48,-46,-45,-40,-40,-40,-42,-53,-55,-60,-63,-65,-65,-53,-36,-24,-18,-22,-38,-49,-55,-57,-57,-51,-54,-47,-48,-45,-44,-42,-42,-45,-47,-42,-46,-48,-46,-45,-42,-43,-46,-45,-45,-48,-47,-43,-23,-13,-10,-14,-14,-17,-41,-39,-38
2019-06-06,16:37:42.684,-138,-117,-63,-90,-225,-429,-374,301,1181,867,274,-132,-137,-89,-80,-77,-77,-76,-77,-80,-87,-94,-72,-66,-59,-49,-50,-53,-52,-48,-54,-57,-57,-60,-53,-30,-5,8,9,-6,-26,-38,-48,-52,-47,-39,-43,-37,-34,-38,-36,-34,-31,-28,-32,-35,-29,-20,-22,-27,-20,-21,-21,-15,-15,-14,-6,8,12,19,14,4,-5,-6,-9,-14,-4,-7,-9,-28,-184,-401,-263,431,1300,932,335,-49,-73,-44,-37,-31,-28,-26,-21,-17,-16,-15,-1,-5,-10,-11,-12,-14,-29,-31,-40,-45,-47,-48,-42,-33,-23,-14,-13,-20,-34,-41,-52,-56,-45,-45,-45,-40,-43,-39,-34,-32
2019-06-06,16:37:43.709,-163,-162,-156,-154,-154,-154,-154,-149,-150,-141,-145,-143,-136,-128,-110,-100,-96,-92,-95,-100,-111,-115,-112,-114,-116,-113,-130,-261,-491,-409,233,1181,891,302,-64,-149,-100,-107,-103,-94,-92,-83,-79,-72,-74,-74,-70,-65,-58,-57,-57,-54,-54,-56,-49,-48,-45,-48,-41,-29,-19,-15,-27,-45,-60,-72,-81,-80,-83,-81,-79,-75,-71,-72,-70,-68,-66,-64,-64,-63,-61,-62,-65,-65,-66,-72,-72,-73,-71,-52,-43,-52,-45,-43,-51,-69,-76,-74,-73,-75,-77,-77,-129,-345,-416,-74,755,1119,418,-28,-253,-174,-111,-105,-99,-84,-77,-70,-62,-59,-50,-38,-35,-28,-25,-24,-18,-11
2019-06-06,16:37:44.734,-219,-211,-201,-193,-193,-189,-176,-166,-154,-152,-167,-184,-197,-207,-208,-208,-206,-202,-198,-198,-192,-183,-177,-170,-163,-161,-158,-152,-145,-145,-142,-135,-138,-140,-136,-138,-134,-128,-116,-111,-99,-93,-95,-102,-113,-123,-121,-114,-110,-103,-104,-141,-366,-487,-225,664,1353,666,75,-230,-174,-116,-96,-92,-86,-78,-76,-69,-62,-57,-49,-39,-31,-31,-29,-28,-24,-23,-17,-15,-5,0,-2,4,16,26,21,0,-17,-28,-39,-37,-37,-40,-43,-44,-39,-39,-39,-39,-33,-28,-26,-21,-17,-12,-6,-9,-14,-9,-11,-10,-7,-8,-5,-1,14,23,33,28,28,19,3,-2,1,-1,3,-1
2019-06-06,16:37:45.758,-127,-179,-432,-539,-215,761,1333,617,32,-225,-168,-147,-145,-138,-127,-122,-128,-133,-105,-96,-99,-93,-87,-88,-78,-83,-82,-72,-64,-67,-64,-60,-55,-38,-34,-29,-33,-44,-53,-60,-60,-61,-62,-62,-61,-53,-59,-55,-51,-55,-58,-56,-47,-39,-34,-23,-28,-31,-34,-40,-40,-40,-40,-35,-38,-32,-30,-21,-12,0,-15,-28,-28,-30,-46,-43,-46,-35,-34,-54,-108,-348,-454,-78,849,1331,615,110,-116,-79,-63,-62,-59,-62,-60,-60,-69,-68,-32,-19,-19,-16,-18,-19,-24,-25,-25,-22,-13,-7,2,9,15,27,34,33,18,1,-9,-21,-29,-34,-34,-38,-35,-36,-36,-41
2019-06-06,16:37:46.783,-66,-71,-67,-65,-60,-60,-57,-61,-79,-65,-91,-58,-32,-46,-51,-42,-49,-63,-82,-37,-60,-33,-19,-30,-41,-71,-32,-43,-37,-57,-58,-52,-72,-224,-444,-353,284,1315,990,282,-119,-170,-98,-90,-116,-127,-187,-101,-67,9,-2,-15,-23,-22,-22,-18,-20,-16,-10,-3,3,3,6,13,20,32,36,50,18,-1,-18,-44,-28,-39,-39,-54,-41,-45,-30,-30,-35,-31,-29,-28,-26,-27,-28,-24,-20,-20,-18,-18,-17,-15,-18,-14,-23,-22,-8,-18,-17,-54,-21,-59,20,10,20,-3,12,3,-7,-12,-27,-135,-408,-384,165,1269,1272,494,-17,-131,-66,-51,-46,-47,-44,-36
2019-06-06,16:37:47.808,-2,-6,36,32,49,-65,-94,26,104,97,41,57,98,109,96,81,87,83,94,104,96,77,56,36,37,17,0,-4,-6,-11,13,-9,-45,-183,6,34,-50,6,26,-15,-52,-35,-1,8,-45,-49,-55,15,-99,-48,19,-22,-5,15,10,-22,-11,-58,-25,20,-12,-8,-12,-47,-114,-268,-417,-182,630,1432,719,180,-116,-122,-65,-124,-139,-67,-69,-123,-189,-18,-27,-96,-276,-77,-99,-37,-47,-76,-82,-36,-9,13,10,0,13,21,12,21,30,-2,-48,-42,-23,-3,-1,-22,-73,-91,-34,-40,-73,-50,-31,-36,-46,-64,-95,-72,-67,-72,-74,-58,-45,-45,-44,-43
2019-06-06,16:37:48.832,8,13,27,33,31,38,34,29,11,8,12,2,5,0,-8,-24,-185,-410,-267,484,1479,966,297,-91,-104,-47,-40,-37,-35,-26,-29,-27,-17,-14,-16,-12,-4,0,-4,-5,1,-4,10,25,25,27,29,24,36,45,49,42,29,25,10,-9,-1,-4,-11,-16,-22,-20,-18,-24,-20,-26,-20,-21,-32,-32,-39,-46,-42,-61,-46,-23,-25,-34,-35,-38,-47,-51,-28,-3,16,-3,-4,-17,-33,-41,-42,-40,-46,-50,-59,-174,-439,-404,168,1260,1184,422,-52,-137,-86,-82,-87,-62,-63,-57,-52,-50,-47,-51,-42,-41,-39,-36,-38,-32,-31,-26,-25,-19,-11,0,12,30
2019-06-06,16:37:49.857,178,191,194,170,151,122,106,92,83,76,72,65,59,53,49,49,45,46,41,40,34,32,34,32,28,28,28,23,23,19,20,24,33,37,38,37,32,20,4,-3,-11,-16,-20,-22,-27,-53,-230,-431,-253,494,1416,916,292,-67,-93,-68,-77,-78,-77,-78,-73,-65,-55,-44,-37,-33,-29,-23,-32,-39,-42,-47,-55,-60,-63,-63,-61,-53,-36,-25,-10,-10,-17,-23,-29,-27,-29,-27,-22,-18,-23,-17,-21,-23,-22,-20,-23,-26,-28,-21,-25,-27,-27,-30,-31,-34,-31,-33,-33,-26,-27,-15,-4,5,-1,-4,-6,-23,-31,-30,-31,-34,-37,-38,-63,-270,-476,-320
2019-06-06,16:37:50.882,596,1576,1024,286,-154,-115,-7,23,33,45,45,49,48,49,55,60,64,67,73,75,79,79,87,94,100,109,112,122,132,135,141,133,110,98,69,44,38,33,19,17,21,19,17,21,19,14,12,13,10,5,8,5,6,4,0,-2,0,-2,3,9,23,37,39,25,28,13,-7,-14,-16,-19,-17,-20,-33,-116,-358,-365,88,1034,1033,207,-203,-385,-236,-117,-77,-61,-47,-40,-35,-27,-19,-16,-10,7,16,28,38,52,67,82,101,112,122,127,127,133,134,125,97,55,19,-9,-30,-44,-49,-51,-52,-50,-47,-44,-46,-44,-43,-46,-53,-55,-57,-60
2019-06-06,16:37:51.906,54,49,48,47,46,47,49,58,77,98,86,73,66,50,41,35,36,33,31,29,11,-143,-382,-287,396,1428,997,238,-239,-241,-87,-20,-2,7,14,17,25,28,33,35,39,44,47,55,57,64,71,77,86,91,101,107,113,125,128,121,98,67,43,21,13,4,-2,-3,-3,0,-4,-6,-6,-12,-12,-15,-17,-19,-18,-11,-13,-13,-10,-16,-19,-11,-2,2,17,32,22,17,12,0,-14,-19,-20,-21,-26,-29,-67,-294,-470,-228,702,1519,794,121,-163,-95,-58,-43,-50,-58,-66,-71,-79,-81,-81,-71,-57,-48,-36,-27,-13,-10,-5,-2,0,0,8,16
2019-06-06,16:37:52.931,65,78,88,79,61,39,23,10,0,-6,-11,-13,-15,-13,-10,-13,-18,-16,-19,-21,-24,-20,-16,-24,-37,-37,-40,-36,-34,-29,-12,-6,-26,-36,-42,-48,-48,-43,-37,-30,-29,-29,-55,-253,-432,-219,615,1497,815,178,-152,-107,-64,-61,-62,-58,-59,-59,-58,-63,-61,-67,-60,-60,-64,-69,-63,-57,-51,-48,-42,-35,-31,-31,-25,-21,-13,-20,-32,-44,-50,-56,-54,-49,-40,-30,-26,-29,-22,-17,-24,-28,-31,-33,-32,-31,-23,-17,-13,-10,-4,1,7,12,14,7,10,4,-14,-21,-29,-31,-29,-28,-37,-66,-272,-488,-305,532,1523,934,263,-143,-150,-90,-78,-72
2019-06-06,16:37:53.956,-52,-47,-40,-37,-31,-27,-18,-12,-7,-2,5,11,17,23,30,35,46,52,59,71,77,82,70,45,19,4,-9,-19,-26,-28,-27,-24,-27,-31,-29,-31,-30,-28,-25,-31,-41,-46,-64,-59,-51,-31,-71,-107,-45,-9,3,35,18,-5,-21,-34,-37,-45,-51,-61,-184,-440,-392,211,1282,1015,229,-219,-265,-112,-64,-53,-46,-39,-37,-34,-34,-30,-26,-24,-25,-17,-9,-6,1,11,20,31,41,52,60,74,89,97,90,67,37,10,-15,-31,-42,-49,-50,-54,-55,-56,-60,-57,-60,-61,-65,-69,-77,-75,-75,-81,-79,-78,-69,-47,-33,-42,-44,-55,-68,-79,-77,-80
2019-06-06,16:37:54.980,-112,-111,-114,-130,-269,-484,-356,324,1278,797,115,-245,-203,-140,-141,-146,-143,-133,-118,-108,-93,-81,-69,-58,-48,-38,-32,-24,-23,-26,-29,-27,-25,-26,-27,-25,-18,-13,-15,-25,-39,-48,-53,-48,-44,-38,-35,-35,-39,-41,-36,-31,-33,-35,-31,-31,-36,-36,-34,-28,-24,-15,6,3,-4,0,-8,-27,-34,-34,-36,-33,-34,-35,-59,-272,-479,-312,529,1546,975,234,-208,-179,-96,-66,-58,-47,-42,-37,-33,-31,-23,-22,-20,-14,-8,-3,2,12,17,24,34,41,48,56,65,71,71,61,35,11,-6,-12,-15,-18,-21,-18,-14,-13,-15,-10,-12,-17,-20,-25,-23,-26
2019-06-06,16:37:56.005,-36,-37,-39,-31,-34,-25,1,0,-12,-14,-16,-29,-37,-39,-40,-41,-42,-47,-82,-296,-445,-197,680,1393,611,36,-253,-168,-94,-80,-68,-62,-60,-55,-53,-55,-55,-54,-51,-48,-45,-37,-27,-16,0,10,12,22,34,45,51,58,57,39,15,-7,-26,-40,-46,-51,-55,-60,-61,-67,-67,-65,-63,-65,-65,-64,-62,-63,-68,-69,-68,-64,-61,-50,-27,-33,-40,-42,-60,-72,-73,-72,-77,-76,-76,-79,-158,-406,-429,9,1051,1250,437,-99,-224,-133,-100,-92,-86,-81,-81,-79,-77,-74,-69,-58,-56,-47,-38,-32,-26,-23,-15,-6,4,11,17,29,35,46,41,24,5,-14
2019-06-06,16:37:57.029,-18,-24,-31,-34,-32,-31,-33,-30,-30,-27,-28,-27,-32,-30,-29,-31,-31,-30,-25,-20,-15,-4,14,11,4,9,-3,-13,-20,-17,-15,-17,-15,-23,-117,-400,-439,15,1147,1415,580,-41,-235,-117,-62,-44,-42,-27,-20,-24,-16,-11,-4,2,6,15,22,32,33,36,40,46,49,56,64,74,82,88,86,68,40,17,0,-9,-15,-20,-15,-15,-14,-19,-21,-18,-20,-25,-25,-27,-29,-34,-31,-32,-33,-36,-38,-36,-35,-28,-23,-18,-21,-21,-24,-31,-40,-47,-54,-55,-57,-62,-100,-310,-466,-245,574,1278,516,-40,-350,-285,-144,-105,-91,-77,-69,-61,-55,-50,-41,-29
2019-06-06,16:37:58.054,-10,-6,4,9,19,26,33,48,55,67,73,75,77,78,73,58,29,0,-24,-39,-50,-55,-61,-62,-61,-58,-56,-52,-53,-48,-47,-51,-49,-53,-55,-56,-56,-56,-59,-60,-64,-61,-47,-36,-30,-22,-29,-32,-44,-50,-53,-54,-57,-56,-51,-70,-255,-464,-326,426,1403,847,139,-288,-249,-119,-73,-57,-49,-40,-38,-29,-23,-19,-18,-17,-14,-9,-1,4,6,12,21,28,33,38,46,55,60,67,59,36,13,-3,-15,-21,-24,-28,-27,-23,-18,-17,-20,-18,-19,-21,-21,-22,-18,-20,-21,-21,-19,-17,-15,-15,-21,-18,-5,7,13,15,11,10,-3,-13,-17,-23
2019-06-06,16:37:59.079,0,0,0,-19,-126,-419,-419,168,1279,1230,424,-82,-148,-61,-39,-31,-29,-27,-24,-23,-22,-16,-7,2,10,19,25,25,24,25,27,24,26,32,40,50,65,73,68,50,23,-1,-15,-32,-40,-47,-46,-43,-44,-45,-46,-49,-49,-44,-42,-44,-44,-44,-48,-50,-50,-57,-61,-62,-64,-65,-67,-66,-53,-37,-36,-33,-35,-40,-55,-66,-69,-71,-67,-70,-67,-79,-196,-431,-371,195,1193,969,224,-213,-252,-130,-95,-85,-75,-71,-66,-64,-61,-57,-49,-45,-35,-29,-19,-12,-2,5,14,24,30,37,41,45,52,64,67,47,21,-2,-19,-30,-35,-44,-45,-45,-46,-47
2019-06-06,16:38:00.103,-30,-32,-30,-32,-32,-31,-29,-30,-29,-29,-33,-32,-33,-34,-29,-24,-26,-24,-14,3,11,13,9,12,1,-7,-9,-12,-11,-13,-14,-26,-125,-378,-361,129,1129,1020,257,-208,-371,-191,-95,-59,-46,-38,-27,-20,-18,-7,-3,5,16,22,33,43,50,59,74,71,79,84,65,111,135,130,126,109,84,57,32,18,4,-3,-7,-12,-17,-24,-28,-28,-30,-30,-26,-21,-24,-25,-24,-23,-21,-18,-15,-13,-7,-1,-5,-10,-12,-1,15,15,14,9,0,-15,-30,-37,-38,-39,-41,-39,-56,-161,-406,-372,147,1151,1047,285,-176,-271,-137,-93,-82,-81,-75,-75,-77,-79
2019-06-06,16:38:01.128,-46,-33,-18,-5,3,9,14,23,29,32,39,45,41,46,50,58,69,70,52,30,9,-6,-21,-31,-30,-29,-26,-23,-29,-29,-27,-30,-31,-28,-27,-27,-25,-23,-21,-20,-24,-28,-23,-19,-21,-24,-30,-36,-24,-7,-7,-13,-11,-17,-28,-40,-45,-40,-39,-41,-44,-62,-226,-437,-322,368,1351,852,172,-264,-341,-156,-89,-63,-54,-44,-36,-26,-17,-5,-1,2,8,20,23,27,31,42,53,63,73,81,88,97,105,111,101,77,50,21,-5,-20,-30,-30,-36,-35,-34,-34,-31,-29,-27,-22,-21,-18,-13,-16,-19,-10,-8,-19,-18,-17,-32,-47,-43,-37,-35,-32
2019-06-06,16:38:02.153,-71,-55,-52,-54,-57,-60,-73,-80,-82,-84,-81,-82,-82,-90,-202,-460,-421,131,1166,1001,246,-206,-315,-172,-124,-109,-98,-90,-84,-78,-74,-69,-62,-52,-46,-41,-34,-23,-17,-9,-2,11,21,29,34,41,50,58,64,47,18,-8,-32,-46,-58,-67,-70,-68,-69,-66,-66,-67,-63,-56,-53,-51,-46,-47,-46,-47,-46,-47,-41,-42,-43,-43,-50,-51,-54,-42,-15,-8,0,1,0,-4,-12,-15,-13,-9,-7,-13,-17,-81,-345,-429,-69,981,1468,601,-15,-239,-115,-55,-26,-19,-13,-8,-2,0,5,9,12,21,28,35,39,41,44,50,60,63,68,83,89,97,107,119
2019-06-06,16:38:03.177,-57,-73,-88,-104,-110,-115,-120,-116,-113,-109,-104,-106,-102,-101,-101,-102,-101,-99,-98,-101,-103,-100,-103,-116,-136,-130,-100,-86,-94,-94,-89,-70,-66,-65,-67,-69,-74,-88,-93,-94,-94,-89,-91,-99,-172,-438,-491,-91,948,1276,452,-114,-308,-186,-133,-108,-105,-96,-93,-89,-82,-77,-74,-65,-59,-52,-44,-36,-32,-18,-6,8,30,47,58,58,61,66,63,50,27,7,-6,-21,-31,-36,-43,-42,-45,-42,-44,-46,-46,-40,-38,-41,-42,-46,-48,-53,-56,-59,-62,-62,-58,-52,-53,-45,-26,-12,-11,-13,-23,-25,-32,-46,-49,-49,-54,-56,-50,-90,-302,-443,-194,700,1436,656
2019-06-06,16:38:04.202,-61,-374,-280,-191,-155,-149,-142,-132,-126,-109,-109,-103,-89,-79,-68,-77,-72,-80,-53,-68,-51,-11,-12,-4,-6,7,17,26,30,3,-17,-42,-61,-70,-74,-74,-73,-73,-68,-68,-69,-66,-65,-67,-65,-62,-64,-61,-58,-59,-52,-49,-51,-53,-60,-72,-63,-56,-34,-19,-18,-12,-19,-28,-40,-48,-48,-47,-49,-47,-53,-122,-372,-422,-23,980,1286,474,-64,-211,-107,-65,-51,-45,-41,-36,-34,-27,-27,-24,-14,-7,-4,0,4,4,9,8,7,11,16,18,20,34,45,64,68,58,48,33,19,13,10,0,0,-6,-4,-5,-10,-11,-16,-15,-14,-13,-15,-14,-16,-17
2019-06-06,16:38:05.227,-76,-74,-73,-73,-75,-72,-53,-47,-47,-45,-44,-58,-74,-75,-80,-78,-77,-79,-75,-109,-320,-469,-202,652,1334,616,75,-199,-146,-105,-102,-103,-92,-80,-71,-63,-62,-58,-48,-44,-44,-45,-48,-53,-57,-62,-69,-73,-76,-76,-75,-65,-54,-41,-33,-33,-39,-51,-54,-53,-52,-45,-39,-32,-31,-35,-38,-38,-40,-42,-42,-47,-49,-49,-50,-51,-50,-52,-52,-50,-53,-42,-30,-25,-23,-10,-12,-26,-34,-33,-33,-34,-25,-28,-46,-195,-425,-339,322,1341,955,277,-135,-212,-86,-56,-41,-26,-20,-15,-9,-4,5,17,22,33,38,40,47,54,56,59,61,60,54,47,32,43
2019-06-06,16:38:06.251,63,4,-24,6,16,20,29,14,9,6,0,-8,-10,-16,-18,-21,-21,-14,-12,-13,-9,-7,0,0,-6,-5,-10,-16,-8,4,9,4,10,5,-11,-22,-26,-31,-33,-31,-33,-45,-119,-367,-404,18,967,1110,333,-92,-268,-146,-81,-70,-64,-61,-62,-60,-56,-57,-49,-45,-36,-26,-19,-10,0,8,16,23,23,19,20,20,20,32,38,23,6,-15,-34,-55,-73,-80,-82,-73,-68,-58,-55,-49,-43,-42,-45,-45,-46,-48,-50,-55,-60,-64,-67,-65,-72,-78,-67,-49,-45,-39,-32,-31,-42,-46,-52,-52,-54,-53,-54,-55,-155,-432,-426,117,1219,1233,462,-40,-159,-87
2019-06-06,16:38:07.276,-121,-112,-105,-98,-95,-91,-84,-79,-77,-82,-83,-79,-74,-74,-76,-73,-75,-72,-75,-74,-73,-67,-53,-47,-36,-35,-44,-47,-54,-61,-52,-58,-55,-53,-50,-48,-49,-47,-52,-48,-47,-50,-59,-81,-95,-135,-67,-75,-40,3,-2,-15,3,15,14,8,-9,-33,-37,-52,-40,-46,-50,-49,-75,-254,-420,-288,428,1345,788,158,-208,-242,-115,-87,-82,-67,-43,-40,-36,-28,-25,-25,-15,-10,-3,7,3,12,24,26,30,33,36,43,48,50,52,48,31,12,-4,-22,-31,-34,-36,-34,-37,-37,-35,-40,-41,-39,-36,-38,-40,-37,-44,-46,-51,-52,-48,-52,-54,-51,-35,-23
2019-06-06,16:38:08.300,-103,-102,-100,-107,-116,-120,-120,-116,-117,-115,-112,-140,-328,-472,-250,538,1322,691,118,-182,-167,-130,-138,-134,-129,-120,-110,-97,-91,-89,-78,-72,-67,-68,-65,-59,-55,-47,-41,-35,-25,-15,2,8,25,36,32,22,7,-13,-26,-31,-37,-38,-40,-42,-39,-39,-39,-38,-38,-34,-34,-32,-28,-25,-21,-23,-23,-21,-22,-23,-10,9,20,19,20,16,4,-2,-8,-5,-5,-5,0,-11,-71,-318,-394,-52,898,1279,439,-114,-255,-135,-69,-35,-13,-14,-16,-7,-10,0,-9,-16,0,-1,6,13,17,28,35,45,54,66,76,87,100,111,114,106,80,48,24,5,-7,-11
2019-06-06,16:38:09.325,-119,-119,-117,-120,-116,-118,-118,-117,-113,-115,-116,-115,-143,-135,-109,-79,-79,-108,-120,-121,-126,-108,-99,-97,-102,-102,-109,-128,-137,-139,-137,-134,-135,-138,-155,-323,-514,-347,390,1256,646,15,-308,-242,-179,-164,-153,-150,-143,-134,-127,-120,-118,-105,-101,-99,-95,-92,-88,-83,-81,-85,-85,-84,-78,-71,-54,-33,-15,-14,-21,-37,-46,-54,-56,-57,-55,-60,-57,-58,-60,-58,-57,-57,-57,-55,-56,-53,-47,-47,-42,-44,-43,-41,-50,-52,-45,-27,-18,-20,-18,-9,-13,-24,-34,-28,-26,-22,-20,-25,-52,-262,-412,-220,586,1403,737,117,-246,-244,-94,-47,-32,-22,-11,0,11,12
2019-06-06,16:38:10.350,-161,-157,-151,-145,-132,-121,-111,-101,-87,-78,-63,-52,-43,-36,-32,-20,-19,-31,-58,-80,-102,-118,-125,-129,-126,-123,-122,-120,-117,-109,-105,-104,-100,-98,-94,-96,-97,-97,-95,-95,-95,-96,-91,-95,-101,-98,-80,-64,-60,-53,-39,-42,-58,-75,-86,-91,-94,-97,-100,-138,-341,-446,-180,634,1180,393,-97,-380,-295,-156,-123,-109,-93,-81,-83,-80,-77,-68,-64,-63,-55,-42,-22,-4,3,14,26,35,49,67,82,91,103,108,91,69,43,20,4,-9,-23,-25,-27,-26,-31,-29,-30,-33,-30,-30,-28,-27,-27,-29,-29,-35,-38,-38,-38,-41,-42,-44,-37,-15,5,9,11,3
2019-06-06,16:38:11.374,-210,-223,-231,-229,-226,-225,-228,-223,-254,-435,-596,-386,410,1125,359,-214,-599,-525,-333,-242,-211,-195,-179,-164,-161,-152,-144,-130,-122,-112,-98,-83,-67,-54,-33,-19,0,20,41,59,72,87,97,78,44,4,-28,-55,-74,-88,-94,-95,-96,-100,-96,-95,-90,-86,-85,-81,-78,-77,-79,-76,-75,-79,-80,-83,-80,-85,-83,-88,-93,-98,-94,-75,-55,-49,-52,-55,-64,-75,-82,-91,-91,-87,-91,-92,-116,-313,-498,-297,526,1326,552,-70,-466,-392,-206,-125,-104,-86,-73,-64,-58,-52,-44,-37,-26,-13,-6,5,17,27,43,59,76,93,105,119,134,145,151,141,108,65,30,4
2019-06-06,16:38:12.399,-184,-186,-195,-196,-192,-189,-188,-191,-184,-179,-173,-172,-164,-162,-157,-161,-160,-155,-155,-151,-150,-151,-144,-145,-145,-144,-129,-112,-102,-99,-113,-108,-117,-131,-136,-138,-139,-139,-138,-161,-331,-584,-447,355,1394,783,5,-452,-400,-249,-171,-149,-129,-118,-115,-109,-102,-95,-93,-83,-67,-53,-38,-22,-15,-3,12,25,36,55,67,78,90,98,95,72,33,2,-24,-41,-51,-56,-57,-56,-51,-49,-47,-47,-48,-46,-45,-42,-40,-41,-42,-37,-34,-31,-34,-32,-31,-30,-31,-27,-33,-25,2,17,13,8,6,-2,-15,-20,-18,-19,-21,-20,-34,-160,-456,-433,174,1373,1252,400,-142,-254
2019-06-06,16:38:13.424,-245,-199,-177,-171,-157,-149,-143,-140,-133,-123,-114,-97,-93,-84,-74,-72,-63,-53,-39,-27,-15,-4,9,22,33,39,27,0,-26,-47,-62,-67,-73,-75,-75,-75,-76,-77,-72,-70,-73,-70,-68,-65,-64,-63,-57,-55,-55,-59,-57,-57,-59,-64,-61,-41,-24,-20,-23,-19,-22,-39,-49,-49,-48,-47,-49,-54,-89,-308,-517,-300,616,1571,739,42,-345,-274,-147,-109,-97,-88,-84,-79,-74,-72,-70,-63,-58,-51,-45,-37,-28,-17,-9,7,22,38,55,69,85,101,107,97,64,28,-2,-27,-43,-52,-59,-58,-60,-57,-55,-58,-55,-53,-51,-51,-49,-49,-50,-49,-53,-54,-51,-53
2019-06-06,16:38:14.448,-171,-172,-172,-148,-132,-125,-125,-122,-124,-139,-144,-147,-141,-141,-138,-138,-176,-419,-576,-336,608,1361,515,-105,-509,-417,-229,-153,-126,-110,-100,-90,-81,-72,-65,-57,-53,-44,-34,-23,-16,-4,16,26,40,56,69,81,92,100,105,89,56,20,-6,-29,-48,-53,-60,-62,-64,-70,-68,-69,-67,-71,-65,-69,-68,-70,-67,-67,-64,-61,-60,-60,-59,-59,-56,-37,-18,-15,-11,-7,-22,-38,-45,-45,-41,-42,-40,-45,-91,-339,-480,-170,819,1491,603,17,-279,-179,-91,-70,-63,-56,-54,-47,-46,-46,-36,-30,-25,-23,-15,-13,-11,-4,0,3,12,17,31,33,38,59,74,71
2019-06-06,16:38:15.473,-21,-49,-69,-86,-93,-76,-111,-129,-111,-93,-106,-88,-76,-88,-93,-93,-97,-94,-97,-95,-97,-93,-89,-88,-83,-85,-81,-61,-50,-52,-48,-47,-60,-69,-80,-85,-87,-88,-91,-98,-178,-460,-502,-28,1083,1306,452,-43,-239,-156,-119,-111,-108,-99,-95,-81,-68,-62,-63,-57,-50,-46,-45,-44,-36,-31,-31,-26,-21,-13,-5,2,17,35,47,43,25,9,-3,-9,-15,-15,-16,-18,-19,-19,-17,-19,-17,-18,-22,-22,-23,-24,-27,-25,-24,-29,-36,-34,-33,-27,-4,-3,-2,4,0,-18,-24,-29,-32,-31,-23,-20,-27,-116,-389,-423,42,1118,1290,444,-59,-247,-128,-73,-56,-49
2019-06-06,16:38:16.498,-85,-79,-74,-72,-70,-65,-58,-52,-46,-43,-36,-27,-18,-8,3,19,31,44,50,61,73,74,60,33,3,-19,-36,-47,-59,-65,-70,-67,-66,-67,-66,-67,-66,-65,-65,-65,-68,-66,-63,-67,-73,-72,-76,-56,-42,-51,-44,-30,-42,-58,-68,-75,-76,-77,-77,-76,-95,-259,-443,-283,432,1286,637,22,-339,-310,-162,-117,-104,-93,-89,-92,-97,-97,-92,-83,-68,-44,-27,-15,-2,14,34,52,62,77,86,96,100,107,109,94,68,32,2,-17,-31,-38,-41,-41,-41,-47,-42,-41,-40,-42,-38,-38,-38,-41,-40,-36,-40,-48,-44,-38,-20,-6,-12,-10,0,-10,-27,-34
2019-06-06,16:38:17.522,-102,-102,-102,-96,-99,-141,-379,-516,-262,675,1389,607,-34,-361,-259,-161,-122,-110,-98,-90,-85,-78,-79,-73,-67,-62,-54,-47,-39,-33,-30,-24,-16,-9,-4,-4,4,16,26,32,21,6,-14,-26,-34,-36,-36,-35,-37,-38,-35,-33,-36,-37,-43,-43,-41,-38,-33,-33,-36,-36,-42,-38,-25,-24,-31,-29,-24,-41,-59,-64,-70,-73,-71,-69,-63,-111,-353,-453,-111,863,1391,567,31,-215,-134,-91,-83,-81,-79,-80,-83,-82,-76,-67,-58,-50,-41,-36,-30,-21,-21,-10,0,7,13,25,35,45,58,58,44,21,-2,-24,-41,-50,-56,-59,-59,-63,-62,-65,-67,-66,-67,-72
2019-06-06,16:38:18.547,-164,-164,-164,-167,-170,-168,-166,-153,-137,-134,-124,-115,-117,-132,-137,-133,-132,-132,-132,-130,-144,-283,-532,-456,198,1298,982,234,-219,-275,-162,-137,-125,-114,-110,-107,-102,-97,-89,-82,-74,-68,-59,-48,-42,-36,-25,-16,-4,6,20,24,35,46,55,49,30,8,-13,-23,-26,-28,-25,-23,-22,-19,-18,-17,-19,-20,-18,-16,-13,-15,-12,-15,-19,-12,6,12,12,19,18,10,-5,-12,-19,-20,-18,-21,-24,-72,-312,-468,-206,754,1536,755,140,-177,-130,-88,-79,-77,-74,-68,-66,-59,-55,-47,-39,-33,-25,-16,-6,3,12,18,28,36,45,51,62,71,78,76,58,34
