2019-06-04,15:00:46.972,178,170,170,174,180,171,166,166,143,118,92,67,50,32,31,25,25,22,27,30,35,31,27,21,16,4,-8,-7,-15,-20,-23,-22,-22,-19,-10,-14,17,22,12,6,-4,-18,-37,-51,-48,-55,-60,-69,-140,-176,-4,467,770,-69,-528,-622,-366,-124,-124,-100,-46,-37,-58,-27,29,69,80,80,92,91,102,108,97,103,120,131,135,133,137,168,156,162,162,144,86,61,44,49,37,13,-2,36,24,0,-16,-19,-16,-27,-41,-47,-53,-64,-67,-74,-86,-100,-108,-132,-150,-130,-129,-139,-110,-94,-47,-10,42,239,441,494,207,173,493,818,913,776,609,446
2019-06-04,15:00:47.997,527,168,83,565,1262,837,-55,-475,-321,-99,12,80,112,154,172,147,112,102,97,98,100,105,111,122,127,135,127,113,95,77,81,98,122,149,163,166,176,189,204,222,228,200,165,111,47,14,21,39,31,17,0,-38,-63,-50,-9,8,29,49,55,65,71,42,10,-6,18,39,50,97,187,248,292,303,273,230,173,117,58,15,-13,-36,-212,-312,-68,668,1032,-23,-618,-868,-642,-294,-276,-192,-69,0,40,52,149,245,199,104,25,-20,-36,-39,-7,52,127,165,200,182,102,103,77,28,-29,-5,-102,-179,-129,-93,-161,-140,-105,-64,-252,-227,-48,-44
2019-06-04,15:00:49.022,201,252,247,211,183,151,76,159,210,224,199,172,148,141,155,153,135,149,184,205,202,195,186,172,158,164,172,183,193,139,4,45,472,1218,795,-67,-466,-470,-166,26,85,103,93,99,83,49,-17,-68,-121,-178,-159,-86,-28,8,37,65,79,97,118,139,159,166,186,167,159,210,210,186,188,176,145,115,96,87,91,80,44,-1,-80,34,175,260,87,-63,-84,-52,-66,-114,-143,-140,-83,-44,-28,10,60,76,93,86,69,44,24,-4,-25,-67,-136,-318,-421,-170,565,1063,71,-512,-791,-654,-341,-214,-167,-124,-95,-79,-80,-70,-66,-40,-7,19,37,45
2019-06-04,15:00:50.046,146,86,96,140,166,214,224,215,203,201,190,189,175,130,95,74,67,66,27,-10,11,61,113,177,215,190,142,96,46,-13,-62,-58,-32,-17,-11,-16,-36,-45,-39,-8,16,22,45,70,88,103,92,68,27,5,-9,-17,-14,-35,-145,-367,-334,111,1038,1034,97,-417,-579,-351,-150,-63,-55,-59,-61,-41,-43,-36,-33,-25,-14,-1,13,25,33,49,61,61,67,52,23,5,-73,49,78,62,32,36,18,-6,-17,-24,-23,-15,-8,-10,-10,0,5,2,-4,-6,1,43,59,50,48,47,56,64,55,36,25,14,5,-35,-72,-111,-122,-94,-71,-82,-56,-22
2019-06-04,15:00:51.071,43,82,79,4,-220,-297,43,903,1313,257,-307,-559,-356,-105,-20,-21,-26,-22,5,37,53,52,36,34,59,85,112,143,157,153,151,148,137,131,115,111,110,109,107,84,48,20,-4,-10,-6,-4,4,11,12,14,24,29,8,-17,-22,-47,-77,-92,-99,-105,-84,-45,-37,-15,-9,-18,-26,-53,-7,-1,-22,-24,-44,-68,-83,-79,-80,-78,-81,-120,-296,-447,-271,459,1267,399,-389,-735,-571,-258,-102,-37,-2,17,19,40,47,51,30,31,70,77,98,115,130,135,152,151,138,122,93,79,85,75,54,37,15,-14,-44,-60,-67,-82,-68,-48,-32,2,2,7
2019-06-04,15:00:52.096,42,55,50,65,36,42,18,-4,-15,-30,-34,-26,-8,18,-4,-1,20,25,52,37,46,75,87,86,49,29,19,13,9,13,13,13,-36,-251,-305,56,931,1135,73,-468,-646,-372,-136,-52,-30,-19,-10,-2,2,12,30,44,55,71,87,93,105,109,121,123,122,111,85,67,54,47,44,36,25,7,-6,-8,-11,-14,-12,-4,0,11,16,28,35,31,21,7,-12,-21,-33,-45,-68,-78,-89,-97,-104,-106,-104,-98,-102,-100,-105,-58,-28,-58,-66,-52,-64,-94,-136,-116,-100,-117,-147,-158,-338,-406,-118,646,1065,31,-543,-760,-552,-233,-115,-76,-57,-38,-16,3
2019-06-04,15:00:53.120,42,78,99,118,129,131,135,147,160,175,186,190,187,179,170,162,159,156,151,139,121,99,79,56,26,13,38,25,32,43,37,32,30,31,25,20,4,-7,-14,-21,-18,-26,-30,-32,-30,-13,21,38,36,25,12,-6,-38,-54,-63,-65,-66,-71,-100,-254,-330,-52,606,854,-124,-588,-794,-678,-331,-187,-135,-100,-64,-31,5,42,75,85,94,96,109,115,123,139,144,139,126,116,110,104,92,76,56,24,10,1,-10,-14,-17,-16,-22,-29,-38,-42,-40,-36,-29,-34,-43,-42,-37,-30,-30,-31,-34,-34,-43,-50,-48,-50,-47,-32,-24,5,19,7,-9,-25
2019-06-04,15:00:54.145,-80,-109,-122,-125,-126,-131,-137,-209,-435,-435,11,972,1016,-59,-540,-754,-534,-238,-122,-86,-62,-40,-24,-5,8,28,41,65,78,87,95,111,125,136,145,136,111,78,53,51,45,46,53,36,17,-5,-12,-8,-3,-8,13,34,69,112,146,135,110,145,134,91,41,-3,-32,-51,-69,-83,-91,-85,-78,-64,-23,8,16,20,16,4,-12,-18,-20,-12,-13,-19,-63,-285,-370,-69,766,1180,114,-509,-786,-555,-264,-150,-133,-125,-102,-77,-58,-40,-15,9,33,44,50,68,101,134,165,189,209,215,209,207,191,181,165,136,101,73,45,13,0,-12,-18,-18,-26,-24
2019-06-04,15:00:55.170,-99,-105,-107,-113,-109,-113,-104,-101,-104,-102,-109,-116,-114,-116,-120,-119,-123,-97,-83,-90,-96,-102,-110,-117,-115,-116,-113,-94,-83,-107,-274,-413,-202,540,1169,182,-550,-805,-549,-244,-124,-84,-58,-33,-19,-11,-17,-28,-24,-29,-18,15,67,112,155,182,200,204,195,181,152,128,119,102,82,60,32,10,-10,-16,-17,-10,-11,-15,-18,-29,-42,-53,-67,-80,-91,-100,-107,-108,-105,-108,-111,-124,-128,-125,-96,-90,-89,-78,-96,-88,-69,-63,-78,-88,-89,-88,-80,-77,-86,-194,-408,-344,189,1062,589,-367,-765,-617,-270,-114,-78,-68,-62,-49,-42,-33,-28,-16,0,8,24,50
2019-06-04,15:00:56.194,-5,22,44,61,72,72,58,45,25,3,-19,-37,-46,-57,-71,-75,-73,-68,-63,-48,-33,-31,-27,-25,-19,-20,-26,-33,-49,-47,-55,-61,-64,-67,-67,-64,-52,-46,-47,-16,11,6,-19,-39,-58,-87,-104,-115,-125,-135,-136,-149,-283,-466,-306,422,1289,439,-464,-824,-576,-246,-113,-83,-68,-53,-40,-32,-24,-15,1,25,51,67,72,94,101,118,125,129,130,123,126,133,152,148,128,98,73,50,23,22,32,25,38,43,19,-2,-22,6,4,0,11,4,-15,-15,57,51,41,22,19,19,20,15,30,42,26,4,-15,-43,-80,-97,-106,-130,-149,-141,-141,-304
2019-06-04,15:00:57.219,-516,-196,659,1292,298,-363,-692,-581,-346,-254,-232,-248,-249,-230,-194,-150,-115,-73,-44,-3,50,59,55,41,9,-4,0,5,12,25,26,16,47,56,31,0,-7,-16,-7,-23,-68,-77,-91,-66,-7,36,47,43,-53,-105,-101,-95,-92,-27,22,36,63,82,80,34,13,-27,-78,-119,-166,-173,-159,-142,-110,-120,-131,-118,-167,-341,-311,82,899,751,-324,-876,-889,-475,-277,-203,-160,-120,-83,-48,-21,-4,31,76,117,152,171,197,225,252,247,230,236,241,224,197,171,128,83,50,7,-33,-47,-58,-47,-48,-55,-60,-33,128,83,-46,-90,-62,104,311,306,197,141,88
2019-06-04,15:00:58.243,-131,-123,-116,-138,-144,-145,-172,-181,-185,-193,-208,-217,-214,-206,-197,-199,-231,-363,-415,-134,557,811,-200,-655,-841,-683,-359,-217,-172,-146,-127,-113,-103,-102,-84,-73,-67,-55,-46,-29,-15,4,19,31,31,41,56,56,66,73,59,-18,-146,-225,-206,-134,-98,-62,-41,-61,-150,-202,-253,-300,-299,-262,-236,-216,-193,-151,-102,-44,27,119,276,414,451,393,322,224,142,91,48,16,-4,-36,-81,-125,-205,-326,-237,219,823,348,-371,-605,-647,-406,-152,-91,-74,-62,-56,-52,-35,-15,-10,-4,-5,24,91,139,145,139,162,184,176,166,165,142,133,145,151,126,93,55,29,34
2019-06-04,15:00:59.268,-163,-174,-171,-176,-197,-210,-208,-204,-207,-202,-207,-190,-159,-132,-109,-95,-78,-79,-81,-66,-82,-115,-123,-127,-142,-168,-170,-156,-122,-99,-112,-212,-377,-320,103,681,210,-459,-721,-705,-444,-258,-219,-201,-210,-222,-227,-241,-235,-204,-174,-139,-113,-88,-50,-21,0,24,54,56,56,56,53,57,50,18,-5,-28,-50,-58,-65,-60,-65,-68,-71,-74,-80,-82,-85,-90,-93,-84,-77,-82,-82,-86,-74,-63,-33,-21,27,93,145,166,169,137,91,64,37,19,-6,-32,-71,-199,-278,-68,512,832,-63,-528,-694,-514,-208,-116,-97,-83,-85,-82,-83,-55,-26,0,22,28,36,43,54,70
2019-06-04,15:01:00.293,-101,-82,-68,-70,-66,-63,-57,-58,-59,-77,-97,-122,-144,-156,-162,-164,-163,-153,-151,-158,-174,-182,-180,-179,-178,-174,-171,-162,-157,-157,-147,-121,-103,-69,-51,-63,-85,-107,-121,-124,-132,-131,-127,-115,-100,-122,-206,-304,-160,355,850,91,-496,-714,-593,-289,-171,-164,-167,-172,-162,-143,-115,-66,0,67,129,177,205,221,221,223,212,195,177,150,128,100,74,40,3,-46,-104,-156,-184,-183,-175,-165,-146,-119,-95,-80,-69,-59,-42,-33,-22,-7,15,36,55,84,108,115,131,115,86,89,71,42,24,16,0,-6,-10,-12,-16,-14,-15,-84,-227,-150,325,1023,534,-271,-597,-584
2019-06-04,15:01:01.317,-536,-332,-290,-276,-279,-277,-260,-239,-213,-195,-176,-164,-140,-122,-88,-36,3,9,-8,-43,-82,-96,-104,-114,-127,-141,-149,-141,-149,-156,-147,-136,-132,-119,-116,-118,-109,-102,-108,-110,-115,-125,-118,-108,-108,-112,-113,-114,-115,-112,-108,-114,-106,-87,-105,-144,-180,-217,-238,-237,-208,-169,-125,-74,-47,-130,-247,-101,481,1143,379,-343,-670,-603,-277,-104,-56,-42,-37,-39,-40,-34,-19,-1,14,39,65,88,108,131,146,152,152,151,138,129,124,124,116,95,72,40,10,-17,-43,-70,-97,-116,-138,-145,-125,-106,-83,-66,-54,-43,-31,-23,-23,-24,-13,2,20,42,62,62,72,59
2019-06-04,15:01:02.342,-234,-245,-255,-276,-303,-320,-333,-329,-314,-298,-329,-527,-547,-208,617,948,-46,-629,-871,-588,-272,-157,-119,-95,-78,-69,-64,-60,-52,-41,-27,-20,-16,-19,-18,-10,-4,0,4,-1,-9,-15,-23,-31,-48,-77,-111,-148,-173,-178,-169,-163,-146,-131,-123,-118,-115,-108,-100,-94,-89,-92,-96,-101,-103,-100,-96,-92,-85,-72,-69,-46,-16,-22,-36,-39,-42,-57,-64,-57,-49,-43,-29,-74,-286,-419,-191,575,1327,436,-261,-606,-421,-149,-54,-41,-49,-57,-63,-49,-30,-14,14,46,84,114,140,161,178,179,171,151,132,116,108,109,117,128,126,127,139,145,153,151,144,138,138,139
2019-06-04,15:01:03.367,-15,-25,-29,-40,-50,-53,-57,-66,-81,-98,-118,-126,-132,-135,-145,-159,-135,-132,-141,-142,-150,-156,-158,-152,-137,-121,-100,-94,-174,-402,-365,111,1066,1109,90,-507,-607,-321,-148,-99,-85,-73,-63,-62,-56,-46,-24,-5,11,23,30,37,47,55,65,68,59,52,41,23,4,-7,-20,-42,-57,-65,-75,-72,-73,-64,-66,-54,-52,-54,-57,-71,-70,-80,-80,-79,-87,-87,-92,-97,-90,-80,-76,-59,-38,-54,-66,-72,-96,-116,-115,-116,-115,-115,-108,-118,-253,-355,-143,494,1070,149,-459,-646,-601,-281,-123,-74,-52,-39,-26,-7,5,13,20,46,56,78,91,110,133,156,162,171
2019-06-04,15:01:04.391,106,100,85,80,69,48,40,20,7,0,-3,-1,-7,-7,-3,-4,-3,-1,6,4,-3,-11,-20,-31,-40,-45,-47,-49,-44,-54,-42,-21,-41,-60,-74,-90,-110,-124,-116,-105,-103,-100,-115,-254,-343,-119,572,1123,162,-423,-685,-544,-230,-100,-73,-63,-58,-58,-54,-48,-43,-30,-9,18,41,70,101,125,151,166,167,162,153,141,132,117,107,74,42,7,-21,-33,-41,-43,-46,-47,-42,-39,-34,-35,-41,-45,-50,-49,-51,-56,-60,-65,-59,-55,-51,-48,-26,-15,-35,-51,-62,-71,-84,-74,-39,1,33,43,-62,-288,-218,374,1277,791,-253,-660,-480,-192,-70,-52,-49,-50
2019-06-04,15:01:05.416,-80,-81,-74,-63,-50,-28,-10,10,17,19,51,79,96,109,107,108,112,118,114,92,68,40,17,-3,-19,-24,-23,-19,-16,-18,-23,-27,-26,-30,-33,-37,-35,-37,-34,-42,-48,-46,-37,-25,-9,25,32,30,28,10,-10,-28,-39,-37,-45,-45,-47,-159,-403,-309,321,1356,979,-87,-600,-506,-213,-84,-57,-40,-24,-33,-21,-9,-7,10,28,40,49,70,86,91,102,113,113,94,80,78,65,50,35,9,-10,-27,-40,-46,-46,-49,-44,-38,-36,-36,-34,-31,-32,-31,-40,-47,-47,-54,-52,-51,-43,-24,-20,-32,-34,-7,-41,-88,-82,-76,-76,-71,-67,-76,-88,-104
2019-06-04,15:01:06.441,-234,-390,-591,-445,260,1318,762,-167,-669,-601,-322,-201,-162,-145,-130,-112,-100,-85,-73,-61,-52,-45,-37,-29,-34,-40,-44,-50,-59,-60,-49,-56,-50,-44,-50,-65,-82,-93,-102,-105,-103,-103,-98,-91,-82,-75,-67,-66,-72,-64,-44,-22,-1,9,0,-3,-9,0,9,15,47,69,59,44,36,26,9,-5,-19,-22,-19,-19,-63,-297,-401,-100,765,1306,273,-422,-650,-396,-213,-166,-146,-129,-131,-136,-139,-139,-118,-88,-60,-33,-7,15,35,54,66,67,61,57,52,47,49,52,48,37,27,19,12,10,9,17,15,2,15,20,14,11,11,12,19,20,22,26,15,-7
2019-06-04,15:01:07.465,-58,-65,-99,-126,-84,-50,-74,-70,-78,-88,-100,-116,-196,-139,-89,-206,-263,-418,-389,167,1231,988,-39,-631,-426,-174,-87,-56,-38,-20,-20,-16,3,22,39,49,72,91,102,108,113,117,129,116,100,86,93,105,90,27,16,-4,0,18,48,102,147,128,67,17,-33,-63,-66,-60,-53,-50,-41,-33,-30,-20,-7,4,23,24,54,77,74,49,42,88,106,105,88,68,47,10,-32,-156,-363,-261,330,1211,586,-309,-679,-539,-198,-55,-26,-21,-35,-59,-74,-52,5,55,99,122,121,124,121,113,102,106,110,113,117,120,125,125,115,116,105,75,51,28,20,12
2019-06-04,15:01:08.490,81,74,57,65,68,66,49,20,-9,-16,7,44,29,44,51,40,49,80,53,1,-54,-1,-60,-22,15,-46,-3,-4,-100,-340,-298,240,1228,895,-186,-658,-458,-139,-122,-124,66,88,41,45,63,65,71,77,103,114,126,138,144,149,141,129,109,79,69,72,61,56,36,21,5,-10,-17,-32,-47,-45,-51,-52,-52,-52,-60,-60,-53,-58,-62,-64,-69,-71,-77,-72,-65,-52,-17,-7,-17,-29,-43,-49,-61,-64,-61,-56,-50,-58,-185,-407,-284,365,1363,870,-104,-574,-453,-166,-52,-17,8,24,27,26,22,18,29,26,31,49,72,98,114,126,134,132,118,111
2019-06-04,15:01:09.515,191,182,178,166,141,115,95,77,64,52,49,56,62,67,61,55,47,46,49,44,38,25,19,21,20,17,16,43,48,32,25,13,-2,-20,-27,-34,-43,-46,-55,-175,-426,-364,227,1259,955,-52,-569,-489,-200,-78,-51,-34,-29,-26,-22,-16,-8,-11,-14,-24,-16,7,44,66,71,76,68,62,55,45,47,48,43,40,15,-2,-18,-22,-17,-13,-12,-16,-26,-37,-44,-44,-48,-42,-39,-42,-43,-40,-38,-26,-23,-18,8,18,5,-2,-19,-45,-73,-85,-92,-98,-102,-111,-191,-429,-443,-2,918,969,-56,-590,-677,-364,-158,-106,-84,-68,-59,-50,-44,-27,-14,4
2019-06-04,15:01:10.539,100,117,134,148,162,174,177,180,165,152,137,127,123,108,90,65,37,19,3,4,2,10,18,25,30,38,48,56,61,61,62,60,59,62,67,72,75,93,127,127,110,92,68,39,17,6,-1,-5,-9,-26,-154,-363,-271,289,1132,563,-299,-715,-604,-299,-171,-137,-121,-102,-80,-58,-44,-23,-4,17,32,52,78,100,120,131,141,147,139,131,126,125,123,108,94,77,55,41,28,21,16,10,6,5,5,9,4,0,-7,-13,-18,-23,-27,-28,-26,-20,-13,-4,12,36,36,8,5,-11,-25,-32,-39,-46,-50,-51,-81,-286,-431,-212,540,1289,431,-288
2019-06-04,15:01:11.564,-637,-456,-186,-90,-64,-47,-31,-20,-13,-3,-3,0,9,21,39,52,55,46,34,22,21,24,31,25,30,28,22,13,3,-4,-11,-6,0,0,1,3,1,-1,2,3,-5,-17,-24,-36,-49,-63,-80,-91,-108,-106,-99,-77,-44,-18,-20,-31,-52,-84,-94,-93,-80,-71,-59,-66,-168,-403,-375,117,1067,952,-2,-500,-610,-311,-137,-84,-60,-40,-34,-24,-16,-9,5,23,39,55,73,90,101,109,111,114,108,98,93,85,80,66,47,31,17,6,-4,-6,-3,-7,-3,6,14,26,30,29,23,20,15,4,2,-2,-16,-25,-27,-23,-24,-13,11,24,1,-4
2019-06-04,15:01:12.589,-81,-91,-99,-100,-92,-98,-98,-117,-280,-482,-359,277,1238,670,-168,-624,-559,-291,-186,-151,-133,-115,-104,-91,-76,-59,-42,-26,-3,10,20,26,37,39,41,34,31,23,19,18,14,6,-4,-21,-37,-47,-46,-46,-39,-34,-34,-36,-32,-28,-29,-30,-37,-45,-48,-52,-58,-67,-70,-74,-77,-72,-60,-47,-23,-13,-28,-26,-39,-47,-50,-51,-45,-47,-48,-87,-306,-425,-177,620,1330,452,-232,-565,-397,-182,-108,-82,-68,-56,-50,-42,-30,-14,0,17,35,55,67,84,95,103,112,119,120,114,114,116,109,93,79,65,49,28,13,3,0,-10,-29,-57,-90,-119,-117,-103
2019-06-04,15:01:13.613,-167,-162,-158,-149,-133,-124,-113,-101,-89,-86,-77,-66,-50,-23,-5,-25,-38,-48,-63,-78,-82,-82,-85,-84,-103,-216,-467,-444,11,966,904,-46,-576,-652,-331,-136,-66,-47,-36,-32,-26,-13,26,86,123,126,134,154,158,155,144,129,118,109,96,83,81,76,61,45,37,34,31,28,19,15,3,-18,-24,-37,-44,-31,-21,-12,-7,-2,-10,-12,-18,-29,-29,-25,-17,-11,-9,5,24,41,52,38,15,1,-12,-32,-40,-46,-49,-50,-59,-146,-368,-320,186,1174,1013,1,-513,-617,-317,-124,-69,-49,-29,-9,1,8,24,39,60,80,103,123,146,174,199,222,237,245
2019-06-04,15:01:14.638,87,77,73,59,32,-3,-29,-59,-81,-98,-105,-119,-118,-115,-113,-116,-112,-109,-110,-106,-113,-115,-111,-98,-99,-105,-108,-110,-106,-105,-98,-88,-70,-49,-32,-56,-58,-67,-89,-105,-112,-120,-121,-124,-145,-282,-471,-315,397,1347,628,-269,-685,-573,-268,-126,-102,-89,-65,-58,-50,-46,-33,-24,-7,12,23,48,72,95,120,144,156,166,157,156,144,124,91,59,27,-6,-16,-31,-42,-47,-54,-55,-60,-53,-49,-39,-39,-43,-39,-34,-31,-31,-35,-36,-32,-38,-54,-51,-48,-62,-69,-65,-54,-24,-13,-2,-15,-31,-40,-63,-90,-93,-91,-95,-89,-106,-237,-419,-278,424,1357,653
2019-06-04,15:01:15.663,-316,-724,-685,-395,-234,-199,-187,-168,-156,-145,-133,-120,-101,-84,-63,-46,-19,9,36,70,97,119,131,131,125,114,98,72,47,17,-15,-36,-54,-64,-75,-82,-82,-83,-83,-79,-72,-68,-63,-62,-57,-62,-62,-67,-68,-74,-77,-72,-72,-76,-70,-76,-68,-71,-68,-61,-39,-14,-2,-9,-23,-28,-44,-61,-70,-70,-72,-70,-79,-169,-407,-373,157,1187,994,-62,-595,-616,-307,-130,-79,-61,-47,-31,-23,-19,-5,7,18,33,55,75,87,108,131,146,154,153,154,148,144,129,108,84,55,31,9,-5,-17,-25,-24,-22,-24,-24,-21,-18,-20,-20,-20,-26,-22,-21,-16,-11
2019-06-04,15:01:16.687,-131,-130,-133,-132,-136,-140,-140,-141,-142,-143,-146,-147,-143,-132,-102,-85,-78,-85,-92,-100,-122,-131,-139,-141,-140,-136,-146,-286,-490,-370,284,1257,679,-218,-666,-570,-279,-164,-128,-108,-96,-87,-77,-63,-53,-41,-21,-2,19,36,52,76,100,118,129,136,137,129,119,104,85,57,29,7,-14,-25,-28,-34,-36,-38,-40,-46,-52,-49,-49,-46,-46,-43,-44,-40,-41,-50,-52,-53,-59,-65,-61,-66,-67,-69,-70,-69,-64,-66,-72,-69,-40,-30,-30,-34,-39,-39,-58,-66,-68,-64,-59,-56,-69,-214,-429,-316,326,1294,774,-150,-603,-466,-192,-82,-59,-42,-27,-21,-11,-5,6,15
2019-06-04,15:01:17.712,-19,-7,6,20,34,55,74,89,99,102,98,92,86,78,63,43,26,10,-1,-16,-25,-32,-38,-40,-40,-40,-42,-41,-38,-35,-33,-30,-33,-31,-32,-34,-31,-31,-23,-19,-18,-22,-23,-26,-32,-33,-38,-40,-44,-44,-28,-7,-8,-7,-11,-13,-19,-36,-40,-39,-41,-39,-48,-99,-330,-425,-159,689,1268,290,-377,-702,-490,-221,-114,-68,-33,-14,4,16,30,49,65,87,108,126,140,151,170,182,189,190,179,168,153,142,126,98,67,42,21,1,-9,-5,-1,-5,-7,-4,-1,7,10,4,1,-5,-12,-14,-14,-22,-26,-29,-31,-37,-41,-37,-43,-46,-49,-51
2019-06-04,15:01:18.737,-82,-83,-88,-92,-80,-48,-48,-46,-42,-49,-63,-78,-82,-86,-90,-91,-90,-129,-326,-388,-79,681,1091,89,-460,-712,-510,-217,-114,-75,-49,-30,-13,2,10,19,35,49,65,93,113,141,169,201,223,226,223,215,201,178,154,126,97,71,37,7,-11,-22,-28,-30,-30,-31,-25,-19,-15,-10,-7,-8,-14,-17,-19,-29,-40,-46,-52,-54,-54,-53,-56,-57,-66,-70,-80,-81,-72,-46,-49,-50,-62,-69,-79,-96,-106,-109,-108,-107,-105,-126,-282,-456,-286,413,1241,408,-386,-752,-564,-266,-147,-117,-102,-93,-84,-72,-58,-46,-35,-12,18,31,48,63,84,103,117,129,129,127
2019-06-04,15:01:19.761,130,130,120,89,60,34,6,-9,-23,-31,-35,-30,-22,-29,-39,-45,-47,-46,-36,-47,-69,-70,-37,-43,-48,-30,-30,-27,-22,-26,-45,-44,-27,-35,-34,-8,-3,-5,-17,-27,-41,-67,-82,-90,-102,-98,-95,-100,-200,-449,-424,60,1078,1039,6,-577,-616,-317,-141,-125,-109,-101,-97,-107,-116,-121,-122,-117,-102,-87,-61,-35,-8,6,13,6,14,46,125,155,126,106,70,45,34,38,39,35,24,20,24,21,21,26,25,13,-2,7,17,18,21,54,77,102,56,-14,-6,-33,-74,-92,-52,-20,16,65,94,95,58,32,2,-40,-56,-60,-54,-31,-50,-80,-318,-419
2019-06-04,15:01:20.786,-104,820,1654,748,17,-365,-209,-32,22,17,25,46,46,36,-29,-112,-152,-165,-175,-171,-148,-109,-106,-135,-171,-197,-231,-200,-135,-128,-124,-125,-114,-104,-86,-68,-43,-39,-3,39,119,254,457,554,480,469,493,449,396,336,268,199,161,136,124,131,119,109,96,90,104,111,130,105,89,67,57,50,44,42,37,27,2,-164,-394,-291,324,1461,1213,335,-209,-303,-160,-107,-54,-6,1,10,16,15,16,21,31,42,44,26,24,34,34,24,26,14,-10,-50,-86,-106,-70,-68,-70,-92,-173,-458,-620,-404,-208,-149,-65,53,83,93,128,96,29,-8,-16,-19,-36,-43
2019-06-04,15:01:21.811,36,32,28,12,-3,-1,13,43,52,64,49,27,13,2,-5,-20,-30,-42,-90,-295,-338,-5,817,1143,29,-554,-743,-462,-184,-92,-66,-52,-45,-41,-28,-17,-3,15,35,48,79,93,109,133,156,172,172,170,164,156,145,126,101,66,39,7,-27,-52,-70,-78,-69,-55,-49,-38,-31,-18,-16,-12,-14,-12,-17,-22,-30,-52,-79,-85,-63,-29,-12,-13,-51,-58,-37,-36,-44,-77,-81,-65,-59,-64,-161,-257,-70,510,1066,191,-445,-696,-591,-270,-130,-91,-65,-42,-19,0,8,13,29,52,71,93,117,136,159,179,194,211,210,202,194,185,164,138,111,79,55,33
2019-06-04,15:01:22.835,70,56,45,36,28,27,34,43,59,75,84,87,82,81,89,94,88,107,109,101,78,55,6,-29,-45,-54,-52,-52,-51,-53,-60,-79,-174,-330,-229,281,962,380,-383,-666,-517,-202,-77,-66,-60,-45,-36,-33,-15,2,11,46,75,99,96,108,141,155,169,171,171,167,150,126,105,88,57,30,-9,4,0,-2,-31,-7,-30,-51,-51,-25,-15,-26,-27,-14,-1,11,94,195,99,-199,-421,-378,-278,-147,-51,-51,-81,-39,-52,-81,-92,-83,-92,-82,-82,-88,-194,-393,-274,326,1175,576,-298,-613,-416,-170,-62,-74,-72,-75,-110,-53,33,52,53,45,17,95,18,-27
2019-06-04,15:01:23.860,205,201,221,266,301,335,360,296,307,167,31,311,151,-6,131,224,185,125,180,36,129,77,9,184,266,209,185,160,143,108,75,80,35,69,29,43,106,95,103,75,26,-3,-62,-79,-185,-188,-111,-95,-107,-226,-277,-47,480,879,-26,-523,-692,-437,-183,-142,-94,-51,-47,-69,-16,-20,-18,6,21,114,84,84,89,105,208,203,194,291,306,51,110,157,147,246,40,52,253,-35,40,102,274,238,159,257,337,130,190,298,175,104,55,23,1,7,0,-67,41,-22,88,101,71,60,41,11,-23,-50,-70,-62,-64,-71,-82,-105,-205,-254,-64,385,696,-150
2019-06-04,15:01:24.885,-602,-864,-784,-564,-380,-222,-101,-11,14,13,25,40,90,152,198,239,257,233,183,140,135,147,173,216,256,262,223,170,99,10,-57,-90,-103,-100,-94,-83,-69,-49,-31,-1,38,50,36,0,-29,-58,-79,-84,-89,-83,-76,-70,-66,-59,-40,-34,-29,-50,-63,-86,-113,-130,-139,-140,-147,-150,-161,-268,-428,-291,298,1172,647,-212,-611,-547,-254,-112,-73,-53,-45,-31,-23,-16,-7,4,10,16,22,34,43,53,67,86,97,100,98,95,87,77,55,31,13,-7,-28,-38,-46,-56,-59,-65,-69,-66,-69,-70,-59,-52,-48,-49,-49,-50,-49,-50,-48,-47,-43,-41,-24,5
2019-06-04,15:01:25.909,-74,-75,-85,-97,-115,-132,-139,-140,-142,-136,-128,-151,-288,-382,-155,534,1100,137,-442,-697,-590,-276,-140,-104,-85,-65,-49,-41,-30,-20,1,32,52,77,105,128,161,186,206,214,217,213,206,189,166,131,93,59,36,18,9,1,-3,-6,-5,-7,-6,0,1,9,14,20,20,20,21,19,13,12,10,12,12,7,12,25,59,76,79,71,63,47,30,19,13,10,7,8,-3,-81,-284,-230,279,1160,842,-133,-562,-477,-174,-31,6,26,39,47,54,59,63,71,79,91,109,121,142,156,169,178,186,183,180,172,160,139,105,64,27,-5,-34,-54,-69,-70
2019-06-04,15:01:26.934,-244,-234,-231,-233,-234,-242,-250,-263,-282,-304,-320,-320,-309,-284,-258,-236,-222,-216,-214,-214,-207,-200,-192,-179,-158,-130,-107,-86,-84,-98,-98,-112,-135,-140,-139,-138,-137,-132,-154,-316,-435,-208,530,1197,338,-362,-601,-364,-140,-64,-47,-34,-27,-21,-16,-13,-8,-6,-4,1,15,30,48,64,85,100,111,114,106,103,98,91,72,50,30,11,-4,-16,-22,-28,-26,-19,-20,-19,-16,-16,-14,-15,-12,-13,-12,-13,-13,-10,-13,-11,-12,-14,-13,-17,-19,-22,-21,-22,-18,-18,-19,-14,-13,-6,15,16,3,-1,-7,-20,-31,-33,-32,-38,-41,-56,-172,-380,-312,188,1105,840
2019-06-04,15:01:27.958,-190,-674,-629,-347,-226,-193,-180,-165,-148,-138,-128,-110,-96,-86,-76,-61,-48,-29,-10,7,24,32,36,33,30,23,17,6,-10,-26,-39,-52,-66,-72,-75,-75,-76,-75,-70,-68,-66,-60,-61,-66,-67,-69,-67,-68,-74,-77,-76,-72,-73,-77,-77,-74,-75,-80,-77,-74,-76,-75,-73,-74,-73,-79,-69,-42,-45,-54,-48,-55,-67,-73,-74,-70,-70,-102,-290,-401,-191,535,1248,394,-336,-642,-417,-176,-103,-84,-74,-68,-67,-64,-66,-67,-56,-37,-15,14,39,67,100,131,153,168,177,176,169,158,147,128,106,86,67,51,40,28,22,19,20,11,10,5,0,-6,-13,-15
2019-06-04,15:01:28.983,-112,-112,-109,-103,-102,-96,-92,-99,-99,-101,-107,-112,-112,-110,-107,-105,-104,-109,-120,-127,-125,-116,-92,-74,-85,-87,-87,-90,-96,-99,-97,-94,-103,-202,-407,-329,191,1059,710,-218,-648,-512,-234,-120,-93,-77,-63,-52,-44,-37,-30,-17,-4,3,19,37,49,66,81,90,94,92,86,76,74,70,60,46,34,21,7,-2,-13,-18,-16,-16,-17,-17,-15,-13,-14,-14,-16,-18,-23,-18,-18,-20,-21,-24,-29,-30,-29,-34,-36,-38,-38,-36,-36,-34,-38,-41,-46,-53,-59,-56,-32,-17,-25,-27,-23,-32,-39,-41,-35,-39,-47,-141,-359,-309,147,1023,844,-95,-572,-493,-199,-78
2019-06-04,15:01:30.008,-115,-98,-78,-69,-63,-55,-39,-33,-25,-11,0,16,28,42,57,69,70,73,73,70,61,55,46,28,13,3,-17,-31,-43,-36,-29,-21,-13,-12,-12,-12,-20,-25,-32,-41,-47,-43,-25,-10,1,4,7,-1,-13,-18,-20,-18,-16,-16,-16,-22,-28,-29,-18,-9,-2,-7,-16,-20,-32,-46,-49,-47,-43,-42,-59,-215,-385,-236,377,1229,556,-233,-611,-428,-168,-72,-50,-35,-25,-16,-10,-4,9,20,32,46,62,73,91,114,127,133,135,129,122,114,108,100,81,58,33,7,-12,-27,-40,-37,-28,-24,-22,-14,-4,0,1,4,5,5,4,3,5,13,15,13
2019-06-04,15:01:31.032,-100,-106,-110,-118,-123,-129,-129,-123,-97,-83,-85,-98,-108,-122,-145,-161,-169,-167,-168,-163,-169,-262,-427,-331,224,1010,408,-521,-828,-606,-282,-156,-125,-114,-103,-91,-80,-77,-70,-61,-46,-30,-13,2,20,37,58,78,92,97,99,95,98,89,72,50,26,-3,-27,-43,-57,-70,-72,-70,-65,-63,-55,-53,-48,-48,-43,-40,-43,-45,-46,-52,-64,-77,-89,-92,-92,-95,-80,-47,-17,-25,-48,-79,-109,-136,-147,-134,-121,-118,-112,-88,-140,-292,-219,277,1089,676,-330,-714,-561,-268,-175,-160,-143,-134,-119,-110,-98,-84,-65,-51,-37,-10,13,36,57,86,108,121,132,139,148,156
2019-06-04,15:01:32.057,104,102,91,87,75,69,74,89,107,125,163,175,177,188,194,176,152,118,76,40,21,11,-7,-29,-36,-32,-43,-61,-71,-68,-30,1,16,10,4,-15,-32,-49,-55,-59,-61,-68,-86,-205,-337,-179,427,1087,269,-482,-702,-442,-188,-124,-110,-105,-97,-99,-88,-86,-93,-88,-76,-59,-43,-21,-4,12,34,47,55,62,63,70,77,82,74,60,42,23,6,-3,-2,4,13,20,34,46,56,57,56,45,34,23,8,-2,-5,-9,-13,-15,-19,-24,-33,-28,-3,32,42,48,32,29,18,2,-4,1,4,2,0,-57,-269,-297,100,955,1111,71,-511,-562,-250,-84
2019-06-04,15:01:33.082,-14,1,16,28,31,30,30,37,44,59,70,79,95,108,118,126,122,111,107,107,111,117,115,102,84,55,29,11,2,-8,-17,-28,-40,-52,-59,-67,-65,-62,-59,-66,-59,-55,-56,-58,-58,-61,-61,-58,-61,-62,-55,-32,-5,0,7,5,0,-10,-25,-32,-36,-45,-40,-42,-105,-287,-267,153,1008,1026,140,-380,-516,-253,-93,-58,-50,-40,-32,-23,-21,-15,-10,0,13,24,35,46,61,72,82,85,83,84,89,98,108,105,92,71,55,43,34,35,38,38,34,24,20,16,14,15,18,21,21,22,26,22,14,12,6,-4,-10,-14,-10,0,30,37
2019-06-04,15:01:34.106,89,77,72,58,41,22,7,-6,-12,-21,-50,-239,-409,-207,531,1320,530,-220,-576,-401,-157,-70,-40,-2,9,-40,-53,-31,-1,24,44,61,78,87,93,90,87,92,93,92,87,84,90,88,77,61,40,24,2,-9,-15,-14,-12,-9,-13,-21,-24,-27,-31,-31,-34,-35,-38,-42,-45,-49,-49,-50,-48,-50,-39,-13,-6,8,-6,-10,-26,-46,-63,-66,-65,-67,-70,-92,-268,-419,-222,473,1246,471,-239,-609,-530,-236,-121,-93,-78,-63,-58,-57,-52,-48,-36,-21,-3,14,36,54,72,86,97,97,94,88,86,89,82,71,57,41,24,7,4,0,3,0,0,3
2019-06-04,15:01:35.131,39,48,54,53,51,42,29,21,10,-6,-14,-24,-34,-39,-34,-9,10,31,26,31,36,34,33,29,27,23,11,-10,-130,-384,-343,198,1181,1019,48,-493,-441,-221,-111,-81,-63,-51,-44,-50,-54,-48,-51,-46,-34,-11,2,23,34,56,69,82,86,82,81,79,83,77,74,64,50,34,19,11,0,4,0,-5,-3,-6,-24,-45,-28,-13,-21,-6,-12,-23,-36,-51,-61,-64,-42,-27,-27,-32,-31,-38,-55,-32,-30,-26,-29,-14,-21,-85,-355,-440,-115,839,1433,465,-190,-472,-290,-119,-73,-66,-56,-51,-45,-43,-41,-30,-12,-7,9,20,27,32,44,53,51,39
2019-06-04,15:01:36.156,80,73,91,50,69,80,50,-105,-154,-35,-32,112,87,71,74,97,109,96,76,49,75,-20,-53,36,120,111,126,94,73,60,44,-24,44,-8,-3,62,109,20,42,58,32,30,-31,-148,-257,-365,-141,547,1485,934,120,-330,-244,-195,-148,-227,-64,-76,-175,-23,-90,-122,-26,-36,-64,-14,44,13,-119,-73,-64,-8,123,101,49,56,34,11,5,-28,-16,4,2,-27,-22,-41,-51,-50,-17,-14,-10,-25,-19,-33,-56,-43,-69,32,75,103,103,82,102,77,6,146,67,15,12,-34,-52,-83,-162,-64,-105,-121,-193,-450,-420,166,1235,1331,325,-310,-371,-179,-40,-21
2019-06-04,15:01:37.180,74,90,84,4,-4,110,164,150,112,102,185,191,194,193,201,207,196,171,179,260,197,174,156,132,97,58,47,39,36,32,27,33,19,0,41,7,-54,-20,-66,47,102,-15,-62,-340,-115,-264,-286,95,222,170,53,-32,13,-99,136,71,-5,-44,-57,-69,-94,-239,-374,-169,473,1207,421,-276,-637,-586,-269,-139,-104,-87,-75,-66,-61,-53,-42,-34,-35,-28,-16,5,30,62,93,120,142,161,156,143,140,112,79,31,11,-20,-50,-66,-67,-46,-39,-45,-46,-52,-52,-45,-35,-27,5,10,0,3,7,0,-12,-14,-10,-7,15,31,40,29,7,-16,-34,-48
2019-06-04,15:01:38.205,15,1,-13,-29,-46,-126,-353,-325,121,1108,1203,124,-420,-583,-339,-113,-51,-31,-55,-83,-66,-20,-28,-7,69,58,101,128,133,135,185,225,241,259,268,252,192,235,250,180,142,100,35,-6,-56,-22,-57,-159,-81,-33,3,0,-12,-20,-23,-26,-26,-29,-35,-39,-29,-40,-41,-45,-52,-49,-44,-35,-21,-8,1,-10,-11,-17,-26,-24,-14,-13,-22,-38,-72,-220,-440,-342,266,1259,799,-128,-605,-569,-274,-118,-88,-73,-62,-48,-39,-28,-16,-6,8,19,29,41,47,61,73,95,116,131,146,156,151,143,116,87,57,32,12,2,-4,-3,-8,-17,-31,-30,-92,-154
2019-06-04,15:01:39.230,-93,-22,66,-2,48,58,-42,-44,-107,-105,-6,18,-30,-15,33,-20,-49,-13,-38,-61,-16,-20,-74,-69,-8,23,106,68,33,-5,-28,-46,-73,-113,-137,-47,-134,-397,-280,289,1329,1028,85,-462,-498,-231,-92,-58,-44,-35,-9,-19,-4,9,-3,17,31,36,33,39,68,98,92,111,149,132,169,176,151,88,66,-3,13,39,-13,-60,-26,-2,23,-31,-123,-13,7,-46,-84,89,12,15,-4,-66,5,54,26,-71,-81,-2,41,47,-39,16,28,26,-36,3,12,-9,39,27,5,12,18,7,7,4,-3,-17,-17,-14,-11,-5,-17,-155,-370,-291,289,1328,990,121
2019-06-04,15:01:40.254,-327,-344,-91,6,39,55,68,86,101,121,142,163,188,202,216,229,237,240,239,243,245,244,241,236,228,214,200,173,152,142,131,124,119,118,120,120,125,124,123,128,138,143,151,153,152,154,154,154,48,-119,-184,-214,-231,-238,-236,-240,-241,-239,-242,-242,-242,-249,-254,-251,-239,-214,-205,-209,-199,-193,-196,-200,-196,-194,-190,-184,-241,-460,-487,-133,733,1066,94,-474,-746,-551,-287,-193,-161,-143,-130,-118,-110,-110,-89,-128,-203,-141,-94,96,121,128,91,59,89,181,267,185,226,204,155,106,63,16,11,-34,0,-12,-4,-20,-29,-42,-48,-54,-58,-54,-53,-49
2019-06-04,15:01:41.279,-152,-143,-138,-137,-134,-137,-140,-140,-141,-135,-135,-133,-134,-134,-143,-152,-163,-183,-193,-201,-191,-162,-160,-163,-152,-136,-136,-144,-141,-132,-128,-142,-283,-470,-351,255,1192,681,-166,-624,-562,-273,-140,-111,-90,-70,-54,-43,-34,-23,-14,-8,5,19,35,45,58,75,87,95,96,90,78,70,62,38,7,-22,-43,-63,-75,-76,-77,-77,-74,-64,-51,-50,-46,-47,-44,-45,-46,-42,-39,-34,-29,-24,-19,-17,-15,-8,-5,0,4,13,21,28,32,25,22,21,12,-1,-15,-28,-8,7,1,-16,-25,-42,-74,-106,-124,-130,-127,-140,-300,-428,-256,439,1316,665,-96,-496,-359,-122
2019-06-04,15:01:42.304,-163,-149,-139,-129,-121,-107,-91,-73,-58,-50,-45,-36,-28,-24,-13,-9,-1,5,7,3,-1,-3,-11,-24,-40,-58,-75,-90,-95,-97,-97,-96,-85,-71,-66,-63,-57,-54,-47,-46,-45,-48,-51,-56,-59,-62,-67,-73,-72,-71,-66,-68,-69,-63,-61,-57,-61,-63,-64,-69,-65,-66,-70,-74,-81,-61,-33,-31,-41,-40,-42,-50,-56,-55,-54,-52,-75,-240,-412,-267,371,1238,647,-172,-568,-405,-169,-85,-64,-52,-38,-28,-20,-6,1,8,12,13,20,28,38,49,64,76,80,87,89,93,95,97,89,74,56,40,24,11,2,-5,-7,-6,4,2,0,1,0,-2,-6,-7
2019-06-04,15:01:43.328,-78,-82,-84,-89,-93,-96,-92,-89,-92,-89,-89,-91,-88,-86,-87,-84,-84,-88,-89,-88,-80,-88,-96,-107,-107,-79,-64,-74,-79,-75,-76,-84,-81,-80,-79,-76,-143,-373,-402,-59,833,1152,204,-399,-550,-301,-138,-90,-74,-63,-54,-44,-33,-22,-16,-4,2,10,20,31,45,57,69,83,85,83,77,74,76,72,62,48,35,22,11,1,-6,-7,-2,-1,-7,-8,-9,-8,-11,-6,-9,-16,-19,-23,-22,-25,-27,-29,-33,-31,-28,-28,-29,-28,-31,-34,-30,-29,-30,-28,-29,-31,-29,-32,-41,-49,-59,-35,-9,-11,-21,-19,-25,-32,-34,-34,-32,-33,-69,-269,-389,-177
2019-06-04,15:01:44.353,518,1239,441,-267,-574,-359,-155,-88,-71,-57,-49,-43,-34,-26,-19,-11,0,7,12,25,33,42,55,67,70,70,68,61,57,58,54,40,30,18,11,-3,-10,-14,-16,-14,-15,-13,-11,-13,-14,-21,-20,-23,-28,-33,-33,-32,-37,-35,-38,-36,-37,-39,-43,-45,-41,-41,-45,-50,-52,-52,-49,-40,-38,-36,-43,-52,-53,-24,2,-1,-5,-1,-3,-13,-16,-15,-9,-12,-56,-277,-345,-68,729,1266,377,-252,-518,-305,-110,-51,-33,-20,-15,-5,-4,3,11,13,25,37,45,50,53,61,70,73,79,78,72,67,62,58,53,43,33,25,16,4,2,1,-1,-5
2019-06-04,15:01:45.378,-16,-12,-10,-11,-6,-6,-11,-14,-18,-18,-20,-21,-22,-26,-24,-27,-27,-33,-32,-35,-39,-33,-35,-37,-36,-36,-31,-37,-41,-43,-28,-9,-3,-14,-13,-15,-23,-31,-29,-21,-19,-15,-93,-331,-340,27,898,1101,169,-381,-503,-234,-81,-40,-24,-15,-7,-5,3,19,29,39,47,53,58,58,69,78,80,85,83,80,78,87,109,129,128,97,66,37,20,9,-3,-4,1,-3,-3,-10,-16,-24,-23,-22,-25,-33,-40,-40,-38,-36,-30,-31,-35,-35,-37,-35,-34,-39,-34,-34,-36,-33,-23,11,30,26,31,24,17,0,-11,-19,-16,-5,-2,-13,-105,-328,-309,133
2019-06-04,15:01:46.402,951,824,-159,-639,-546,-217,-73,-49,-38,-36,-28,-15,-7,1,9,16,20,21,21,19,23,37,68,91,99,101,97,83,68,54,42,16,-8,-17,-21,-24,-22,-24,1,33,26,-3,-23,-25,-7,15,28,33,25,8,-7,-12,-16,-26,-39,-43,-47,-54,-52,-52,-51,-12,5,34,39,49,24,-51,-106,-108,-93,-81,-85,-92,-193,-368,-249,323,1168,607,-284,-684,-490,-154,-23,15,42,57,45,14,-1,11,-3,-29,-14,26,51,74,89,97,108,101,93,89,80,72,58,44,42,37,18,0,-1,-5,-2,5,-1,-6,0,2,8,8,9,8,6,1,-3,-10
2019-06-04,15:01:47.427,34,27,25,18,14,12,8,16,41,90,100,116,100,91,70,54,49,46,48,40,39,19,-134,-293,-117,515,1301,537,-254,-591,-326,-60,18,36,44,47,51,53,58,61,63,63,64,65,68,75,85,104,118,118,111,94,86,80,74,63,46,38,39,34,29,21,0,-35,-70,-80,-69,-98,-152,-163,-151,-105,-39,-22,-43,-54,-55,-74,-100,-90,-56,-14,30,66,60,69,100,110,83,41,-10,-31,-42,-70,-163,-423,-475,-41,887,1069,77,-499,-481,-138,34,66,46,29,17,10,-5,-6,12,40,62,88,103,123,131,129,156,147,132,117,102,102,111,88
2019-06-04,15:01:48.452,30,22,3,-28,-54,-44,-52,-44,-41,-52,-54,-57,-49,-50,-44,-42,-42,-40,-43,-45,-47,-45,-37,-35,-14,10,2,-20,-32,-51,-70,-88,-92,-98,-105,-103,-132,-336,-437,-139,683,1267,282,-441,-649,-370,-163,-93,-73,-54,-46,-40,-35,-27,-17,-10,5,16,23,33,40,49,64,72,69,67,70,77,72,69,70,57,31,4,-7,-18,-21,-16,-17,-21,-35,-41,-44,-37,-27,-15,-14,-10,-4,-2,8,5,19,46,42,28,18,7,-10,-20,-20,-11,0,0,-16,-163,-380,-280,311,1207,656,-196,-614,-446,-170,-74,-50,-35,-13,1,12,13,18,28,43,54,64,77
2019-06-04,15:01:49.476,71,76,80,79,80,74,67,62,56,55,52,47,37,28,24,15,14,18,15,10,3,2,4,-1,-6,-11,-8,-8,1,13,30,33,63,85,78,61,58,40,22,16,15,17,14,12,-25,-241,-426,-234,514,1269,420,-329,-591,-351,-164,-108,-102,-96,-79,-64,-51,-34,-20,-8,6,15,29,51,69,83,85,84,74,66,64,59,68,76,79,77,55,27,0,-18,-34,-61,-102,-137,-156,-146,-122,-78,-32,12,45,45,44,54,75,82,92,127,126,108,101,87,67,56,50,41,37,34,6,-158,-395,-289,344,1299,785,-48,-430,-248,-2,84,102,99,87,72
2019-06-04,15:01:50.501,-49,-77,-105,-114,-105,-96,-86,-79,-66,-56,-45,-36,-39,-31,-30,-36,-26,-23,-18,-19,-17,-21,-26,-24,-22,-18,-11,-8,-9,-11,-5,-7,-8,-1,1,3,5,12,16,23,26,44,78,78,52,43,20,-2,-22,-35,-39,-44,-48,-69,-246,-453,-304,372,1269,643,-187,-561,-379,-145,-67,-43,-29,-20,-16,-18,-16,-16,-16,-13,-8,0,10,17,33,40,45,48,44,43,38,40,46,40,36,23,9,-1,-5,-6,-8,-1,-7,-10,-13,-19,-16,-19,-17,-10,-5,0,3,7,4,14,25,42,58,67,43,32,17,-7,-25,-28,-26,-29,-37,-95,-305,-334,39,819
2019-06-04,15:01:51.526,1022,40,-455,-652,-452,-182,-95,-66,-44,-29,-18,-12,3,10,23,40,50,60,70,89,100,109,119,120,113,114,107,100,94,88,65,38,13,-5,-13,-24,-31,-34,-40,-38,-35,-31,-32,-33,-34,-36,-41,-46,-53,-58,-62,-65,-60,-36,-6,-1,7,-5,-19,-38,-54,-67,-66,-73,-76,-83,-188,-375,-300,201,1049,649,-214,-637,-595,-275,-117,-70,-47,-27,-12,-5,4,8,14,25,26,33,41,53,66,77,81,82,82,75,66,63,65,59,51,40,24,10,-1,-2,0,2,4,1,4,7,21,24,23,23,18,15,19,20,22,14,11,5,0,7,28,41
2019-06-04,15:01:52.550,78,55,41,20,3,-13,-22,-24,-23,-21,-45,-209,-355,-134,632,1347,549,-294,-508,-262,-81,-27,-12,-1,4,14,21,28,36,40,47,51,51,50,49,58,64,70,77,77,73,71,72,72,69,63,56,53,41,37,29,23,29,26,21,21,20,22,18,17,12,5,-6,-12,-18,-20,-19,-17,-17,-19,-18,-20,-17,10,43,44,44,28,13,-4,-23,-32,-32,-29,-27,-42,-186,-365,-214,422,1268,649,-181,-551,-381,-146,-59,-36,-19,-9,-3,6,15,22,32,39,45,54,58,64,72,80,85,80,79,75,68,64,61,54,42,34,24,12,5,4,0,-1
2019-06-04,15:01:53.575,10,11,8,10,12,14,11,10,3,1,0,-3,-4,-6,-7,-12,-12,-13,-12,-21,-22,-26,-30,-17,13,9,9,-5,-9,-21,-33,-38,-32,-30,-23,-38,-151,-349,-241,335,1205,802,-94,-520,-363,-123,-30,-13,0,10,13,19,18,19,31,39,46,53,64,71,72,76,78,74,62,48,45,41,45,46,42,35,27,16,6,-1,-5,-2,-8,-13,-12,-15,-11,-6,-5,-7,-8,-12,-16,-17,-22,-25,-28,-30,-27,-32,-31,-30,-30,-30,-31,-30,-35,-42,-37,-8,5,9,0,-7,-16,-30,-50,-60,-58,-60,-59,-103,-310,-342,-3,798,1111,183,-420,-541,-268,-109
2019-06-04,15:01:54.600,-49,-36,-26,-18,-14,-9,1,7,14,26,36,44,50,57,61,63,65,54,42,35,28,31,34,37,30,18,11,-1,-6,-9,-9,-11,-9,-8,-9,-7,-5,-1,-2,-6,-9,-12,-19,-21,-24,-25,-29,-33,-32,-29,-29,-25,-22,-23,-24,-20,-21,-24,-20,-1,24,22,21,10,10,-2,-23,-38,-46,-48,-49,-67,-230,-357,-148,513,1159,346,-357,-657,-421,-177,-93,-68,-45,-23,-5,9,25,41,61,89,112,130,150,164,175,177,178,173,163,150,140,134,131,126,109,86,58,27,0,-22,-43,-62,-78,-81,-72,-69,-66,-62,-62,-64,-66,-68,-71,-76,-80,-78
2019-06-04,15:01:55.624,-88,-89,-86,-86,-84,-83,-78,-76,-74,-73,-71,-49,-23,-21,-26,-35,-31,-31,-42,-51,-51,-60,-61,-71,-203,-370,-237,364,1204,651,-173,-608,-534,-225,-87,-55,-40,-25,-11,-4,4,12,23,28,40,50,60,69,83,92,102,105,107,100,91,86,88,81,71,58,41,24,7,0,-3,-8,-15,-18,-20,-26,-23,-23,-20,-16,-21,-22,-24,-23,-29,-33,-35,-36,-34,-28,-26,-28,-34,-34,-35,-14,16,19,27,5,-1,-17,-33,-39,-39,-38,-34,-33,-127,-341,-261,279,1189,932,-3,-523,-466,-211,-111,-91,-69,-40,-14,-2,6,19,22,30,34,38,49,60,67,69
2019-06-04,15:01:56.649,97,92,82,70,57,51,49,44,33,22,8,-9,-23,-31,-31,-27,-29,-30,-38,-43,-47,-42,-38,-32,-31,-30,-38,-37,-41,-46,-42,-37,-31,-27,-20,-19,-22,-24,-18,8,24,20,16,1,-13,-31,-46,-52,-54,-52,-48,-67,-204,-400,-267,365,1251,725,-114,-550,-412,-169,-81,-67,-57,-42,-32,-20,-15,-6,0,5,12,21,32,38,47,55,53,51,48,37,31,32,39,39,39,34,27,29,31,36,52,65,72,77,88,100,92,81,79,75,60,41,29,15,4,-5,-17,-29,-36,-42,-55,-60,-61,-54,-24,-4,14,6,0,-10,-27,-46,-54,-60,-62,-60
2019-06-04,15:01:57.674,-4,-156,-291,-137,529,1324,646,-153,-569,-440,-169,-60,-43,-22,-7,4,10,19,19,22,33,43,59,79,96,107,120,123,119,110,106,104,105,109,108,98,80,66,51,39,29,26,22,7,0,-6,-3,-5,-5,0,-3,-6,-8,-8,-9,-12,-9,-13,-15,-13,-12,-12,-11,-8,7,28,45,43,24,16,0,-24,-34,-37,-43,-42,-48,-110,-313,-311,91,980,1030,121,-451,-480,-220,-91,-64,-49,-39,-28,-19,-16,-13,-8,0,9,15,27,33,40,48,48,47,40,34,26,18,19,18,13,5,-8,-15,-22,-30,-31,-33,-31,-34,-37,-39,-40,-40,-42,-42,-47
2019-06-04,15:01:58.698,-20,-22,-21,-23,-25,-24,-22,-18,-16,-14,-10,-1,14,45,57,39,22,12,4,-3,0,4,11,18,14,-86,-266,-218,292,1173,825,-42,-530,-540,-247,-100,-60,-43,-28,-17,-11,-11,-3,9,22,42,58,63,64,71,84,89,89,89,87,80,77,71,68,56,44,29,17,8,-15,-20,-24,-28,-21,-20,-25,-26,-28,-23,-13,0,8,12,10,2,-11,-23,-32,-39,-33,-28,-17,-8,16,36,53,33,20,9,-22,-45,-55,-64,-64,-64,-81,-219,-388,-282,400,1292,743,-132,-551,-404,-182,-104,-85,-64,-56,-49,-34,-24,-14,-2,8,13,19,14,-1,9,20,15
2019-06-04,15:01:59.723,34,18,-28,-41,-49,35,43,58,64,53,37,21,3,-35,-80,26,43,23,34,46,59,77,88,99,103,96,84,75,59,40,20,-3,-10,-17,-32,-29,-26,-5,8,25,14,6,-4,-20,-34,-31,-27,-28,-29,-43,-168,-357,-289,293,1224,873,61,-409,-325,-139,-70,-54,-46,-39,-32,-28,-24,-17,-13,-2,4,2,7,14,0,21,9,12,-2,-16,-25,-29,-27,0,6,5,7,-3,4,-3,-9,-10,-3,-3,-2,-5,-1,-2,2,-4,0,-1,-11,-15,-15,-31,-45,-12,-6,-9,-8,-9,-23,-31,-24,-8,1,19,13,17,7,-12,-18,-24,-24,-33,-35,-28
2019-06-04,15:02:00.748,-82,-316,-350,13,931,1226,439,-158,-289,-149,-67,-38,-31,-29,-16,-11,-7,-7,-13,-6,1,6,5,-4,-8,-16,-23,-24,-32,-42,-47,-41,-29,-23,-20,-12,-15,-17,-8,-10,-2,0,-1,-4,-1,4,3,-1,-7,-9,-14,-13,-13,-15,-16,-17,-19,-19,-25,-23,-21,-27,-30,-30,-28,-30,-23,1,7,15,5,-2,-13,-23,-33,-38,-34,-39,-37,-69,-252,-358,-190,518,1277,642,-9,-382,-309,-61,12,6,-16,-37,-38,-22,-5,9,7,14,22,34,42,56,65,70,69,62,47,27,24,34,45,48,31,19,17,-1,-7,6,10,18,-5,11,0,-2,14,12
2019-06-04,15:02:01.772,14,11,-3,-3,-10,-7,0,0,-11,-18,-13,-25,-34,-37,-31,-36,-23,0,15,33,36,52,11,-15,-34,-27,-33,-34,-30,-49,-218,-389,-245,396,1282,790,101,-258,-249,-103,-45,-20,-25,-33,-20,-16,-10,-12,-4,3,23,13,-6,-42,-59,-76,-78,-94,-96,-101,-116,-134,-133,-132,-123,-116,-109,-99,-113,-130,-172,-166,-144,-133,-108,-113,-106,-88,-68,-41,-30,-25,-26,-6,0,23,37,33,18,-4,-14,-27,-52,-23,0,-24,-12,-17,-27,-40,-66,-53,-64,-64,-61,-67,-98,-315,-415,-153,676,1288,546,17,-267,-225,-120,-96,-78,-72,-71,-59,-57,-46,-39,-34,-21,4
2019-06-04,15:02:02.797,7,4,45,57,74,66,50,77,58,60,64,45,39,43,28,21,6,-15,-7,-6,-14,-9,-6,20,13,19,15,16,19,18,11,7,14,17,14,11,2,-10,-9,2,24,31,27,32,29,22,-15,-21,-26,-30,-33,-26,-35,-104,-328,-327,137,1077,1136,135,-296,-461,-294,-117,-78,-54,-37,-36,-24,-15,-15,-4,6,21,40,48,54,70,90,100,108,116,115,107,112,99,79,56,38,20,9,0,-12,-17,-15,-18,-21,-23,-19,-14,-21,-21,-26,-25,-27,-29,-31,-36,-34,-37,-42,-45,-51,-57,-55,-41,-12,-7,-8,-7,-17,-36,-59,-67,-66,-63,-67,-68
2019-06-04,15:02:03.822,-10,-116,-348,-297,252,1280,1084,173,-249,-420,-243,-109,-65,-42,-29,-17,-8,9,17,28,41,50,60,69,83,95,106,110,114,118,110,106,103,95,85,71,57,41,30,13,7,2,-6,-7,-14,-15,-15,-18,-17,-16,-19,-21,-19,-20,-25,-26,-29,-32,-32,-34,-34,-43,-49,-47,-42,-10,-2,-1,1,-6,-17,-37,-51,-55,-58,-66,-67,-76,-163,-411,-400,73,1096,1191,245,-236,-439,-291,-152,-112,-92,-80,-68,-54,-48,-39,-31,-22,-13,-5,9,19,31,51,64,78,75,75,75,68,68,55,35,17,3,-7,-20,-26,-29,-34,-32,-32,-31,-34,-34,-32,-35,-35
2019-06-04,15:02:04.846,58,57,56,58,55,50,47,42,39,40,36,31,28,22,23,19,19,16,28,51,60,60,47,41,26,7,-9,-12,-16,-19,-17,-30,-154,-407,-329,257,1343,1121,235,-230,-365,-187,-97,-59,-43,-30,-25,-13,0,9,11,19,31,37,51,62,78,89,102,109,110,108,106,100,92,84,70,55,36,24,13,5,0,-8,-10,-9,-11,-9,-8,-9,-14,-16,-14,-16,-16,-16,-18,-22,-24,-25,-30,-37,-38,-41,-43,-45,-45,-45,-49,-45,-46,-50,-39,-33,-25,-8,8,-8,-23,-22,-36,-51,-62,-64,-65,-67,-69,-88,-248,-467,-331,353,1392,914,104,-336,-398,-212
2019-06-04,15:02:05.871,-37,3,23,28,35,51,61,66,71,79,89,94,105,116,130,142,155,166,171,174,165,161,156,147,132,111,100,83,68,63,57,53,47,45,47,47,46,45,45,40,38,42,43,42,34,33,31,29,27,24,22,23,21,19,13,10,10,13,13,9,12,24,31,39,60,64,53,55,46,26,17,12,10,11,13,10,-30,-264,-398,-131,768,1627,790,93,-290,-242,-93,-34,-7,4,12,22,31,40,47,57,64,75,81,94,105,117,123,134,146,159,149,159,159,154,143,125,116,99,81,73,69,70,69,62,59,56,51,46,39,48,46,47
2019-06-04,15:02:06.896,2,3,-2,-1,-4,-5,-13,-19,-15,-20,-29,-28,-34,-36,-33,-34,-36,-37,-39,-38,-36,-27,-11,5,23,18,6,0,-7,-21,-32,-29,-32,-30,-34,-36,-122,-406,-436,-8,1081,1504,549,-71,-362,-253,-144,-95,-85,-75,-75,-72,-59,-53,-43,-37,-28,-16,-6,4,11,29,42,55,59,58,65,70,66,65,67,50,35,29,11,-3,-8,-14,-21,-30,-28,-25,-26,-26,-27,-28,-31,-31,-32,-35,-36,-35,-36,-38,-39,-37,-41,-46,-51,-54,-56,-60,-58,-61,-62,-67,-68,-69,-63,-42,-17,-16,-13,-14,-18,-37,-54,-64,-66,-67,-68,-68,-78,-183,-473,-447,103,1272
2019-06-04,15:02:07.920,1378,265,-261,-453,-272,-124,-69,-44,-33,-25,-7,1,17,22,32,42,51,64,86,100,117,138,158,174,185,183,186,182,173,149,119,89,66,41,21,10,-3,-9,-13,-20,-20,-19,-24,-26,-24,-22,-24,-23,-19,-23,-23,-24,-30,-30,-33,-35,-35,-34,-34,-42,-43,-46,-52,-51,-54,-50,-57,-67,-66,-41,-9,-14,-11,-6,-20,-33,-53,-66,-67,-62,-60,-63,-74,-212,-477,-378,285,1434,1072,56,-411,-499,-278,-167,-120,-95,-81,-75,-57,-52,-44,-29,-21,-3,6,22,40,50,75,95,116,134,138,139,149,145,117,100,77,54,27,0,-20,-28,-39,-38,-41,-41
2019-06-04,15:02:08.945,141,139,147,139,140,138,133,131,130,128,124,117,105,97,97,92,90,84,78,80,81,83,79,73,65,65,81,118,120,125,120,111,89,68,57,52,50,50,46,30,-57,-309,-318,151,1229,1357,188,-310,-481,-274,-95,-31,-5,9,19,30,36,49,64,69,83,94,104,119,140,159,184,209,232,237,237,241,243,233,208,173,140,110,79,52,33,35,21,16,7,1,-1,-2,-4,-7,-6,-8,1,-4,-5,-6,-13,-20,-23,-19,-25,-25,-30,-36,-45,-40,-38,-34,-47,-55,-56,-27,10,15,14,16,-2,-22,-49,-55,-57,-54,-63,-68,-81,-176,-368,-285
2019-06-04,15:02:09.969,329,1281,909,-161,-525,-624,-381,-144,-62,-41,-21,-2,9,26,33,45,50,66,71,91,113,131,166,192,224,247,258,261,256,247,228,195,153,105,74,41,14,-3,-16,-18,-19,-25,-26,-28,-27,-26,-24,-27,-21,-17,-17,-19,-30,-35,-36,-40,-44,-49,-48,-51,-55,-54,-57,-68,-68,-54,-9,-5,-2,-14,-37,-50,-69,-80,-90,-90,-86,-90,-98,-153,-366,-378,45,1007,1183,0,-509,-687,-446,-201,-128,-102,-73,-71,-55,-41,-31,-16,-8,9,17,36,54,72,98,124,150,175,185,195,193,195,180,149,106,65,33,-2,-20,-34,-46,-55,-59,-58,-61,-65,-66,-66
2019-06-04,15:02:10.994,-8,2,0,-3,-1,-2,-5,-5,-10,-10,-17,-20,-18,-23,-28,-28,-30,-29,-31,-32,-23,19,31,31,25,15,5,-22,-30,-35,-38,-41,-45,-51,-103,-325,-393,-56,877,1336,227,-358,-573,-362,-163,-97,-65,-50,-44,-33,-26,-15,-10,0,10,31,44,60,85,100,112,136,151,164,171,168,177,171,151,126,97,70,46,21,6,0,2,-4,-7,-10,-8,-6,-9,-4,-12,-12,-12,-14,-16,-17,-12,-21,-28,-29,-35,-28,-28,-34,-32,-36,-35,-31,-37,-40,-23,11,35,30,25,21,4,-22,-30,-32,-31,-37,-27,-31,-79,-317,-430,-94,841,1436,435,-192,-419,-230
2019-06-04,15:02:12.019,-143,-90,-79,-68,-62,-62,-55,-41,-34,-23,-12,-6,3,31,27,48,49,66,74,77,80,74,80,80,78,56,45,31,11,-5,-9,-15,-27,-26,-23,-24,-19,-16,-25,-30,-22,-29,-24,-28,-34,-30,-35,-42,-44,-46,-53,-50,-46,-52,-58,-48,-56,-61,-67,-72,-50,-12,-9,-7,-6,-18,-40,-57,-59,-65,-64,-70,-68,-74,-172,-463,-444,60,1136,1184,204,-357,-416,-222,-141,-104,-93,-78,-74,-53,-53,-41,-43,-29,-19,-4,-6,-2,4,5,0,3,0,-3,-8,-11,-12,-3,8,13,1,1,-3,1,-3,-12,-17,-15,-24,-24,-19,-27,-27,-22,-18,-28,-23,-24
2019-06-04,15:02:13.043,-45,-45,-41,-50,-50,-41,-45,-38,-42,-51,-47,-41,-47,-51,-43,-2,8,0,5,3,-14,-35,-46,-42,-41,-39,-45,-45,-105,-398,-507,-110,975,1578,582,-113,-333,-184,-108,-76,-65,-59,-70,-62,-53,-44,-38,-36,-35,-34,-34,-25,-26,-21,-18,-30,-31,-25,-30,-26,-13,-11,0,1,9,7,1,6,-3,0,-4,2,3,-5,1,11,4,6,9,-5,-6,-2,-4,-7,-14,-16,-16,-13,-16,-13,-11,-19,-24,-24,-15,16,31,31,34,21,1,-11,-17,-26,-35,-27,-28,-37,-84,-343,-490,-192,787,1591,727,13,-310,-175,-108,-79,-74,-61,-56,-49,-47,-44,-46,-40
2019-06-04,15:02:14.068,35,35,39,29,33,30,23,20,16,11,11,18,22,30,48,49,42,49,51,46,29,30,29,38,27,32,31,28,27,21,24,16,14,15,11,7,8,1,-3,-4,-2,-3,-3,-6,-6,18,41,45,54,45,35,14,-10,-18,-24,-20,-19,-21,-30,-110,-388,-403,82,1151,1307,320,-224,-377,-196,-102,-60,-52,-37,-39,-28,-21,-16,-11,-2,8,15,14,24,32,37,42,44,34,29,26,27,34,32,30,25,23,25,11,5,5,6,11,6,0,0,3,-3,-10,-14,-17,-16,-14,-25,-24,-19,-31,-28,-35,-30,-35,-38,-36,-19,18,23,17,12,0
2019-06-04,15:02:15.093,108,88,76,73,69,65,63,55,-8,-271,-320,81,1103,1454,455,-137,-353,-179,-45,11,35,41,47,54,61,64,74,80,90,98,101,106,113,124,127,136,137,131,136,131,126,124,118,111,92,73,64,43,37,29,21,17,19,18,17,12,10,12,6,1,-3,-4,-12,-9,-11,-23,-31,-42,-39,-28,11,21,23,12,0,-16,-41,-58,-59,-64,-70,-74,-75,-115,-321,-386,-50,824,1247,107,-407,-595,-478,-209,-139,-108,-83,-62,-52,-46,-30,-21,-5,4,22,32,52,68,89,116,140,152,160,165,165,159,143,116,87,62,30,12,-9,-20,-37,-48,-43,-47
2019-06-04,15:02:16.117,32,41,46,45,45,45,49,46,37,38,28,26,21,14,18,45,68,71,61,41,32,4,-14,-18,-20,-24,-24,-33,-52,-202,-280,-18,686,1242,239,-399,-645,-626,-286,-117,-62,-36,-23,-6,3,17,28,40,47,61,77,89,108,132,166,196,220,230,231,228,214,200,176,142,100,71,37,7,-4,-12,-24,-26,-31,-22,-31,-29,-17,-20,-16,-20,-14,-15,-26,-28,-33,-37,-47,-46,-46,-27,-3,1,6,-7,-31,-47,-69,-76,-74,-75,-80,-84,-97,-205,-354,-215,408,1229,492,-370,-692,-686,-357,-161,-101,-74,-59,-40,-33,-22,-6,8,20,39,50,69,97,127
2019-06-04,15:02:17.142,292,316,339,347,347,346,339,320,296,254,207,169,132,109,95,82,79,71,67,66,67,67,68,68,69,68,68,66,64,64,65,59,52,48,50,53,68,87,93,87,61,40,9,-15,-28,-31,-35,-38,-44,-50,-161,-338,-212,441,1318,629,-304,-679,-555,-239,-100,-55,-27,-13,-15,-3,8,7,22,29,49,63,79,93,112,137,155,180,190,197,203,201,194,168,141,106,64,38,8,-15,-17,-21,-30,-32,-30,-33,-35,-37,-31,-29,-29,-24,-34,-38,-42,-44,-45,-53,-54,-57,-59,-67,-68,-56,-20,-11,-8,-10,-20,-39,-56,-76,-85,-82,-90,-89,-91,-138
2019-06-04,15:02:18.167,-155,-183,219,1110,1215,83,-461,-534,-229,-41,29,48,65,73,84,89,92,104,115,117,133,146,157,179,202,220,245,255,261,272,267,262,246,221,180,144,108,79,61,41,34,30,29,33,32,36,40,40,43,46,42,43,42,30,24,17,7,3,2,4,2,2,-1,1,-1,-3,-3,-6,-9,-3,19,35,36,0,-2,-10,-31,-43,-35,-40,-36,-43,-49,-119,-322,-289,180,1063,880,-158,-598,-589,-283,-117,-62,-38,-24,-18,-15,-7,0,13,17,27,42,54,72,88,100,125,145,156,165,170,173,162,155,134,105,77,48,23,4,-6,-5,-15,-26,-20
2019-06-04,15:02:19.191,83,78,84,83,83,83,83,78,69,73,70,63,61,59,46,47,50,36,36,34,29,29,30,27,26,20,19,27,27,35,56,71,53,35,26,7,-12,-22,-23,-27,-25,-30,-66,-231,-324,-66,698,1171,116,-478,-668,-412,-163,-72,-43,-31,-16,-9,-1,7,12,24,42,47,59,75,88,109,126,141,161,170,170,166,166,155,144,113,91,68,38,14,1,-6,-13,-8,-13,-16,-15,-9,-6,-10,-8,-6,-5,-18,-13,-19,-25,-24,-37,-38,-40,-39,-40,-44,-45,-46,-49,-45,-47,-40,-47,-48,-49,-45,-45,-41,-32,-30,-8,15,4,-9,-12,-21,-36,-55
2019-06-04,15:02:20.216,-38,-38,-42,-43,-54,-122,-312,-268,204,1059,766,-211,-594,-590,-283,-113,-58,-37,-24,-16,-8,-1,7,19,26,37,55,62,69,87,110,134,143,152,154,150,151,153,134,112,93,79,50,27,13,4,-7,-11,-11,-10,-8,-16,-14,-13,-13,-13,-10,-6,-12,-13,-14,-20,-22,-23,-29,-41,-47,-40,-37,-38,-42,-41,-40,-42,-37,-37,-41,-49,-44,-47,-44,-27,-23,-14,16,5,-6,-13,-18,-36,-50,-59,-62,-63,-63,-83,-227,-379,-192,488,1225,338,-329,-591,-459,-191,-91,-54,-47,-37,-16,-12,-11,-1,12,24,35,43,59,68,81,102,117,135,132,126,133,126
2019-06-04,15:02:21.241,58,51,41,19,-1,-19,-28,-39,-58,-58,-59,-64,-59,-62,-62,-63,-57,-51,-49,-48,-42,-48,-60,-60,-64,-60,-66,-65,-70,-70,-69,-75,-72,-78,-79,-74,-73,-73,-70,-69,-66,-44,-4,-5,3,-11,-18,-36,-55,-63,-63,-67,-73,-75,-86,-210,-387,-263,344,1195,563,-206,-530,-485,-229,-124,-79,-59,-43,-36,-25,-21,-17,1,6,18,33,48,62,77,94,103,118,128,132,130,132,130,117,103,80,66,44,21,11,8,2,-4,-6,-4,-3,-4,-4,-7,-9,-2,-4,-2,-9,-5,-9,-16,-14,-19,-20,-17,-17,-26,-24,-29,-32,-32,-29,-26,-31,-31,-11,29
2019-06-04,15:02:22.265,-61,-59,-63,-78,-94,-111,-133,-123,-121,-126,-125,-146,-296,-447,-279,389,1170,385,-286,-578,-505,-259,-166,-119,-98,-87,-78,-70,-63,-52,-44,-31,-14,1,3,25,42,57,75,83,93,94,98,95,95,92,68,57,27,7,-5,-17,-27,-30,-44,-41,-37,-34,-37,-31,-26,-27,-26,-25,-26,-32,-34,-37,-40,-44,-39,-41,-44,-49,-49,-48,-53,-53,-57,-61,-57,-30,6,11,22,4,-9,-36,-52,-64,-70,-65,-67,-66,-77,-236,-399,-215,463,1234,410,-248,-547,-454,-209,-119,-81,-56,-43,-37,-30,-16,-5,5,18,33,41,57,72,86,100,117,135,138,141,147,139,134
2019-06-04,15:02:23.290,21,6,-21,-41,-60,-84,-87,-102,-111,-107,-104,-114,-109,-103,-98,-104,-94,-95,-96,-96,-92,-91,-94,-91,-94,-98,-92,-94,-100,-102,-97,-90,-92,-96,-93,-93,-63,-26,-28,-25,-33,-38,-66,-84,-81,-93,-92,-90,-92,-115,-296,-417,-187,569,1210,232,-347,-593,-434,-207,-135,-94,-75,-63,-50,-44,-35,-20,-17,-6,5,20,31,53,66,91,111,112,122,130,128,132,130,116,98,73,56,30,14,-5,-13,-17,-17,-18,-20,-17,-13,-10,-16,-8,-8,-13,-13,-11,-13,-22,-24,-22,-27,-31,-33,-34,-38,-34,-33,-38,-44,-44,-27,17,23,33,26,8,-12,-37,-42,-42
2019-06-04,15:02:24.315,-162,-152,-157,-175,-288,-482,-371,208,1098,529,-282,-618,-578,-318,-212,-158,-138,-124,-107,-100,-94,-84,-72,-56,-51,-38,-14,0,17,37,48,69,82,84,92,92,89,79,61,43,13,-3,-18,-36,-51,-50,-53,-56,-51,-53,-50,-46,-48,-48,-42,-41,-43,-44,-44,-48,-49,-44,-55,-50,-59,-60,-61,-55,-55,-60,-59,-61,-66,-54,-16,5,4,9,-7,-18,-44,-60,-65,-62,-61,-61,-70,-104,-294,-387,-120,691,1200,176,-369,-577,-381,-173,-99,-73,-58,-47,-34,-24,-21,-8,6,13,24,35,44,60,81,98,114,128,137,141,148,140,137,123,99,76,55,33,13,-2
2019-06-04,15:02:25.339,-133,-132,-137,-143,-135,-133,-133,-134,-124,-119,-123,-122,-118,-113,-114,-112,-120,-126,-118,-124,-123,-117,-117,-115,-111,-114,-115,-119,-118,-119,-92,-59,-52,-44,-55,-65,-86,-101,-106,-112,-107,-114,-110,-119,-240,-436,-330,253,1139,578,-235,-580,-522,-268,-159,-109,-93,-84,-75,-63,-47,-44,-30,-19,-13,2,20,36,51,73,94,109,113,121,123,127,125,112,91,68,51,31,10,-6,-18,-17,-24,-30,-27,-28,-28,-28,-25,-19,-17,-24,-20,-21,-23,-29,-28,-30,-33,-31,-30,-29,-34,-38,-33,-40,-39,-40,-32,-24,18,32,27,27,21,-1,-33,-43,-40,-47,-53,-47,-55,-96
2019-06-04,15:02:26.364,-447,-520,-209,657,1044,11,-496,-659,-448,-270,-197,-172,-156,-147,-134,-126,-116,-104,-97,-90,-66,-61,-49,-32,-16,7,29,40,46,52,61,65,58,44,25,8,-14,-30,-50,-63,-66,-73,-72,-75,-78,-78,-78,-70,-75,-69,-62,-62,-63,-66,-66,-65,-69,-75,-73,-73,-77,-73,-66,-74,-82,-80,-81,-84,-50,-22,-24,-21,-26,-40,-60,-78,-80,-83,-86,-83,-84,-101,-230,-427,-307,311,1186,570,-212,-561,-474,-251,-145,-101,-82,-71,-66,-53,-47,-42,-34,-27,-10,6,21,29,47,65,82,96,114,114,120,119,116,108,87,64,41,15,2,-15,-25,-33,-44,-41,-49,-52
2019-06-04,15:02:27.389,-154,-149,-145,-139,-146,-146,-139,-138,-140,-138,-142,-144,-140,-141,-141,-144,-142,-135,-132,-133,-132,-138,-136,-125,-90,-75,-67,-67,-84,-102,-121,-136,-134,-138,-134,-135,-142,-194,-381,-388,22,886,943,-136,-560,-686,-458,-225,-156,-125,-102,-87,-73,-63,-51,-37,-24,-12,-4,18,31,56,76,98,120,144,155,164,162,162,149,127,98,64,37,12,-13,-31,-40,-46,-48,-46,-53,-52,-49,-47,-43,-32,-30,-35,-28,-29,-23,-25,-29,-40,-41,-41,-40,-42,-47,-49,-45,-57,-47,-9,13,12,20,1,-16,-36,-54,-51,-54,-62,-63,-63,-92,-263,-379,-141,636,1260,221,-409,-660,-485
2019-06-04,15:02:28.413,-332,-229,-197,-180,-161,-150,-138,-123,-114,-98,-87,-67,-49,-32,-11,5,34,58,76,96,90,90,95,89,71,42,15,-12,-43,-52,-68,-85,-86,-86,-88,-94,-93,-85,-76,-81,-81,-74,-71,-65,-66,-65,-61,-73,-73,-71,-76,-82,-76,-75,-79,-79,-78,-82,-85,-79,-65,-28,-16,-5,-15,-25,-48,-71,-78,-77,-81,-81,-84,-87,-144,-365,-385,13,921,1021,-61,-528,-617,-347,-162,-99,-78,-65,-47,-41,-32,-27,-15,-4,13,18,34,51,68,87,115,133,148,159,160,158,164,159,144,116,83,66,39,14,1,-6,-10,-18,-20,-18,-12,-14,-16,-11,-8,0,-2,-5
2019-06-04,15:02:29.438,-123,-128,-132,-135,-133,-135,-137,-134,-132,-130,-136,-138,-132,-134,-144,-137,-125,-85,-64,-61,-62,-69,-87,-111,-121,-130,-129,-130,-128,-132,-169,-356,-443,-156,655,1121,65,-494,-667,-435,-219,-140,-117,-103,-85,-72,-63,-55,-43,-34,-25,-14,-1,20,35,56,72,93,114,121,127,131,129,124,115,93,65,42,13,-6,-16,-24,-27,-38,-36,-34,-33,-34,-30,-25,-19,-17,-19,-20,-15,-20,-19,-25,-27,-31,-31,-28,-31,-37,-39,-45,-37,-34,-34,-38,-39,-32,-15,27,31,31,20,14,-9,-33,-39,-42,-44,-43,-39,-47,-125,-338,-313,151,1062,862,-121,-515,-522,-250,-101,-52
2019-06-04,15:02:30.463,-115,-98,-85,-79,-72,-63,-49,-39,-31,-14,-3,13,30,52,70,90,102,110,107,109,114,107,92,71,51,24,1,-16,-30,-43,-47,-54,-55,-47,-48,-48,-48,-43,-39,-45,-46,-42,-45,-52,-55,-56,-59,-60,-66,-69,-66,-70,-72,-73,-74,-78,-82,-76,-63,-23,-15,-18,-19,-34,-56,-74,-88,-93,-87,-97,-96,-104,-182,-392,-356,127,1019,753,-204,-583,-584,-309,-168,-113,-93,-81,-68,-61,-55,-47,-39,-34,-17,-4,3,24,39,60,76,88,100,109,109,111,105,99,78,57,37,18,-8,-24,-35,-45,-49,-54,-54,-47,-41,-46,-46,-41,-40,-34,-44,-39,-42,-46
2019-06-04,15:02:31.487,-154,-153,-150,-157,-158,-155,-159,-155,-157,-152,-151,-159,-151,-150,-139,-99,-71,-73,-71,-79,-99,-124,-133,-130,-130,-128,-122,-125,-169,-377,-417,-84,781,1042,-9,-482,-599,-360,-191,-116,-99,-83,-69,-63,-51,-45,-32,-20,-13,-1,13,21,40,58,76,95,106,111,115,112,119,121,113,94,72,57,33,17,5,0,-3,-9,-13,-13,-5,-7,-13,-8,-6,-3,5,-1,-11,-9,-11,-4,-5,-2,-10,-12,-14,-17,-16,-27,-23,-12,23,49,49,57,42,15,-10,-23,-27,-17,-26,-26,-25,-55,-242,-369,-120,657,1270,316,-282,-512,-321,-146,-65,-40,-27,-15,-9,-1,1,12
2019-06-04,15:02:32.512,29,30,45,60,67,77,93,110,123,136,142,144,145,139,141,132,116,96,64,46,26,13,-3,-1,-4,-10,-7,-6,-13,-6,-7,-9,-10,-10,-11,-22,-21,-23,-25,-23,-24,-30,-35,-43,-42,-40,-49,-49,-51,-10,14,5,14,2,-11,-44,-57,-59,-71,-65,-73,-72,-96,-260,-349,-77,692,1237,163,-410,-627,-511,-213,-117,-74,-56,-38,-27,-20,-8,5,15,25,37,55,65,77,103,123,148,162,168,176,170,170,166,145,119,90,57,33,15,-9,-13,-22,-26,-30,-25,-20,-16,-27,-24,-22,-21,-19,-17,-19,-24,-26,-27,-27,-27,-36,-37,-41,-49,-52,-42
2019-06-04,15:02:33.537,65,107,103,106,98,84,54,24,14,12,11,7,-3,-10,-91,-320,-274,221,1165,928,-48,-464,-475,-213,-80,-36,-18,-2,-3,10,18,23,25,45,49,58,67,83,95,112,126,140,153,158,160,164,153,144,127,105,79,54,46,20,13,3,-1,-4,-5,-5,-5,1,-2,-6,-3,-4,-2,-9,-2,-7,-20,-20,-16,-14,-25,-31,-35,-48,-47,-43,-3,19,23,15,6,-12,-42,-55,-58,-60,-60,-65,-62,-90,-251,-412,-232,469,1252,419,-276,-541,-373,-192,-120,-92,-71,-60,-59,-48,-39,-32,-27,-14,-6,-2,21,33,45,63,73,84,94,96,94,96,94,84
2019-06-04,15:02:34.561,273,242,222,206,181,163,153,148,144,134,135,131,126,126,130,127,122,121,121,114,111,101,94,87,82,85,85,76,68,62,55,65,104,116,101,110,105,87,56,39,34,28,14,19,18,0,-131,-346,-234,373,1278,759,-36,-402,-310,-124,-57,-16,-6,3,2,9,15,24,27,39,47,56,65,83,86,96,105,114,122,124,128,119,115,114,102,92,69,53,36,25,16,4,1,4,-6,-9,-4,-1,-4,-14,-5,-10,-12,-11,-13,-16,-20,-16,-20,-27,-30,-32,-37,-43,-49,-52,-41,-6,-1,-6,-2,-14,-33,-50,-60,-54,-58,-57,-58,-60,-101,-329
2019-06-04,15:02:35.586,-243,45,909,1415,477,-107,-300,-107,11,69,90,94,102,101,104,116,119,122,132,137,140,152,162,169,179,199,187,195,201,194,194,186,170,166,135,127,117,86,68,70,72,53,51,55,38,50,56,36,33,36,17,20,21,12,1,5,-7,-6,-4,-12,-15,-29,-31,-33,-53,-52,-48,-26,-4,-11,-6,-16,-30,-48,-69,-69,-72,-77,-80,-83,-96,-232,-433,-323,272,1175,641,-143,-506,-447,-234,-150,-93,-74,-63,-57,-57,-40,-33,-30,-18,-6,1,15,30,40,63,85,106,99,104,113,126,124,119,110,86,69,52,30,19,9,1,-1,2,1,-3,-7
2019-06-04,15:02:36.611,115,107,103,96,89,89,82,77,75,72,71,70,67,62,57,54,43,42,54,96,101,99,92,75,43,23,4,5,-9,-8,-9,-24,-62,-266,-335,0,913,1288,155,-379,-562,-363,-165,-91,-54,-30,-20,-10,4,11,22,28,33,47,58,70,87,111,142,164,183,194,198,199,198,190,164,135,104,70,40,16,2,-7,-13,-20,-23,-25,-27,-29,-21,-16,-15,-8,-13,-15,-17,-21,-28,-30,-31,-38,-43,-50,-61,-61,-68,-71,-58,-12,-13,-10,-9,-23,-47,-62,-78,-85,-83,-85,-84,-91,-127,-342,-412,-93,766,1200,141,-374,-530,-330,-167,-109,-84,-67,-61,-54
2019-06-04,15:02:37.635,109,112,127,131,137,145,161,167,171,192,203,217,222,230,235,229,227,225,214,196,176,150,133,117,103,95,87,81,81,78,85,80,77,73,70,71,67,61,49,48,40,33,23,21,23,22,20,20,16,15,22,54,61,70,58,57,32,7,-8,-14,-15,-12,-18,-27,-50,-228,-396,-188,561,1300,469,-203,-440,-280,-164,-85,-21,-7,-17,-26,-32,-37,-40,-51,-57,-42,-31,-15,3,36,60,78,90,100,112,110,108,103,89,85,70,51,29,15,5,0,-6,-10,-21,-18,-16,-11,-11,-8,-8,-8,-10,-2,-11,-9,-9,-16,-17,-18,-28,-29,-25,-32
2019-06-04,15:02:38.660,33,33,20,9,1,44,69,77,68,71,51,25,10,3,-3,-8,-18,-19,-59,-284,-415,-160,687,1366,494,-116,-310,-145,-94,-38,-32,-23,-21,-18,-13,-8,0,1,11,30,34,40,48,53,62,61,69,75,75,80,82,85,80,70,60,45,23,13,10,-5,-15,-19,-17,-20,-22,-29,-30,-31,-31,-31,-36,-26,-29,-37,-39,-41,-47,-49,-50,-56,-59,-73,-62,-65,-61,-52,-16,-3,-12,-28,-34,-56,-75,-78,-79,-81,-79,-76,-81,-164,-421,-426,10,1006,1074,89,-423,-531,-312,-187,-122,-91,-76,-67,-54,-42,-29,-36,-17,-7,7,16,22,42,57,69,89,91
2019-06-04,15:02:39.685,147,150,145,147,149,130,118,93,79,53,32,24,9,1,-4,-4,-4,-8,-6,-9,-8,-5,-17,-15,-12,-12,-14,-20,-15,-19,-22,-31,-39,-32,-32,-2,28,27,25,12,0,-19,-44,-43,-48,-55,-52,-52,-63,-173,-380,-289,300,1235,714,-169,-540,-544,-273,-135,-74,-73,-58,-41,-32,-25,-15,-3,7,18,35,48,55,72,91,102,123,136,129,131,129,128,114,98,75,56,35,10,-4,-20,-22,-29,-40,-37,-40,-43,-43,-40,-34,-38,-27,-25,-30,-23,-41,-38,-43,-41,-41,-48,-46,-37,-11,15,20,9,-1,-10,-32,-53,-59,-60,-69,-74,-69,-84,-224,-385
2019-06-04,15:02:40.709,-220,475,1284,410,-345,-646,-590,-285,-153,-112,-84,-70,-62,-51,-41,-32,-19,-8,9,20,42,54,72,93,114,128,137,143,141,144,144,126,104,79,48,26,9,-8,-22,-28,-31,-36,-28,-29,-34,-30,-29,-26,-21,-22,-21,-16,-23,-21,-21,-26,-28,-35,-30,-29,-29,8,24,30,15,7,-14,-38,-53,-49,-55,-55,-57,-61,-95,-274,-375,-106,723,1267,164,-417,-642,-453,-191,-104,-68,-52,-32,-27,-24,-8,0,9,16,25,41,58,74,92,110,133,144,156,159,154,153,160,145,120,99,73,43,21,5,-1,-8,-12,-9,-18,-17,-14,-18,-16,-17,-15,-17,-15
2019-06-04,15:02:41.734,-112,-121,-125,-118,-126,-126,-126,-118,-117,-101,-69,-60,-57,-79,-85,-103,-130,-137,-140,-142,-144,-141,-147,-211,-430,-435,-5,961,1031,-62,-544,-660,-418,-217,-149,-124,-109,-95,-82,-75,-70,-66,-53,-40,-30,-18,-2,17,41,56,68,85,90,90,93,94,91,84,60,33,13,-10,-25,-34,-51,-52,-49,-51,-52,-46,-52,-49,-44,-38,-40,-46,-44,-39,-35,-36,-46,-52,-52,-46,-42,-13,10,28,16,0,-11,-35,-52,-57,-68,-66,-67,-73,-91,-215,-421,-298,363,1304,647,-227,-609,-508,-252,-146,-107,-92,-74,-67,-64,-49,-39,-35,-28,-15,-9,8,24,36,58,76,76,88
2019-06-04,15:02:42.759,19,23,24,22,23,8,-13,-29,-48,-66,-80,-89,-100,-106,-99,-104,-103,-96,-89,-89,-89,-82,-75,-87,-83,-82,-88,-87,-92,-94,-95,-96,-96,-90,-71,-48,-29,-34,-45,-56,-82,-97,-101,-102,-103,-110,-113,-122,-259,-458,-312,372,1291,601,-226,-598,-458,-239,-150,-109,-89,-72,-69,-63,-54,-48,-30,-27,-13,-2,15,22,33,53,57,71,79,80,72,76,79,76,63,55,36,25,2,-14,-24,-21,-24,-32,-30,-25,-22,-30,-21,-12,-15,-19,-16,-19,-28,-32,-29,-30,-31,-37,-32,-34,-34,-16,3,19,26,9,4,-18,-40,-48,-50,-49,-51,-53,-63,-169,-410,-334
2019-06-04,15:02:43.783,134,1123,784,-141,-573,-563,-329,-218,-168,-150,-135,-129,-116,-110,-98,-84,-78,-60,-59,-40,-26,-13,5,7,20,30,32,34,37,38,36,30,12,5,-9,-29,-33,-49,-54,-57,-61,-55,-50,-49,-48,-41,-44,-42,-39,-43,-42,-47,-47,-41,-47,-50,-49,-54,-62,-62,-53,-32,-7,2,-3,-9,-13,-38,-60,-67,-67,-64,-62,-60,-77,-228,-421,-263,452,1324,582,-180,-526,-423,-204,-112,-73,-59,-42,-25,-29,-16,-3,5,13,22,38,53,62,75,94,102,114,117,120,114,115,119,115,100,84,68,52,37,18,14,9,1,0,3,-1,-3,0,-3,0,4,0,-5
2019-06-04,15:02:44.808,-92,-93,-100,-101,-97,-95,-97,-99,-95,-98,-90,-71,-45,-29,-39,-51,-56,-73,-93,-102,-101,-96,-101,-101,-124,-293,-456,-252,508,1293,421,-275,-580,-446,-228,-140,-104,-89,-69,-63,-55,-43,-38,-29,-20,-11,3,16,36,47,57,71,79,85,87,87,90,91,86,67,52,36,20,4,-4,-13,-22,-28,-33,-42,-42,-35,-38,-31,-32,-37,-38,-42,-34,-36,-41,-37,-42,-41,-43,-43,-47,-53,-44,-35,-10,7,13,-6,-9,-22,-44,-59,-63,-61,-70,-72,-74,-123,-348,-393,-5,909,1143,81,-424,-574,-350,-176,-98,-75,-53,-40,-33,-25,-22,-6,1,9,12,30,49,59
2019-06-04,15:02:45.833,-27,-9,2,14,17,25,30,23,26,28,1,-25,-39,-57,-76,-88,-94,-98,-106,-108,-105,-97,-100,-93,-88,-78,-78,-77,-74,-82,-85,-79,-84,-85,-82,-86,-90,-89,-84,-78,-58,-39,-22,-34,-39,-47,-71,-87,-94,-95,-96,-91,-93,-115,-288,-416,-182,595,1288,280,-359,-621,-467,-218,-133,-93,-77,-53,-50,-46,-30,-24,-13,-4,11,27,37,53,70,86,101,116,126,125,129,130,124,119,100,79,54,27,13,-3,-12,-19,-26,-32,-23,-24,-26,-23,-18,-13,-14,-13,-16,-17,-10,-26,-27,-22,-27,-39,-41,-34,-37,-37,-21,6,25,4,-3,-10,-35,-51,-60,-66
2019-06-04,15:02:46.857,-167,-161,-158,-176,-324,-517,-358,347,1253,530,-252,-607,-496,-286,-194,-157,-134,-125,-114,-101,-92,-86,-75,-63,-59,-43,-34,-14,5,11,29,37,40,47,48,49,52,54,37,27,13,-14,-23,-37,-48,-46,-52,-52,-58,-51,-52,-49,-42,-44,-47,-48,-48,-50,-51,-50,-45,-52,-55,-48,-52,-49,-48,-48,-34,-16,2,10,-4,-2,-10,-38,-58,-52,-56,-54,-55,-58,-111,-341,-419,-67,893,1323,335,-269,-495,-293,-161,-92,-62,-58,-47,-39,-32,-25,-23,-24,-13,0,-2,16,22,37,45,40,45,52,43,52,59,54,47,46,42,31,11,1,-4,-5,-12,-16,-25,-23
2019-06-04,15:02:47.882,-115,-115,-110,-114,-106,-113,-107,-103,-104,-107,-111,-113,-107,-111,-104,-109,-119,-98,-89,-90,-84,-69,-63,-46,-48,-46,-70,-79,-88,-86,-86,-80,-77,-80,-169,-342,-285,272,1157,626,-162,-477,-390,-196,-134,-112,-94,-85,-77,-77,-66,-60,-51,-34,-14,7,18,40,58,76,99,122,146,158,165,171,170,174,157,135,110,80,57,30,15,0,-8,-11,-16,-13,-19,-20,-19,-21,-25,-27,-27,-28,-29,-26,-22,-14,6,26,57,90,97,86,77,78,74,62,22,-22,-49,-87,-109,-114,-132,-157,-177,-215,-327,-474,-316,257,982,300,-492,-799,-757,-435,-244,-139,-66,-34,-39,-45
2019-06-04,15:02:48.907,-150,-140,-137,-147,-154,-140,-102,-67,-34,-3,25,52,72,84,91,92,87,68,50,26,-4,-31,-59,-78,-87,-102,-107,-107,-104,-100,-100,-99,-96,-82,-69,-69,-71,-60,-60,-52,-40,-39,-45,-43,-41,-18,-1,3,1,-19,-44,-64,-78,-85,-90,-90,-90,-90,-126,-217,-160,200,717,492,-296,-521,-603,-448,-174,-96,-69,-44,-33,-27,-11,1,12,19,44,72,70,75,81,97,120,142,163,174,175,160,146,139,115,87,65,48,33,9,-4,-15,-25,-25,-29,-24,-8,-12,-8,0,9,12,11,14,12,7,2,-12,-18,-23,2,7,0,5,-13,-31,-54,-69,-79,-83
2019-06-04,15:02:49.931,-195,-197,-206,-241,-298,-217,123,500,169,-413,-590,-664,-592,-331,-222,-198,-179,-164,-148,-137,-119,-111,-101,-94,-84,-76,-62,-36,-13,7,24,40,53,55,52,43,29,17,0,-22,-39,-59,-66,-73,-76,-78,-77,-74,-68,-58,-51,-41,-32,-26,-18,-17,-20,-22,-25,-29,-32,-37,-38,-39,-37,-23,12,24,25,18,4,-9,-23,-30,-33,-38,-33,-30,-37,-102,-177,-53,392,905,309,-355,-543,-503,-218,-56,-12,-5,4,10,27,37,43,57,67,72,101,91,109,115,129,171,194,195,155,155,148,124,89,56,62,44,36,-24,6,32,0,-16,-10,28,26,38,41,28
2019-06-04,15:02:50.956,8,6,16,7,16,-6,-10,-2,-2,-29,-8,-15,-39,-40,-61,-68,-78,-98,-103,-121,-142,-166,-177,-180,-182,-166,-159,-153,-164,-242,-413,-327,173,1039,866,102,-278,-396,-187,-61,-47,-50,-47,-40,-33,-27,-23,-20,-6,7,25,46,61,71,92,114,120,122,120,113,102,89,78,78,90,95,82,58,29,5,-3,3,12,10,2,-2,-2,0,0,3,7,10,10,13,10,3,1,3,-4,-13,-23,-15,1,25,30,36,22,4,-14,-41,-60,-77,-82,-84,-76,-79,-184,-404,-358,126,1082,947,43,-456,-531,-358,-269,-189,-137,-106,-99,-114,-135,-147,-144,-103,-50,1
2019-06-04,15:02:51.981,102,112,129,149,160,168,178,179,171,173,177,171,162,146,130,113,98,86,75,68,68,68,67,66,69,69,61,66,62,45,44,32,23,25,23,22,4,9,4,1,20,25,37,42,23,18,-7,-21,-22,-21,-27,-34,-29,-54,-228,-430,-307,325,1350,959,212,-217,-284,-141,-101,-76,-80,-63,-55,-46,-34,-36,-45,-56,-40,-31,-37,-28,-22,-10,-1,-19,2,18,-35,-49,-49,-68,-11,-73,-17,-12,-53,-16,-12,-15,-39,-28,-44,-40,0,8,14,-1,-17,-35,-38,-41,-37,-35,-29,-26,-37,-42,-44,-45,-40,-25,-23,-33,-48,-74,-82,-92,-96,-98,-96,-92
2019-06-04,15:02:53.005,-35,-68,-249,-363,-115,703,1602,1015,332,-65,-169,-35,12,33,36,48,48,65,79,84,86,97,107,110,106,112,117,114,123,138,140,141,147,148,146,142,125,93,62,45,16,9,-7,-2,6,5,18,24,40,49,32,3,-39,-106,-192,-221,-209,-229,-261,-247,-260,-267,-292,-297,-290,-269,-197,-134,-105,-99,-78,-71,-75,-74,-76,-86,-255,-415,-201,601,1322,523,-77,-288,-292,-86,8,43,51,46,51,76,95,72,77,70,55,48,32,30,37,55,63,83,112,132,115,109,72,42,1,-38,-84,-127,-142,-153,-152,-126,-90,-70,-57,-44,-21,-5,4,30,26,6
2019-06-04,15:02:54.030,-14,-40,-30,-63,-78,-119,-174,-231,-227,-174,-147,-107,-68,-18,43,98,78,-1,-108,-215,-295,-439,-607,-415,321,1428,1053,214,-177,-272,-140,-90,-123,-184,-221,-225,-215,-188,-150,-99,-65,-45,-29,9,49,73,105,135,158,180,189,188,170,138,112,105,102,106,117,121,92,41,37,45,54,70,82,79,59,38,26,8,-13,-29,-40,-43,-47,-42,-42,-43,-51,-25,0,-6,3,2,-26,-51,-53,-50,-65,-61,-66,-90,-248,-500,-359,296,1372,1083,322,-115,-210,-118,-93,-89,-82,-65,-65,-57,-49,-23,2,16,23,17,13,21,33,45,41,36,23,12,2,-7,-18,-20
2019-06-04,15:02:55.055,-3,-22,-30,-35,-41,-39,-24,-17,-2,19,36,52,53,61,62,56,48,35,15,2,-4,-9,-18,-18,-17,-15,-30,-20,8,17,16,19,-3,-36,-48,-53,-55,-59,-61,-67,-163,-443,-460,-5,1056,1353,533,5,-204,-138,-122,-116,-116,-122,-116,-114,-103,-99,-94,-84,-80,-75,-77,-73,-64,-57,-36,-26,-11,-6,-9,-6,4,16,21,14,3,-6,-13,-25,-34,-40,-37,-32,-34,-27,-18,-13,-15,-8,-11,-12,-11,-10,-8,-15,-19,-20,-3,-4,-2,41,78,83,80,62,31,0,-26,-59,-67,-74,-85,-126,-346,-507,-269,540,1373,555,-37,-313,-301,-133,-109,-106,-100,-95
2019-06-04,15:02:56.079,-95,-88,-75,-57,-44,-27,-12,-1,7,18,37,49,68,83,89,92,98,94,92,85,73,55,38,24,17,9,6,1,7,7,6,3,0,3,-4,-10,-13,-16,-19,-31,-42,-48,-43,-41,-36,-30,-41,-11,25,29,22,15,-17,-50,-67,-75,-78,-79,-73,-97,-238,-492,-398,208,1292,1082,258,-182,-293,-177,-131,-122,-115,-104,-96,-85,-72,-61,-52,-43,-41,-33,-21,-13,4,18,31,39,49,51,53,53,53,49,48,33,20,4,-11,-24,-25,-28,-29,-23,-21,-20,-19,-17,-19,-18,-23,-29,-27,-33,-39,-38,-39,-45,-38,-34,-29,-33,-25,17,23,27,24,0
2019-06-04,15:02:57.104,-25,-45,-51,-60,-64,-67,-75,-154,-429,-473,-83,926,1419,506,-34,-279,-205,-128,-110,-113,-108,-100,-85,-65,-54,-55,-52,-42,-41,-34,-20,-13,5,16,37,36,31,37,34,34,44,41,34,16,5,-5,-10,-18,-29,-26,-22,-23,-19,-22,-24,-23,-13,-13,-14,-21,-23,-25,-24,-22,-24,-22,-28,-34,-32,-34,-35,2,24,20,19,8,-27,-56,-57,-59,-60,-65,-72,-110,-339,-517,-297,530,1485,806,134,-233,-228,-137,-109,-99,-101,-100,-88,-80,-68,-63,-56,-46,-48,-35,-25,-9,2,16,26,33,37,37,34,39,42,42,40,29,20,7,0,-8,-20,-21,-19,-21
2019-06-04,15:02:58.128,-11,-12,-12,-14,-16,-17,-21,-24,-34,-31,-31,-38,-42,-46,-48,-49,-46,-45,-42,-34,-39,-19,19,25,26,31,2,-29,-52,-59,-59,-65,-69,-83,-194,-478,-442,67,1155,1247,382,-111,-257,-160,-115,-101,-101,-101,-91,-77,-73,-64,-46,-40,-37,-26,-22,-14,-8,5,18,24,31,31,35,39,44,46,42,43,32,14,3,-7,-17,-19,-15,-10,-11,-7,-4,-7,-7,-12,-14,-15,-26,-25,-31,-29,-35,-40,-40,-40,-39,-43,-45,-41,-30,-36,-26,11,31,32,34,17,-20,-45,-56,-57,-56,-62,-68,-120,-382,-489,-183,744,1455,629,41,-247,-191,-122,-101,-95,-94,-85
2019-06-04,15:02:59.153,-87,-77,-70,-59,-47,-47,-38,-24,-24,-18,-4,5,13,15,22,19,19,26,28,32,26,19,3,-5,-12,-22,-29,-31,-25,-14,-16,-17,-18,-19,-18,-20,-23,-23,-30,-33,-34,-40,-38,-37,-38,-41,-43,-42,-44,-49,-44,-34,-25,-25,-2,33,37,40,37,8,-28,-39,-50,-57,-53,-56,-80,-247,-491,-372,274,1343,1020,254,-168,-221,-121,-95,-93,-86,-80,-74,-64,-54,-43,-37,-31,-30,-22,-11,-7,0,11,18,28,33,38,36,35,37,40,39,37,23,12,-2,-7,-12,-21,-18,-17,-7,-8,-7,-8,-9,-12,-15,-19,-21,-23,-29,-26,-32,-34,-33,-32,-33
2019-06-04,15:03:00.178,-57,-57,-56,-57,-57,-50,-35,-38,-32,9,26,22,24,12,-24,-48,-59,-63,-68,-74,-79,-152,-422,-495,-135,837,1386,540,-1,-244,-171,-121,-100,-105,-99,-92,-83,-69,-58,-48,-42,-41,-33,-21,-14,-7,4,10,16,28,22,22,19,20,23,23,21,19,17,0,-12,-17,-24,-24,-22,-17,-13,-14,-13,-17,-14,-19,-26,-18,-24,-28,-31,-36,-40,-39,-36,-34,-38,-35,-36,-48,-42,-37,-30,-19,-23,-11,24,41,44,41,25,-14,-39,-45,-49,-52,-53,-61,-126,-397,-475,-131,832,1407,566,22,-231,-165,-106,-94,-94,-89,-82,-79,-64,-50,-44,-45,-43,-33,-28,-27
2019-06-04,15:03:01.202,-13,-4,3,10,15,18,13,19,24,26,31,25,18,7,-5,-11,-18,-21,-18,-17,-15,-8,-9,-6,-10,-12,-11,-21,-25,-29,-31,-25,-31,-34,-37,-36,-42,-43,-40,-43,-42,-44,-43,-44,-45,-30,-16,-27,-11,27,41,38,34,14,-23,-41,-47,-50,-48,-55,-61,-150,-434,-457,-35,993,1318,465,-36,-227,-146,-106,-88,-81,-80,-72,-66,-59,-50,-39,-27,-29,-21,-13,-4,6,11,16,26,34,36,30,27,33,42,44,41,30,21,7,0,-3,-12,-3,-8,0,-2,2,-2,-8,-3,-4,-10,-14,-17,-11,-14,-19,-18,-21,-22,-23,-29,-27,-28,-28,-27,-26
2019-06-04,15:03:02.227,-29,-28,-27,-18,-15,-10,27,43,42,36,26,-8,-41,-46,-44,-41,-47,-54,-109,-365,-478,-195,704,1444,655,82,-208,-162,-98,-85,-82,-84,-74,-66,-62,-52,-47,-38,-35,-31,-21,-14,-7,-1,13,17,18,24,24,20,30,41,46,47,34,22,12,5,0,-8,-14,-7,-13,-14,-8,-10,-16,-21,-25,-27,-30,-33,-32,-31,-35,-34,-36,-40,-44,-39,-39,-44,-44,-41,-42,-40,-37,-29,-24,-18,10,26,32,35,19,-6,-39,-55,-64,-60,-57,-67,-111,-336,-428,-147,683,1350,473,-112,-388,-323,-150,-110,-88,-78,-70,-54,-47,-37,-24,-17,-9,-1,1,16,30,49
2019-06-04,15:03:03.252,68,81,98,101,108,110,108,109,106,89,66,40,23,0,-6,-12,-16,-17,-20,-21,-24,-23,-21,-23,-23,-19,-20,-23,-24,-28,-30,-31,-31,-33,-36,-41,-41,-42,-48,-46,-32,-26,-29,-17,13,20,21,22,2,-28,-54,-57,-58,-56,-61,-72,-134,-360,-410,-67,831,1323,369,-192,-456,-329,-152,-105,-86,-74,-65,-48,-35,-31,-20,-18,-1,11,16,34,48,67,84,94,110,117,118,121,117,108,108,87,54,21,5,-8,-24,-28,-23,-22,-22,-20,-18,-20,-25,-20,-21,-18,-21,-19,-21,-24,-19,-27,-35,-34,-34,-37,-39,-38,-37,-42,-39,-28,-20,-23,-13,23
2019-06-04,15:03:04.276,43,41,38,14,-18,-38,-41,-41,-44,-43,-51,-106,-364,-468,-149,766,1425,553,-61,-303,-190,-116,-85,-83,-69,-63,-58,-51,-39,-31,-32,-25,-18,-10,-4,11,21,28,34,41,53,52,54,65,70,72,63,46,24,10,-3,-9,-10,-12,-12,-14,-10,-10,-19,-13,-18,-22,-23,-25,-27,-29,-28,-29,-33,-28,-31,-30,-34,-34,-33,-37,-41,-32,-32,-31,-26,-15,-18,-1,36,40,32,32,6,-28,-40,-44,-45,-48,-47,-62,-142,-415,-450,-55,951,1347,463,-75,-247,-146,-102,-78,-81,-75,-68,-60,-50,-48,-39,-33,-32,-28,-21,-14,-16,0,14,20,31,33,35,37
2019-06-04,15:03:05.301,54,57,54,45,31,18,10,-2,-10,-11,-17,-12,-13,-9,0,-5,-5,0,-1,-6,-11,-15,-18,-19,-20,-18,-20,-20,-20,-22,-24,-24,-28,-29,-27,-34,-22,-14,-15,4,29,40,30,29,7,-19,-28,-40,-39,-44,-43,-50,-119,-390,-456,-101,870,1412,543,-16,-233,-144,-97,-78,-79,-69,-61,-56,-45,-39,-27,-25,-24,-18,-12,-3,2,10,19,28,31,35,39,41,45,58,57,57,36,22,9,-4,-13,-15,-26,-23,-20,-18,-14,-20,-21,-22,-25,-27,-29,-37,-32,-33,-34,-27,-30,-29,-33,-31,-34,-38,-41,-39,-35,-36,-33,-23,-21,-5,12,18,10,-2
2019-06-04,15:03:06.326,4,-17,-28,-34,-36,-34,-36,-44,-79,-289,-426,-203,587,1453,675,2,-323,-272,-122,-85,-69,-59,-49,-39,-35,-30,-22,-15,-6,-2,8,21,26,44,56,67,81,95,101,99,102,104,93,80,62,35,17,0,-3,-15,-17,-19,-16,-8,-7,-11,-14,-16,-16,-15,-14,-17,-16,-20,-25,-28,-31,-33,-31,-33,-37,-36,-40,-39,-41,-40,-32,-8,4,9,4,-1,-6,-21,-39,-45,-46,-47,-51,-51,-63,-181,-456,-403,128,1202,1205,299,-189,-248,-137,-103,-90,-82,-82,-74,-62,-55,-47,-42,-38,-36,-31,-23,-20,-7,5,12,26,26,30,32,38,41,48,41,27,14
2019-06-04,15:03:07.350,19,3,-3,-3,-10,-11,-14,-7,0,0,-5,-7,-10,-10,-15,-15,-21,-23,-24,-26,-30,-24,-18,-24,-27,-24,-30,-33,-38,-34,-35,-39,-28,-1,5,6,12,2,0,-15,-27,-38,-34,-36,-35,-34,-48,-170,-440,-397,116,1184,1231,355,-132,-215,-119,-88,-76,-74,-63,-56,-45,-36,-28,-25,-20,-22,-12,-8,0,8,12,21,27,28,32,33,38,40,51,52,38,23,10,2,-13,-12,-22,-23,-15,-15,-10,-13,-14,-16,-25,-15,-21,-21,-24,-30,-33,-38,-36,-32,-39,-37,-31,-35,-37,-40,-39,-44,-43,-42,-42,-24,3,0,-1,3,2,-18,-34,-41,-44,-49
2019-06-04,15:03:08.375,-32,-31,-35,-95,-346,-458,-172,736,1500,681,52,-226,-156,-92,-70,-72,-67,-48,-47,-38,-32,-28,-18,-17,-16,-10,-2,9,15,25,28,39,37,41,56,61,64,66,52,43,31,15,4,-10,-14,-16,-18,-17,-16,-14,-16,-18,-18,-22,-22,-20,-27,-32,-36,-29,-30,-26,-28,-32,-33,-36,-37,-33,-38,-35,-36,-38,-39,-33,-3,-2,-3,7,0,-17,-36,-47,-53,-50,-44,-53,-58,-82,-272,-460,-295,420,1431,838,90,-290,-275,-129,-100,-81,-68,-59,-54,-42,-36,-32,-25,-15,-10,-2,5,14,22,36,48,52,65,70,63,62,64,62,52,33,14,-2,-16,-21
2019-06-04,15:03:09.400,-12,-10,-11,-7,-5,-4,-8,-3,-5,-7,-9,-11,-14,-18,-16,-21,-17,-21,-24,-20,-25,-31,-28,-28,-29,-29,-34,-33,-34,-30,-6,12,7,9,10,2,-15,-24,-33,-39,-31,-28,-28,-41,-145,-429,-421,52,1110,1319,415,-106,-220,-125,-90,-73,-72,-67,-60,-51,-47,-35,-30,-32,-27,-25,-17,-9,-1,10,12,25,29,31,29,32,37,42,43,33,23,12,-2,-10,-16,-20,-19,-22,-19,-14,-12,-11,-14,-15,-18,-22,-17,-22,-28,-25,-20,-21,-28,-34,-27,-29,-31,-26,-34,-33,-36,-28,-32,-36,-38,-21,7,6,-1,9,6,-13,-27,-37,-34,-37,-37,-36
2019-06-04,15:03:10.424,-22,-70,-312,-457,-199,656,1483,735,93,-203,-142,-87,-61,-60,-62,-53,-46,-36,-30,-26,-22,-18,-13,-12,-5,2,12,13,18,22,29,33,34,40,50,51,49,35,22,8,0,0,-6,-10,-15,-17,-9,-8,-13,-18,-17,-16,-19,-22,-19,-26,-25,-29,-33,-27,-26,-24,-31,-32,-37,-37,-41,-32,-34,-37,-36,-42,-41,-40,-15,4,-6,-5,3,-4,-28,-36,-46,-44,-46,-49,-46,-55,-125,-388,-436,-73,895,1410,480,-67,-287,-192,-100,-83,-77,-70,-61,-56,-49,-38,-35,-28,-18,-15,-8,2,9,20,31,40,48,50,58,62,69,65,70,59,35,17,1,-13
2019-06-04,15:03:11.449,7,7,3,0,-4,0,0,-4,-5,-5,-3,-2,-4,-10,-11,-7,-16,-17,-15,-23,-16,-21,-25,-29,-29,-24,-27,-29,-27,-36,-35,-33,-10,4,4,10,4,0,-24,-37,-46,-45,-45,-44,-45,-53,-142,-417,-429,-7,1023,1335,402,-135,-282,-151,-96,-79,-67,-61,-52,-43,-34,-31,-32,-28,-20,-15,-12,2,7,17,24,35,41,42,45,43,41,48,51,37,21,11,-3,-14,-20,-25,-25,-18,-19,-14,-15,-13,-17,-21,-23,-16,-22,-25,-23,-29,-30,-25,-30,-30,-38,-33,-29,-34,-37,-35,-38,-42,-44,-43,-48,-42,-23,0,4,-1,-1,-2,-19,-37,-47,-52
2019-06-04,15:03:12.474,-31,-30,-34,-39,-64,-266,-470,-285,463,1447,898,168,-194,-161,-90,-66,-63,-62,-52,-49,-42,-34,-31,-28,-25,-23,-22,-10,-2,5,17,20,27,27,27,26,24,35,42,41,30,23,9,3,-5,-3,-11,-15,-15,-13,-11,-7,-8,-11,-6,-7,-11,-14,-13,-13,-20,-18,-14,-8,-7,-13,-19,-19,-18,-19,-20,-21,-20,-26,-28,-23,0,18,15,17,23,10,-6,-23,-27,-18,-27,-29,-25,-31,-110,-381,-438,-77,906,1462,584,4,-213,-125,-82,-64,-60,-55,-47,-36,-30,-24,-19,-14,-16,-8,0,7,10,13,25,36,40,42,43,43,51,59,57,49,34,24
2019-06-04,15:03:13.498,19,5,-1,-6,-4,-12,-12,-12,-14,-15,-17,-18,-19,-20,-29,-31,-30,-27,-30,-28,-28,-33,-32,-40,-39,-40,-37,-47,-54,-50,-54,-55,-58,-38,-13,-13,-9,-4,-16,-37,-56,-63,-71,-69,-63,-67,-72,-118,-351,-443,-147,718,1421,531,-84,-371,-291,-136,-107,-89,-75,-58,-51,-46,-43,-37,-32,-21,-17,-8,7,18,32,39,56,70,80,86,84,89,92,87,66,40,21,0,-18,-30,-35,-33,-37,-35,-37,-39,-41,-42,-44,-38,-34,-36,-38,-40,-41,-41,-47,-44,-46,-47,-50,-54,-59,-58,-54,-59,-53,-54,-50,-27,-8,-9,-2,-11,-19,-37,-59,-62,-65,-64
2019-06-04,15:03:14.523,-73,-73,-86,-161,-412,-441,-41,951,1326,347,-228,-430,-268,-145,-105,-100,-81,-71,-63,-53,-48,-42,-37,-30,-21,-18,-13,5,20,32,45,58,66,69,68,67,72,64,43,24,3,-14,-24,-28,-33,-33,-29,-34,-29,-20,-22,-19,-22,-27,-25,-30,-24,-22,-19,-17,-21,-15,-16,-15,-22,-23,-19,-21,-28,-22,-17,-21,-30,-25,-21,13,27,24,30,20,13,-11,-25,-25,-29,-35,-28,-34,-42,-157,-429,-387,126,1197,1291,353,-186,-266,-127,-76,-56,-51,-45,-38,-32,-26,-17,-14,-14,-11,-11,-1,7,13,22,27,35,49,49,53,58,65,70,71,64,39,24,15
2019-06-04,15:03:15.548,82,72,65,61,62,61,61,61,60,52,48,41,40,35,35,36,32,32,34,37,31,26,23,21,18,16,11,6,13,14,12,28,56,47,46,48,42,18,2,-9,-13,-12,-16,-13,-19,-69,-297,-393,-111,747,1482,600,-61,-368,-286,-110,-68,-52,-37,-35,-25,-22,-15,-3,-2,3,10,20,27,35,55,67,81,101,110,116,121,122,116,120,96,69,44,25,2,-11,-12,-21,-21,-23,-20,-24,-30,-23,-28,-38,-28,-28,-22,-20,-22,-21,-26,-15,-17,-17,-20,-20,-22,-31,-30,-29,-30,-27,-26,-22,-27,5,31,29,41,47,53,35,23,1,-12,-19
2019-06-04,15:03:16.572,120,90,68,-33,-299,-302,145,1209,1428,389,-190,-381,-206,-97,-64,-59,-53,-53,-45,-38,-29,-18,-5,9,35,49,67,82,95,107,122,141,151,151,160,167,163,155,144,113,93,73,52,43,35,35,36,33,29,31,30,27,24,15,19,17,16,14,12,8,10,20,16,5,6,0,0,-1,-6,-8,-9,-11,-20,-25,-13,18,23,13,20,14,1,-20,-29,-27,-31,-32,-30,-33,-47,-163,-436,-399,119,1201,1284,325,-213,-261,-134,-87,-70,-66,-53,-49,-50,-49,-40,-39,-35,-33,-28,-23,-17,-12,-7,0,6,13,19,24,30,32,37,35,35,5,-19,-35
2019-06-04,15:03:17.597,104,102,87,79,82,81,88,87,89,92,87,81,82,89,83,57,57,57,63,60,57,48,56,55,54,51,56,53,44,47,46,47,52,42,45,55,82,94,100,95,95,88,71,58,48,45,37,34,31,0,-215,-446,-275,504,1573,1097,293,-125,-111,-58,-29,-31,-32,-27,-29,-26,-24,-18,-12,-1,8,10,18,16,14,7,0,-3,-14,-20,-21,-21,-14,-1,11,11,14,23,27,26,18,19,18,12,12,2,-12,-24,-33,-28,-24,-30,-44,-47,-49,-45,-45,-53,-49,-47,-49,-55,-56,-62,-67,-72,-77,-76,-78,-77,-83,-85,-74,-51,-40,-40,-32,-32
2019-06-04,15:03:18.622,58,49,31,22,22,19,13,14,-2,-37,-310,-376,-31,928,1396,409,-150,-391,-257,-79,-23,7,29,28,23,15,14,20,42,52,59,64,91,98,109,116,140,164,179,186,190,190,187,175,147,106,81,60,36,19,4,-5,-6,-5,-7,2,19,9,5,15,14,15,19,11,6,13,12,1,-9,-5,-11,-11,-6,-22,-25,-30,-30,-32,-38,-32,-13,18,18,17,12,5,-11,-29,-38,-40,-43,-41,-53,-103,-169,-381,-484,-142,785,1558,634,-70,-355,-217,-107,-72,-71,-77,-81,-78,-76,-79,-81,-73,-34,0,58,98,81,66,56,58,60,54,45,44,39,34
2019-06-04,15:03:19.646,93,94,77,67,52,35,24,11,9,7,3,6,3,5,6,9,14,13,14,16,13,16,16,12,8,-1,-3,1,-5,-8,-18,-14,-15,-20,-17,-25,-28,-28,-17,9,14,21,18,13,-1,-30,-38,-37,-38,-42,-42,-35,-63,-255,-468,-306,423,1421,902,134,-244,-174,-88,-59,-62,-60,-46,-40,-35,-28,-30,-30,-24,-18,-14,-10,-6,-7,-5,-3,-2,-4,2,2,7,19,30,32,34,25,13,5,-4,-7,-6,-7,-9,-3,-2,0,-6,-14,-9,-9,-13,-11,-16,-16,-19,-22,-21,-25,-24,-28,-32,-39,-38,-42,-39,-42,-39,-34,-34,-2,10,4,11,5
2019-06-04,15:03:20.671,3,-18,-32,-39,-33,-37,-35,-37,-47,-139,-433,-445,-6,1052,1381,529,-2,-190,-106,-84,-70,-69,-64,-56,-44,-45,-43,-41,-36,-27,-24,-19,-17,-9,-3,-2,3,1,4,5,11,14,14,21,22,18,7,-3,-6,-16,-8,-12,-17,-14,-10,-7,-10,-14,-8,-12,-13,-16,-18,-18,-23,-21,-20,-22,-26,-22,-25,-30,-34,-34,-38,-42,-40,-33,1,9,5,9,3,-8,-25,-40,-43,-41,-42,-46,-47,-54,-168,-447,-428,62,1154,1314,367,-120,-287,-164,-93,-77,-70,-58,-54,-43,-32,-26,-18,-14,-7,0,3,9,18,31,41,49,54,62,66,68,64,71,72,61
2019-06-04,15:03:21.696,45,25,6,-9,-15,-18,-25,-25,-20,-18,-18,-23,-23,-21,-26,-27,-24,-29,-29,-33,-32,-34,-31,-33,-41,-44,-46,-48,-50,-51,-40,-18,-1,-6,-7,-10,-24,-44,-55,-58,-59,-62,-64,-59,-70,-126,-374,-419,-51,869,1364,381,-178,-428,-323,-151,-116,-95,-78,-65,-52,-48,-43,-31,-26,-22,-10,-3,9,24,40,52,70,87,94,106,103,104,105,95,75,41,19,-4,-23,-28,-39,-36,-38,-41,-33,-34,-41,-47,-44,-39,-42,-40,-32,-31,-29,-33,-32,-35,-38,-39,-44,-45,-46,-48,-49,-55,-49,-35,-14,-9,-4,-16,-19,-29,-47,-54,-53,-58,-57,-56,-59,-93
2019-06-04,15:03:22.720,-333,-498,-275,505,1439,685,-75,-452,-394,-204,-140,-117,-96,-84,-70,-52,-47,-36,-30,-22,-20,-12,7,12,25,41,56,72,80,88,95,90,90,76,58,24,-7,-24,-43,-53,-57,-57,-60,-57,-48,-49,-51,-46,-53,-56,-61,-58,-62,-57,-59,-48,-47,-38,-28,-25,-28,-27,-24,-31,-27,-37,-41,-42,-40,-22,-5,3,4,-7,-5,-21,-33,-40,-50,-48,-49,-51,-54,-101,-320,-457,-209,624,1463,631,-62,-381,-283,-150,-111,-96,-84,-70,-60,-53,-42,-38,-36,-32,-22,-19,-9,1,3,11,22,25,33,34,34,43,45,54,37,18,3,-16,-28,-38,-40,-38,-46,-41
2019-06-04,15:03:23.745,-75,-75,-72,-79,-72,-75,-69,-69,-70,-65,-70,-66,-69,-68,-63,-63,-60,-57,-61,-63,-61,-59,-63,-55,-37,-27,-15,-1,-4,-18,-20,-33,-45,-49,-54,-64,-64,-58,-64,-92,-276,-496,-348,362,1407,977,223,-189,-184,-113,-89,-81,-79,-75,-63,-62,-60,-54,-49,-50,-48,-42,-29,-32,-29,-33,-32,-24,-28,-24,-25,-23,-8,3,8,8,2,-2,-5,-10,-16,-15,-15,-16,-14,-13,-13,-14,-14,-9,-11,-15,-17,-19,-20,-18,-17,-19,-23,-20,-22,-25,-27,-20,-23,-27,-25,-25,-29,-24,-22,-14,-12,-5,15,20,9,4,11,-6,-20,-22,-26,-31,-22,-22,-29,-149
2019-06-04,15:03:24.770,-456,-451,24,1115,1397,577,19,-140,-87,-78,-62,-67,-62,-58,-54,-52,-50,-51,-46,-46,-41,-43,-46,-48,-50,-56,-56,-55,-57,-56,-61,-46,-32,-23,-6,-1,2,-6,-9,-11,-16,-17,-19,-15,-11,-13,-6,-11,-13,-14,-16,-23,-24,-22,-27,-25,-23,-24,-26,-29,-30,-28,-28,-32,-31,-36,-32,-34,-31,-33,-30,-26,-17,-18,-10,11,10,-11,-6,-10,-25,-37,-40,-45,-43,-46,-48,-85,-307,-478,-272,550,1502,828,166,-192,-184,-99,-89,-78,-78,-66,-65,-52,-40,-37,-35,-30,-16,-16,-14,0,4,11,22,24,33,35,36,39,48,53,45,41,26,9,-3,-11
2019-06-04,15:03:25.794,-41,-46,-49,-46,-47,-47,-38,-47,-45,-50,-52,-46,-46,-44,-47,-50,-48,-47,-40,-50,-51,-48,-52,-55,-61,-55,-57,-60,-47,-44,-41,-38,-31,-3,-17,-23,-24,-39,-57,-60,-63,-62,-65,-62,-67,-101,-317,-457,-215,580,1450,633,-33,-347,-304,-139,-100,-84,-79,-67,-49,-43,-34,-25,-26,-14,-9,-2,3,13,25,38,45,55,62,64,68,67,65,63,51,39,16,4,-12,-22,-32,-33,-27,-33,-26,-21,-24,-26,-31,-29,-27,-24,-23,-28,-23,-20,-25,-25,-30,-29,-32,-32,-38,-41,-35,-39,-44,-40,-40,-38,-39,-37,-25,-25,-23,3,0,-17,-15,-5,-24,-40
2019-06-04,15:03:26.819,-28,-31,-28,-31,-35,-52,-198,-453,-360,237,1322,1117,261,-184,-222,-114,-80,-63,-59,-55,-52,-46,-35,-27,-22,-20,-19,-14,-14,-9,2,5,8,15,15,14,13,21,23,25,40,33,23,15,8,-3,-20,-15,-12,-22,-27,-19,-12,-9,-11,-12,-15,-28,-40,-35,-32,-31,-24,-22,-26,-24,-18,-15,-23,-26,-31,-32,-29,-28,-30,-22,-28,-22,-16,-9,-11,-6,22,16,2,6,5,-6,-23,-32,-30,-33,-31,-35,-64,-254,-474,-321,404,1451,1016,256,-146,-158,-92,-67,-59,-66,-52,-53,-47,-41,-34,-32,-30,-22,-18,-15,-10,-11,-7,-8,0,-4,1,0,1,14
2019-06-04,15:03:27.844,23,25,22,17,10,4,-6,-5,-12,-12,-12,-18,-4,-2,-4,0,-11,-10,-10,-11,-17,-25,-26,-31,-25,-26,-24,-26,-26,-26,-32,-34,-38,-39,-34,-41,-34,-32,-25,-21,-16,7,3,-14,-14,-18,-33,-38,-48,-52,-46,-45,-48,-74,-235,-477,-360,296,1379,1090,289,-146,-199,-113,-91,-78,-71,-62,-60,-50,-44,-36,-38,-39,-26,-27,-27,-17,-14,-13,-6,0,5,11,11,19,22,28,36,31,20,11,0,-11,-15,-18,-26,-20,-21,-20,-25,-27,-27,-22,-20,-22,-28,-24,-24,-29,-23,-27,-28,-27,-34,-31,-35,-31,-38,-39,-41,-36,-21,-1,10,18,16,11
2019-06-04,15:03:28.868,-6,-17,-33,-38,-34,-41,-43,-47,-56,-117,-370,-419,-65,883,1428,474,-83,-329,-222,-107,-78,-63,-58,-55,-47,-39,-32,-28,-25,-10,-2,1,11,18,28,41,46,50,52,56,54,59,59,56,46,25,13,-3,-22,-18,-22,-23,-24,-25,-20,-21,-18,-18,-23,-21,-20,-14,-17,-13,-14,-19,-20,-18,-24,-27,-24,-18,-23,-28,-31,-34,-34,-35,-30,-30,-23,5,8,13,8,1,-9,-19,-32,-35,-39,-34,-37,-43,-53,-155,-429,-417,43,1090,1338,424,-102,-232,-129,-99,-75,-69,-63,-61,-56,-49,-44,-37,-33,-34,-27,-22,-17,-10,-14,-5,-4,0,4,2,3,3
2019-06-04,15:03:29.893,4,25,26,15,4,-5,-14,-22,-26,-33,-31,-25,-22,-28,-26,-31,-29,-22,-24,-30,-27,-26,-29,-32,-33,-31,-28,-27,-26,-32,-34,-35,-34,-35,-37,-32,-30,-38,-37,-25,-14,0,15,13,-1,-4,-10,-30,-32,-32,-37,-37,-34,-35,-78,-316,-466,-219,629,1504,787,114,-197,-144,-94,-73,-69,-61,-46,-43,-43,-38,-32,-30,-28,-24,-22,-12,-8,-5,-7,-6,-1,0,-3,-6,1,8,16,18,13,10,1,-3,-9,-17,-13,-20,-18,-10,-15,-15,-17,-15,-18,-27,-24,-24,-23,-23,-24,-26,-28,-28,-24,-31,-32,-37,-39,-31,-36,-36,-38,-39,-33,-35,-34,-31
2019-06-04,15:03:30.918,-28,-16,3,6,-16,-12,-14,-30,-37,-44,-40,-40,-46,-41,-64,-215,-457,-360,252,1337,1128,296,-152,-223,-115,-79,-71,-77,-47,-45,-41,-37,-39,-34,-24,-16,-10,-3,6,9,15,23,29,35,36,33,27,23,28,29,23,12,6,-3,-13,-18,-19,-29,-20,-13,-10,-2,-4,-5,4,4,4,6,11,1,1,8,-7,-11,-20,-19,-26,-34,-34,-33,-32,-24,-28,-28,-26,-22,-23,-30,-22,0,7,-2,-3,7,-10,-18,-33,-44,-35,-33,-34,-37,-54,-198,-442,-345,270,1363,1113,265,-177,-222,-94,-56,-47,-46,-38,-30,-24,-13,-8,-5,1,11,22,8,2,11
2019-06-04,15:03:31.942,8,-6,2,13,8,-3,0,7,1,2,-21,-35,-50,-76,-72,-65,-75,-82,-83,-85,-98,-104,-120,-118,-115,-120,-94,-95,-87,-83,-72,-63,-55,-52,-71,-71,-61,-55,-72,-83,-78,-80,-82,-79,-66,-73,-78,-76,-51,-29,-13,-1,21,13,0,-15,-35,-53,-51,-48,-43,-42,-36,-60,-194,-453,-388,193,1266,1165,281,-158,-214,-108,-71,-47,-51,-42,-33,-26,-18,-17,-14,-12,-2,-5,-2,7,9,12,15,20,25,29,35,35,43,42,54,53,45,35,32,20,17,10,3,-5,-5,0,0,5,0,-5,2,-2,-5,-11,-11,-14,-16,-16,-20,-24,-28,-27,-29,-26
2019-06-04,15:03:32.967,-22,-21,-16,-27,-35,-33,-38,-45,-35,-27,-14,6,14,12,5,0,-21,-33,-48,-45,-43,-41,-42,-43,-91,-320,-447,-181,682,1514,661,18,-281,-218,-95,-67,-53,-46,-36,-33,-19,-14,-2,6,12,19,26,24,32,44,48,53,66,70,79,83,80,87,94,94,71,60,44,27,13,0,-9,-5,-14,-10,-8,-14,-15,-14,-9,-11,-14,-14,-17,-19,-26,-26,-27,-26,-22,-28,-30,-35,-34,-33,-37,-35,-40,-43,-40,-36,-18,3,-2,5,-1,-10,-33,-45,-54,-57,-60,-57,-57,-57,-113,-359,-439,-121,778,1429,464,-144,-412,-290,-139,-99,-85,-78,-70,-61,-54,-41
2019-06-04,15:03:33.992,-37,-36,-33,-21,-17,-21,-9,5,12,18,36,42,43,46,47,47,47,39,17,-2,-17,-29,-36,-45,-47,-47,-42,-42,-37,-43,-48,-50,-43,-44,-40,-41,-44,-40,-41,-34,-38,-40,-37,-38,-45,-44,-41,-40,-43,-45,-47,-45,-43,-45,-40,-46,-48,-46,-37,-29,-24,-8,6,-10,-12,-14,-31,-46,-49,-49,-57,-57,-52,-77,-254,-461,-302,395,1409,919,113,-278,-237,-120,-79,-67,-65,-59,-50,-46,-39,-31,-22,-19,-17,-14,-11,-3,-2,2,15,17,25,31,31,33,40,49,50,42,29,22,9,1,-6,-13,-16,-19,-18,-18,-13,-6,-16,-11,-11,-12,-15,-23
2019-06-04,15:03:35.016,-49,-52,-46,-40,-42,-40,-38,-45,-46,-48,-54,-52,-51,-49,-47,-50,-45,-52,-47,-46,-46,-45,-41,-37,-47,-34,-10,-14,-25,-20,-32,-45,-48,-53,-53,-57,-52,-53,-84,-270,-465,-291,430,1461,927,142,-244,-231,-118,-84,-74,-64,-59,-52,-44,-35,-30,-28,-22,-15,-13,-9,1,4,8,15,25,29,34,41,50,55,67,66,57,42,26,15,6,-5,-8,-10,-13,-11,-10,-13,-13,-18,-16,-15,-10,-11,-15,-15,-22,-19,-13,-15,-10,-8,-6,-11,-8,-9,-11,-17,-19,-20,-27,-21,-18,-17,-12,-9,-11,-13,-11,8,0,-12,0,-10,-22,-24,-29,-31,-37,-39
2019-06-04,15:03:36.041,-35,-80,-308,-399,-112,714,1461,572,-73,-381,-305,-119,-76,-56,-44,-34,-28,-17,-13,-8,-1,4,9,15,25,38,49,55,68,85,94,94,102,96,95,105,88,69,35,9,-8,-25,-30,-32,-42,-43,-45,-40,-44,-39,-36,-42,-42,-33,-31,-30,-28,-21,-23,-27,-30,-27,-34,-33,-40,-43,-42,-41,-42,-37,-39,-38,-39,-37,-35,-37,-32,-21,-32,-30,-36,-50,-47,-6,-12,-29,-30,-24,-39,-46,-44,-43,-28,-24,-50,-160,-404,-335,223,1268,1144,236,-226,-250,-114,-80,-60,-56,-49,-47,-43,-42,-32,-28,-23,-16,-14,-13,-6,0,2,9,13,16,19,25,34,31
2019-06-04,15:03:37.065,53,57,62,40,26,17,12,0,-11,-17,-15,-5,-1,-7,-2,11,6,4,1,8,3,-5,-8,-1,-7,-8,-12,-18,-19,-21,-25,-26,-29,-27,-24,-22,-23,-22,-19,-20,-19,-16,-14,-21,-22,-27,-44,-20,-5,-14,-18,-16,-19,-18,-20,-21,-21,-26,-32,-88,-344,-436,-109,829,1497,653,63,-174,-93,-51,-34,-33,-36,-40,-46,-43,-44,-36,-39,-30,-28,-22,-7,-1,6,8,5,3,4,7,-1,-4,2,19,29,22,19,14,1,-12,-18,-24,-23,-29,-23,-26,-21,-14,-16,-25,-32,-26,-23,-23,-20,-25,-17,-14,-18,-28,-25,-26,-25,-31,-25,-37,-39,-32
2019-06-04,15:03:38.090,-5,3,4,0,10,7,5,0,-11,-12,7,9,0,0,1,-22,-28,-28,-30,-33,-35,-37,-56,-228,-436,-307,341,1398,997,193,-197,-253,-119,-82,-63,-52,-47,-41,-31,-27,-22,-15,-7,-4,7,7,9,19,24,34,37,47,49,59,56,60,65,63,57,49,27,12,-1,-8,-17,-23,-18,-22,-21,-14,-17,-18,-17,-19,-17,-18,-20,-21,-21,-14,-16,-24,-24,-28,-28,-30,-31,-34,-35,-33,-36,-40,-41,-35,-32,-10,3,8,0,-4,-18,-33,-42,-53,-55,-45,-49,-53,-58,-96,-305,-456,-221,574,1477,697,-6,-348,-281,-133,-92,-78,-67,-59,-50,-47,-41,-31
2019-06-04,15:03:39.115,-15,-7,-5,2,14,18,30,37,43,53,58,62,62,66,67,71,72,62,48,33,14,0,-6,-8,-11,-13,-11,-17,-1,-1,-7,-4,-5,0,0,-4,-4,0,-2,-2,0,5,-1,-4,-4,-7,-7,-6,-7,-14,-6,-4,-6,-6,-2,5,21,34,48,32,36,25,7,1,-5,-8,-6,-9,-12,-20,-127,-391,-350,161,1216,1285,359,-134,-229,-94,-52,-28,-14,-6,0,5,9,15,24,25,18,38,41,40,52,56,65,67,69,77,80,81,83,96,103,101,89,79,70,52,44,35,29,31,34,40,43,41,38,31,30,28,27,29,35,37,30,15
2019-06-04,15:03:40.139,-78,-73,-75,-70,-57,-35,-24,-31,-38,-47,-54,-52,-49,-45,-51,-61,-68,-74,-62,-38,-12,0,6,24,14,0,-12,-32,-49,-63,-69,-67,-109,-337,-473,-221,611,1444,646,-11,-323,-238,-135,-100,-86,-80,-72,-72,-65,-59,-52,-46,-35,-30,-26,-16,-14,-14,-11,-14,-12,-8,-5,-4,-1,11,19,25,20,10,-1,-9,-22,-28,-30,-29,-32,-32,-27,-28,-32,-34,-33,-35,-32,-30,-27,-28,-26,-27,-22,-26,-32,-35,-37,-36,-44,-47,-40,-43,-43,-38,-42,-44,-41,-36,-29,-20,-12,0,-2,-10,-9,-15,-27,-38,-45,-47,-43,-44,-39,-72,-289,-464,-275,486,1491,908
2019-06-04,15:03:41.164,157,-227,-219,-121,-97,-86,-79,-65,-56,-58,-57,-50,-45,-36,-30,-27,-22,-23,-14,-13,-11,-6,-2,-1,5,11,18,24,32,32,19,5,-1,-12,-23,-22,-28,-28,-19,-17,-17,-11,-11,-14,-8,-2,-1,-1,-1,-6,-15,-26,-29,-28,-33,-30,-32,-32,-33,-34,-30,-34,-32,-27,-21,-14,-4,9,11,-4,2,-5,-14,-28,-40,-40,-47,-45,-52,-58,-149,-414,-399,50,1069,1249,283,-238,-344,-181,-106,-74,-64,-54,-45,-38,-33,-31,-29,-23,-19,-20,-9,-4,-4,0,8,17,20,15,23,25,31,45,49,49,37,23,13,1,-10,-16,-18,-23,-25,-20,-15,-12
2019-06-04,15:03:42.189,-4,-6,0,4,-1,-2,-2,0,-12,-5,-8,-18,-15,-17,-23,-25,-24,-21,-30,-25,-20,-22,-25,-19,-13,-8,-2,1,14,23,8,5,6,-7,-16,-19,-25,-29,-27,-32,-33,-84,-342,-453,-164,728,1470,696,62,-188,-111,-74,-56,-54,-50,-47,-49,-42,-31,-26,-20,-22,-17,-20,-15,-14,-14,-6,-5,-12,-12,-2,-7,-4,8,19,25,27,22,20,8,0,-4,-8,-5,0,4,7,7,1,-4,-9,-1,-6,-15,-15,-17,-17,-21,-16,-15,-13,-16,-21,-22,-21,-24,-21,-28,-29,-26,-31,-27,-24,-19,-12,-8,-6,8,17,4,0,0,-18,-30,-29,-37,-40
2019-06-04,15:03:43.213,-44,-43,-51,-156,-429,-417,47,1090,1306,431,-71,-219,-120,-81,-66,-69,-57,-54,-48,-43,-40,-42,-33,-30,-21,-18,-19,-23,-16,-11,-15,-12,-7,-3,-9,-5,9,17,25,22,13,10,-1,-10,-14,-21,-20,-15,-9,-15,-17,-22,-21,-18,-20,-26,-21,-23,-20,-17,-24,-19,-22,-17,-23,-27,-28,-24,-25,-26,-29,-26,-26,-25,-24,-23,-13,-11,6,8,-3,3,-5,-20,-36,-31,-31,-30,-35,-37,-56,-220,-418,-280,368,1363,900,116,-266,-290,-128,-78,-64,-54,-41,-41,-24,-22,-12,-6,-6,0,0,8,14,17,31,38,47,59,52,59,58,57,58,54,47,34
2019-06-04,15:03:44.238,24,9,-11,-17,-23,-28,-27,-22,-19,-19,-22,-21,-18,-18,-11,-8,-9,-12,-14,-16,-12,-20,-20,-20,-21,-24,-25,-32,-33,-33,-32,-33,-30,-27,-25,-15,-3,11,12,-2,0,-7,-22,-34,-37,-41,-36,-41,-36,-58,-212,-455,-351,264,1323,1081,227,-214,-216,-110,-78,-70,-61,-55,-57,-50,-39,-34,-32,-28,-25,-22,-12,-15,-14,-12,-5,-9,-11,-8,-8,-11,-6,7,15,17,10,10,0,-8,-15,-20,-24,-22,-20,-20,-12,-16,-11,-15,-16,-18,-17,-16,-14,-15,-18,-17,-16,-22,-20,-19,-20,-23,-26,-23,-25,-25,-25,-29,-30,-28,-29,-19,-5,13,15,2
2019-06-04,15:03:45.263,12,3,-8,-18,-25,-27,-22,-27,-22,-35,-156,-427,-387,133,1180,1242,375,-106,-188,-95,-66,-50,-50,-49,-45,-40,-37,-29,-28,-29,-22,-15,-13,-14,-12,-9,-12,-8,-8,-14,-13,-13,-10,-5,1,18,19,17,13,-1,-6,-13,-17,-21,-21,-7,-4,-7,-8,-14,-13,-13,-14,-15,-22,-21,-18,-21,-17,-18,-22,-21,-16,-15,-27,-20,-21,-24,-23,-25,-27,-29,-23,-26,-21,-16,-6,6,20,4,5,1,-15,-25,-34,-37,-34,-32,-31,-45,-128,-403,-435,-40,954,1377,519,-18,-198,-113,-79,-56,-58,-49,-44,-44,-44,-42,-35,-30,-24,-22,-21,-19,-17,-18,-20,-17
2019-06-04,15:03:46.287,-17,-24,-19,-22,-21,-8,-2,9,17,13,10,-6,-9,-10,-14,-20,-17,-14,-21,-20,-14,-18,-15,-20,-21,-25,-25,-26,-25,-17,-17,-25,-22,-24,-27,-33,-40,-32,-38,-33,-34,-35,-37,-34,-36,-25,-20,-19,-6,6,-6,-9,-12,-23,-34,-42,-44,-40,-45,-42,-45,-120,-376,-411,-52,909,1386,463,-66,-287,-187,-102,-70,-60,-49,-42,-36,-35,-24,-14,-9,0,1,4,12,18,15,21,27,33,35,42,43,40,47,50,52,47,37,23,12,-6,-10,-15,-14,-12,-13,-12,-14,-18,-15,-6,-4,-9,-13,-14,-12,-4,-12,-20,-20,-14,-14,-21,-27,-22,-26,-21
2019-06-04,15:03:47.312,-27,-30,-30,-38,-16,7,10,8,3,-3,2,-8,-15,-24,-22,-21,-29,-35,-33,-80,-303,-446,-215,602,1498,730,32,-288,-198,-104,-67,-54,-49,-39,-52,-55,-42,-36,-20,-10,1,-5,-2,-4,-4,-1,10,25,21,21,4,9,15,24,36,30,14,7,1,-17,-32,-39,-43,-40,-43,-42,-42,-39,-50,-52,-60,-53,-59,-60,-54,-56,-58,-61,-58,-55,-61,-64,-59,-63,-62,-58,-58,-50,-64,-65,-47,-49,-53,-33,-11,7,-15,-13,-10,-29,-43,-51,-47,-50,-43,-41,-45,-132,-405,-423,0,1028,1370,416,-124,-262,-140,-96,-73,-58,-51,-54,-56,-42,-32,-36,-28,-13
2019-06-04,15:03:48.337,-7,-1,5,11,19,17,22,21,19,7,7,6,3,12,18,9,1,0,-4,-16,-23,-22,-25,-20,-20,-18,-21,-28,-28,-29,-29,-30,-26,-31,-33,-32,-27,-26,-24,-25,-30,-26,-26,-22,-23,-27,-27,-32,-23,-2,11,13,23,20,10,-12,-31,-36,-41,-43,-39,-43,-54,-66,-224,-425,-292,352,1375,934,101,-294,-316,-145,-96,-68,-56,-53,-47,-40,-30,-21,-11,-2,-2,-1,4,15,27,38,40,52,61,68,67,65,72,75,74,70,45,30,5,-8,-15,-21,-26,-30,-32,-29,-27,-24,-25,-26,-24,-25,-29,-27,-26,-26,-25,-25,-24,-28,-33,-36,-39,-36
2019-06-04,15:03:49.361,-39,-41,-45,-49,-47,-40,-34,-23,-13,-5,-15,-19,-20,-38,-57,-60,-53,-53,-52,-54,-63,-144,-402,-418,-5,999,1349,356,-195,-356,-193,-115,-81,-71,-64,-53,-48,-41,-35,-31,-28,-16,-14,-6,-11,-8,5,16,17,16,24,28,30,30,35,46,44,34,22,5,-6,-21,-27,-34,-34,-33,-28,-26,-29,-26,-25,-33,-29,-27,-27,-27,-34,-35,-24,-30,-34,-30,-32,-30,-29,-32,-39,-38,-40,-37,-36,-31,-21,-17,-2,13,6,-5,1,-6,-17,-29,-26,-24,-30,-32,-31,-53,-230,-446,-290,403,1417,943,135,-254,-210,-103,-70,-55,-49,-42,-32,-28,-28,-29,-19,-17
2019-06-04,15:03:50.386,-31,-29,-27,-26,-22,-16,-21,-19,-18,-16,-20,-20,-4,5,12,10,0,-4,-17,-22,-30,-35,-33,-36,-27,-29,-30,-25,-30,-29,-30,-29,-31,-31,-36,-32,-32,-31,-31,-30,-26,-23,-28,-29,-31,-32,-39,-36,-43,-40,-41,-39,-31,-27,-26,-3,0,-12,-8,-13,-25,-35,-44,-43,-41,-41,-43,-56,-205,-455,-362,245,1288,1117,324,-116,-150,-84,-69,-61,-60,-58,-47,-47,-40,-35,-27,-22,-21,-25,-32,-32,-25,-26,-27,-33,-41,-45,-47,-46,-43,-32,-17,-10,-1,4,8,2,-4,-19,-19,-21,-15,-15,-8,6,8,13,18,22,17,6,10,-7,-14,-8,-16,-21
2019-06-04,15:03:51.411,-23,-33,-23,-21,-30,-28,-23,-25,-27,-34,-34,-28,-17,-1,-15,-12,10,-4,-12,-3,-17,-25,-35,-45,-42,-40,-38,-55,-104,-332,-457,-207,636,1436,719,99,-207,-167,-108,-98,-101,-84,-88,-87,-87,-90,-99,-100,-87,-79,-74,-63,-50,-39,-15,9,29,33,31,19,21,20,28,28,22,18,16,6,-3,-5,-15,-23,-19,-19,-15,-28,-26,-26,-19,-17,-23,-22,-21,-16,-13,-3,8,22,26,34,34,25,23,5,-2,-5,-4,-1,5,25,31,42,63,64,57,46,30,16,0,-4,-10,-13,-21,-20,-51,-238,-432,-264,439,1430,887,136,-236,-203,-92,-53,-43,-40
2019-06-04,15:03:52.435,-21,-19,-25,-22,-16,-12,-4,-3,3,8,13,12,8,13,9,10,12,6,3,6,13,24,20,16,6,-1,-10,-14,-26,-31,-30,-23,-24,-27,-23,-22,-24,-20,-19,-19,-16,-17,-23,-25,-24,-27,-28,-30,-34,-34,-41,-40,-37,-37,-33,-36,-27,-17,-9,-15,9,15,-1,0,0,-19,-32,-38,-27,-18,-22,-25,-38,-133,-400,-395,49,1045,1261,394,-102,-226,-121,-90,-73,-66,-67,-66,-61,-53,-57,-45,-43,-32,-30,-31,-24,-25,-30,-26,-19,-24,-29,-26,-20,-21,-11,-1,8,12,5,3,-8,-12,-17,-24,-16,-19,-19,-20,-15,-17,-20,-19,-18,-24,-24,-28
2019-06-04,15:03:53.460,-14,-17,-15,-21,-19,-12,-18,-22,-22,-24,-24,-29,-31,-26,-22,-18,-12,-2,8,15,0,-1,-5,-18,-31,-35,-30,-29,-40,-45,-54,-163,-426,-393,89,1138,1244,386,-71,-219,-126,-83,-72,-69,-67,-56,-47,-43,-35,-24,-18,-16,-14,-18,-16,-10,-9,0,0,5,5,4,0,12,22,25,29,26,16,8,-3,-11,-14,-20,-24,-20,-13,-23,-20,-12,-17,-17,-19,-21,-25,-19,-22,-27,-20,-17,-22,-25,-30,-31,-29,-31,-35,-35,-23,-19,-6,13,15,17,1,5,-11,-31,-31,-33,-38,-37,-37,-42,-58,-177,-414,-350,189,1202,1097,211,-213,-321,-169,-90,-74,-64
2019-06-04,15:03:54.485,-16,-9,4,13,18,23,26,32,35,42,48,51,58,68,72,77,69,67,69,62,63,64,61,47,39,32,18,9,7,5,8,5,10,4,6,8,4,6,2,0,0,1,0,-9,-2,0,-9,-9,-11,-14,-9,-14,-14,-23,-18,-21,-25,-19,-14,-4,5,15,13,5,3,-13,-23,-32,-35,-40,-36,-38,-45,-106,-372,-439,-97,837,1443,571,-2,-236,-157,-101,-75,-69,-71,-59,-54,-56,-49,-50,-42,-38,-36,-37,-38,-41,-36,-37,-39,-40,-39,-40,-35,-29,-24,-6,5,5,-1,4,0,-14,-19,-27,-20,-22,-17,-17,-26,-33,-33,-31,-26,-22,-15,-9
2019-06-04,15:03:55.509,54,57,51,47,47,45,43,45,34,35,26,22,26,27,23,22,34,52,56,61,52,51,42,30,27,25,22,24,11,16,-4,-123,-363,-314,194,1203,1138,206,-278,-369,-183,-88,-51,-44,-38,-22,-23,-20,-1,-5,-4,-1,13,21,28,37,41,45,52,55,59,54,59,62,62,62,60,51,32,17,5,-8,-13,-11,-19,-17,-13,-11,-19,-17,-13,-19,-10,-8,-5,-11,-8,-7,-11,-14,-10,-20,-19,-16,-24,-22,-20,-26,-27,-28,-31,-26,1,12,19,14,7,10,-13,-28,-33,-31,-40,-42,-41,-47,-96,-332,-448,-175,702,1478,671,14,-258,-168,-105,-76
2019-06-04,15:03:56.534,-20,-20,-13,-13,-12,-1,0,1,6,13,16,16,17,23,21,12,10,8,8,8,3,9,15,22,27,29,40,35,32,21,9,12,13,5,-2,-7,0,3,-1,-7,-6,0,-5,0,16,20,29,44,55,57,46,28,22,8,-5,-5,-12,-15,-10,-5,15,24,25,18,19,9,0,-16,-22,-14,-18,-22,-19,-24,-128,-426,-429,24,1097,1412,521,-41,-197,-128,-108,-87,-90,-82,-84,-100,-105,-110,-110,-119,-117,-105,-101,-94,-94,-97,-93,-91,-94,-92,-78,-74,-64,-52,-33,-8,-3,-5,4,6,9,0,-6,-2,-2,1,6,14,28,38,33,30,33,29
2019-06-04,15:03:57.559,43,37,23,12,0,-12,-20,-31,-33,-36,-40,-36,-30,-17,14,23,29,35,30,8,-16,-25,-29,-37,-41,-45,-42,-47,-148,-400,-365,104,1109,1251,368,-109,-242,-139,-76,-57,-44,-37,-31,-31,-25,-19,-13,-6,-2,-2,7,10,21,17,21,26,23,25,29,33,29,29,36,39,34,24,14,11,-1,-13,-17,-19,-14,-13,-7,-17,-20,-19,-18,-17,-11,-16,-21,-26,-23,-25,-29,-29,-32,-42,-40,-46,-47,-43,-23,-5,-1,1,2,-14,-42,-48,-56,-56,-57,-59,-62,-62,-94,-285,-454,-261,489,1427,792,54,-305,-254,-129,-96,-84,-77,-68,-62,-55,-47,-38,-39
2019-06-04,15:03:58.583,-3,2,9,11,16,26,25,32,35,36,30,25,34,47,45,35,35,32,32,16,2,0,12,18,16,10,11,13,11,4,2,-2,-9,-21,-27,-35,-38,-34,-39,-55,-53,-57,-51,-48,-46,-19,12,23,61,105,125,93,56,28,8,-9,-10,-7,-9,-20,-181,-452,-358,286,1412,1220,334,-150,-182,-105,-71,-62,-62,-58,-56,-58,-58,-45,-43,-33,-31,-31,-34,-28,-29,-36,-30,-39,-41,-45,-38,-41,-31,-19,-14,-5,1,-8,-6,-10,-18,-13,-22,-22,-15,-18,-18,-13,-19,-27,-23,-25,-19,-25,-31,-24,-39,-41,-47,-48,-43,-43,-41,-39,-6,-42,15,-1
2019-06-04,15:03:59.608,-1,-21,-48,-57,-64,-73,-66,-66,-67,-76,-204,-472,-406,194,1340,1269,366,-124,-178,-79,-40,-24,-25,-6,-5,-12,-12,-21,-23,-16,-17,-13,-14,-12,-10,-10,-12,-13,-15,-15,-16,-17,-10,-5,-2,5,0,-7,-14,-20,-27,-22,-25,-26,-29,-19,-25,-28,-23,-26,-29,-24,-27,-26,-29,-33,-33,-30,-31,-29,-19,6,9,14,8,5,-14,-32,-38,-41,-48,-46,-48,-53,-53,-110,-379,-467,-116,901,1529,642,20,-206,-132,-91,-74,-67,-64,-62,-60,-47,-45,-33,-39,-37,-23,-22,-27,-19,-19,-21,-21,-26,-28,-29,-28,-25,-19,-11,-5,-6,-7,-14,-20,-25,-27,-30
2019-06-04,15:04:00.633,-29,-30,-33,-22,-30,-31,-26,-30,-30,-29,-30,-32,-31,-25,-35,-39,-33,-14,1,1,15,2,2,-21,-35,-37,-37,-43,-48,-47,-42,-65,-245,-477,-329,409,1490,1061,260,-158,-164,-104,-78,-62,-56,-54,-51,-49,-44,-42,-39,-38,-34,-34,-22,-25,-26,-23,-27,-21,-22,-25,-28,-30,-29,-16,-11,-11,-13,-10,-15,-24,-25,-26,-25,-32,-34,-26,-32,-31,-32,-29,-30,-34,-32,-21,-28,-28,-28,-28,-30,-31,-23,-2,2,17,8,4,-4,-28,-37,-31,-35,-38,-38,-35,-45,-124,-400,-442,-55,986,1476,563,-33,-240,-154,-97,-69,-69,-67,-56,-50,-44,-48,-43,-33,-30
2019-06-04,15:04:01.657,-47,-39,-26,-29,-28,-24,-30,-25,-23,-24,-24,-16,-8,0,-1,-3,-6,-12,-25,-26,-29,-32,-32,-32,-39,-39,-35,-38,-38,-36,-29,-38,-39,-40,-39,-37,-41,-41,-32,-33,-37,-36,-27,-23,-11,8,13,4,0,-11,-27,-42,-41,-38,-40,-50,-54,-71,-218,-434,-318,320,1368,991,159,-247,-281,-134,-90,-68,-63,-60,-45,-36,-37,-29,-23,-9,-9,-13,-4,-2,1,7,13,17,19,15,20,19,26,30,35,28,21,7,-8,-17,-24,-23,-22,-27,-20,-27,-28,-29,-27,-23,-32,-26,-21,-23,-26,-26,-20,-24,-24,-31,-32,-30,-29,-30,-30,-38,-29,-26,-18,-19
2019-06-04,15:04:02.682,-35,-13,-24,-32,-26,-35,-54,-60,-62,-65,-67,-66,-64,-89,-286,-415,-264,540,1437,749,39,-297,-228,-126,-87,-76,-76,-63,-60,-54,-49,-45,-26,-36,-34,-32,-23,-22,-20,-17,-14,-12,-8,-14,-10,-15,-6,7,9,4,-6,-9,-9,-19,-20,-26,-27,-27,-26,-23,-26,-24,-23,-24,-21,-23,-28,-27,-23,-21,-22,-22,-25,-25,-23,-19,-17,-26,-27,-17,-18,-25,-17,-17,-15,-4,11,3,-2,7,-7,-17,-23,-25,-30,-33,-34,-41,-98,-332,-405,-94,887,1407,562,-31,-215,-122,-72,-50,-36,-30,-28,-25,-20,-25,-19,-16,-14,-3,2,0,0,-6,-6,-14,-5,-10
2019-06-04,15:04:03.707,-46,-47,-48,-42,-27,-15,-17,-21,-26,-28,-36,-31,-36,-36,-41,-45,-45,-51,-54,-51,-51,-53,-47,-46,-46,-48,-45,-45,-47,-46,-47,-40,-39,-36,-31,-39,-25,-27,-33,-38,-35,-37,-37,-41,-25,-15,-19,-23,-18,-26,-37,-39,-48,-47,-49,-50,-58,-114,-327,-371,-75,832,1281,431,-106,-306,-191,-98,-65,-55,-49,-42,-37,-26,-15,-11,-9,0,2,6,5,10,16,19,27,35,41,46,49,47,53,54,66,58,38,23,19,7,-4,-12,-18,-10,-13,-16,-18,-19,-17,-15,-12,-13,-5,-8,-6,-9,-6,-13,-16,-12,-14,-18,-19,-22,-19,-21,-19,-21,-24,-17
2019-06-04,15:04:04.731,-61,-59,-42,-33,-46,-47,-39,-50,-66,-78,-77,-77,-77,-78,-88,-159,-360,-337,83,956,1063,157,-336,-499,-308,-155,-103,-89,-79,-61,-50,-45,-43,-31,-20,-21,-11,0,5,20,29,44,58,77,89,102,110,112,111,106,99,72,41,27,8,-10,-17,-26,-33,-35,-32,-34,-34,-35,-40,-44,-38,-42,-31,-33,-37,-31,-26,-25,-39,-41,-40,-40,-43,-50,-56,-50,-44,-37,-34,-13,0,2,-4,-13,-27,-38,-51,-57,-57,-56,-58,-59,-77,-200,-344,-183,403,1207,632,-128,-477,-435,-203,-104,-79,-64,-47,-33,-32,-21,-11,-8,-3,0,10,17,26,34,51,68,75,87
2019-06-04,15:04:05.756,54,68,68,78,76,79,64,42,14,-14,-30,-47,-60,-62,-64,-61,-63,-67,-67,-62,-63,-57,-53,-53,-48,-44,-50,-49,-50,-48,-51,-52,-51,-57,-65,-59,-60,-66,-59,-61,-61,-68,-62,-41,-28,-25,-20,-29,-33,-46,-58,-61,-60,-63,-68,-60,-74,-182,-391,-315,219,1177,967,50,-424,-449,-220,-105,-79,-61,-49,-43,-30,-24,-23,-14,-9,-1,5,7,13,20,34,41,53,66,74,77,86,86,92,90,82,67,41,22,5,-7,-17,-23,-25,-31,-32,-25,-29,-24,-25,-22,-23,-26,-22,-23,-24,-30,-25,-26,-30,-27,-22,-27,-31,-30,-27,-33,-35,-33,-38,-31
2019-06-04,15:04:06.781,-74,-75,-77,-72,-68,-64,-55,-39,-31,-17,-34,-30,-34,-49,-62,-60,-60,-58,-58,-59,-79,-240,-448,-306,382,1332,856,5,-367,-251,-126,-76,-67,-66,-63,-56,-55,-49,-48,-41,-30,-28,-26,-24,-21,-22,-20,-17,-19,-21,-26,-25,-15,-17,-7,6,14,17,9,6,-2,-12,-19,-25,-23,-16,-15,-12,-10,-10,-13,-13,-11,-18,-14,-15,-19,-14,-18,-15,-17,-21,-21,-20,-18,-18,-20,-17,-22,-23,-20,-26,-24,-26,-20,-19,-24,-21,-9,4,12,20,11,14,-1,-16,-24,-19,-22,-15,-16,-26,-102,-369,-403,-42,921,1332,477,-68,-219,-106,-67,-54,-53,-52,-45,-38
2019-06-04,15:04:07.805,-93,-87,-80,-75,-71,-66,-65,-63,-62,-58,-69,-58,-58,-64,-71,-77,-74,-71,-64,-48,-44,-36,-34,-35,-38,-41,-44,-48,-43,-36,-29,-33,-33,-32,-32,-28,-26,-32,-34,-31,-31,-32,-31,-31,-29,-32,-30,-33,-29,-30,-36,-33,-42,-40,-37,-35,-34,-29,-30,-29,-17,1,10,13,3,2,-4,-16,-24,-23,-24,-25,-33,-29,-62,-280,-445,-236,563,1414,748,115,-193,-130,-71,-53,-42,-39,-33,-26,-27,-18,-17,-10,-10,-6,-1,0,2,4,-1,-8,-9,-15,-23,-25,-30,-34,-24,-7,-5,-2,5,4,6,0,-2,0,-1,3,12,12,11,10,11,8,11,9
2019-06-04,15:04:08.830,-56,-55,-56,-63,-63,-61,-64,-65,-59,-58,-63,-60,-59,-55,-59,-56,-57,-56,-54,-55,-51,-43,-26,-21,-16,-21,-21,-35,-46,-50,-52,-50,-52,-53,-60,-83,-266,-477,-326,385,1345,860,166,-191,-168,-100,-78,-78,-73,-65,-58,-55,-49,-45,-41,-39,-40,-36,-33,-30,-26,-23,-33,-34,-45,-53,-51,-54,-49,-42,-25,-15,-14,-7,-7,-17,-12,-17,-25,-17,-12,-11,-10,-9,-11,-10,-16,-18,-11,-15,-13,-16,-15,-16,-19,-17,-19,-14,-18,-18,-21,-21,-24,-26,-29,-29,-34,-33,-26,-22,3,13,8,11,13,3,-15,-33,-34,-36,-36,-34,-31,-46,-165,-414,-376,149
2019-06-04,15:04:09.855,1155,1117,302,-142,-227,-128,-103,-84,-76,-75,-73,-69,-62,-56,-48,-46,-43,-33,-32,-30,-27,-29,-26,-28,-30,-33,-37,-38,-37,-29,-21,-8,-6,-14,-15,-16,-20,-22,-24,-22,-20,-19,-14,-10,-12,-9,-13,-16,-11,-10,-13,-15,-5,-5,-11,-12,-11,-9,-8,-8,-9,-9,-6,-10,-12,-14,-11,4,32,33,41,34,28,16,-1,-6,-9,-9,-12,-9,-10,-44,-248,-393,-169,600,1429,689,28,-286,-220,-79,-49,-34,-28,-15,-1,0,10,15,22,27,33,38,40,50,51,57,61,63,64,65,64,62,60,67,71,66,52,40,35,28,24,21,18,19,22,25
2019-06-04,15:04:10.879,16,17,19,17,21,23,19,21,20,22,18,23,25,20,18,22,20,19,17,15,10,10,14,38,61,55,61,57,49,35,15,7,4,6,4,1,-4,-39,-274,-402,-158,693,1528,727,39,-273,-178,-65,-32,-18,-13,-5,0,1,9,9,13,18,20,20,25,29,35,35,37,39,36,35,32,34,33,41,47,40,36,29,21,11,6,3,0,2,4,6,5,0,0,0,6,5,5,5,3,4,5,4,5,4,1,4,0,-4,-6,-10,-5,-8,-12,-13,-2,6,20,37,33,22,23,5,-12,-19,-28,-26,-25,-28,-27,-61,-270,-452,-245,551
2019-06-04,15:04:11.904,1415,784,56,-266,-187,-127,-96,-94,-88,-85,-81,-74,-74,-67,-66,-57,-47,-45,-43,-39,-39,-43,-46,-44,-47,-51,-57,-56,-48,-34,-27,-20,-21,-19,-22,-31,-27,-36,-31,-36,-34,-27,-25,-23,-24,-28,-28,-29,-21,-25,-23,-17,-24,-22,-21,-25,-25,-24,-26,-24,-23,-23,-27,-27,-31,-33,-34,-33,-25,-21,-8,11,12,2,6,2,-12,-22,-27,-23,-31,-30,-25,-36,-164,-368,-331,236,1257,1076,305,-140,-176,-85,-60,-49,-47,-42,-32,-34,-34,-27,-21,-19,-17,-12,-11,-16,-14,-8,-5,-4,-10,-11,-17,-14,-5,0,7,14,16,15,10,0,-1,-2,-3,-10
2019-06-04,15:04:12.929,59,65,63,58,62,64,62,63,63,62,60,58,57,65,64,65,71,70,71,66,59,61,69,64,60,62,58,53,54,54,64,66,76,88,75,74,73,61,44,33,32,29,32,30,17,-42,-251,-299,30,970,1322,457,-94,-303,-167,-54,-23,-17,-14,-5,0,9,15,19,23,25,30,39,37,42,52,57,58,62,69,70,70,72,80,81,74,61,45,33,16,4,8,3,1,0,5,1,-4,-8,-15,-14,-6,-7,-4,-5,-1,-4,-5,1,-3,-6,-6,-8,-5,-10,-10,-14,-17,-16,-15,-17,-22,-20,-19,-13,-5,-3,16,37,22,14,14,-1
2019-06-04,15:04:13.953,-46,-54,-55,-55,-57,-56,-56,-106,-348,-446,-170,711,1440,562,-121,-403,-255,-128,-88,-75,-65,-62,-54,-49,-46,-36,-38,-22,-19,-19,-15,-12,-5,2,8,15,14,20,17,19,30,39,42,37,25,15,0,-10,-20,-29,-27,-29,-24,-29,-31,-22,-26,-26,-29,-30,-27,-30,-24,-24,-26,-28,-26,-23,-24,-26,-22,-28,-24,-23,-21,-25,-23,-25,-23,-26,-24,-21,-17,-20,-18,-10,-6,12,29,21,13,16,6,-10,-21,-25,-31,-26,-31,-31,-86,-329,-429,-149,740,1435,576,-74,-314,-176,-91,-64,-54,-41,-40,-29,-32,-24,-25,-17,-13,-10,-5,-3,-1,4,9,12
2019-06-04,15:04:14.978,-7,-14,-13,-19,-17,-16,-6,-3,-5,3,-9,-17,-20,-28,-29,-29,-28,-30,-31,-25,-25,-27,-28,-21,-20,-26,-26,-26,-27,-25,-29,-31,-28,-26,-25,-32,-24,-30,-33,-34,-36,-38,-41,-38,-40,-40,-39,-37,-38,-37,-25,-18,-17,-2,15,7,1,7,-2,-13,-21,-26,-27,-32,-28,-34,-80,-315,-448,-216,620,1413,680,44,-244,-168,-107,-75,-72,-72,-67,-65,-58,-57,-45,-41,-40,-33,-31,-24,-24,-14,-14,-17,-18,-25,-25,-30,-35,-31,-13,2,-1,-5,-8,-10,-15,-17,-25,-33,-29,-23,-18,-8,-9,-4,-6,-12,-11,-4,1,3,8,9,3,-1,-5,-5
2019-06-04,15:04:16.003,-19,-22,-24,-28,-35,-42,-41,-45,-44,-43,-49,-44,-46,-46,-47,-49,-39,-32,-32,-43,-22,32,9,6,11,2,-16,-25,-27,-30,-33,-37,-39,-99,-366,-462,-153,796,1476,710,86,-158,-99,-76,-58,-59,-56,-50,-52,-48,-49,-48,-45,-47,-45,-50,-44,-48,-50,-53,-65,-73,-83,-85,-90,-91,-80,-75,-63,-46,-30,-20,-19,-15,-15,-23,-15,-13,-12,-13,-18,-22,-22,-20,-26,-21,-19,-18,-15,-2,0,-1,-7,-4,-6,-4,-6,-9,-13,-19,-22,-27,-26,-22,-21,-16,-7,-11,16,24,39,58,66,62,55,42,9,-6,-11,-13,-6,2,0,-6,-67,-334,-434,-146
2019-06-04,15:04:17.027,767,1449,734,161,-127,-87,-61,-47,-47,-51,-57,-64,-64,-65,-62,-56,-52,-40,-38,-38,-30,-34,-35,-40,-43,-40,-41,-45,-50,-50,-39,-24,-18,-9,-11,-10,-12,-16,-16,-30,-36,-43,-60,-62,-26,-6,-5,-3,-1,1,4,-2,-9,-16,-22,-39,-53,-55,-61,-59,-50,-51,-46,-35,-30,-23,-23,-22,-26,-26,-23,-5,8,12,-4,-1,-13,-39,-55,-56,-61,-56,-53,-62,-69,-151,-412,-470,-37,1042,1332,606,52,-104,-104,-96,-88,-92,-99,-103,-101,-107,-102,-96,-94,-90,-94,-100,-110,-117,-123,-132,-146,-150,-159,-160,-158,-155,-141,-116,-94,-80,-65,-57,-56,-54,-57,-55
2019-06-04,15:04:18.052,-23,-23,-17,-15,-15,-17,-18,-26,-32,-36,-44,-49,-48,-49,-41,-31,-24,-18,-10,-4,-3,-4,-4,-8,-12,-16,-18,-5,2,9,28,40,31,19,19,2,-15,-13,-17,-20,-7,-11,-14,-49,-257,-366,-166,677,1371,692,125,-172,-132,-64,-44,-29,-29,-29,-29,-20,-19,-4,5,7,13,18,21,29,32,26,24,34,43,37,40,46,46,53,57,51,42,32,24,15,12,7,-2,-3,-2,-5,-3,1,5,-1,-3,-6,-4,-1,-2,-2,-2,-9,-6,-9,-13,-7,-11,-9,-16,-17,-12,5,24,24,34,24,13,-2,-18,-26,-30,-37,-37,-39,-37,-99,-323,-372
2019-06-04,15:04:19.077,-84,767,1313,435,-139,-427,-343,-157,-104,-84,-79,-64,-55,-47,-27,-17,-8,-4,-7,2,7,17,32,40,50,63,78,86,95,100,97,96,89,72,47,32,22,5,-5,-5,0,1,6,8,15,16,23,14,12,13,16,28,33,31,26,27,24,22,16,12,18,21,17,14,18,30,62,72,69,53,40,35,15,8,6,4,7,17,25,10,-95,-285,-262,240,1255,1157,285,-230,-349,-153,-37,-11,-2,5,18,26,37,43,49,53,62,75,74,78,92,100,110,124,130,141,144,149,159,162,167,159,145,123,106,91,79,73,68,64,57,53,57,55
2019-06-04,15:04:20.101,-32,-33,-34,-33,-29,-27,-25,-24,-25,-30,-17,-20,-24,-26,-22,-28,-31,-33,-36,-34,-34,-39,-21,-11,0,-10,-5,6,3,5,13,19,14,9,-8,-41,-134,-369,-400,-6,1009,1262,315,-279,-433,-242,-126,-90,-78,-71,-55,-45,-41,-38,-37,-30,-19,-16,-12,1,4,15,31,42,53,52,51,46,41,49,50,51,44,40,26,13,3,-1,-1,6,11,5,-10,-18,-27,-37,-39,-44,-44,-36,-20,-6,6,16,9,0,-7,-17,-16,-17,-9,-15,-25,-39,-49,-41,-34,-31,-20,-2,13,24,0,-12,-11,-22,-35,-42,-21,-17,-24,-22,-39,-187,-452,-383,202,1283
2019-06-04,15:04:21.126,1227,293,-222,-239,-93,-24,-6,2,9,8,7,9,5,6,1,11,20,27,31,34,42,39,40,46,48,48,50,49,51,58,59,47,35,24,15,6,-1,-6,-6,-6,-9,-1,3,1,-3,-10,-10,-7,-11,-16,-19,-22,-24,-21,-18,-21,-16,-17,-19,-23,-26,-31,-35,-28,-33,-22,-26,-34,-34,-36,-37,-37,-31,-25,-22,-10,8,0,-3,-1,-15,-36,-37,-39,-51,-48,-48,-41,-62,-254,-389,-255,523,1378,718,83,-258,-232,-99,-71,-52,-46,-24,-18,-5,4,11,20,21,25,28,29,32,39,44,46,48,39,42,40,38,33,34,39,29,11,-7,-21
2019-06-04,15:04:22.151,92,76,78,81,78,95,103,111,114,120,119,112,117,109,111,112,110,109,84,90,96,93,93,85,80,76,74,75,71,65,56,53,58,48,51,61,81,103,134,162,153,143,128,94,63,38,24,14,6,-5,-22,-124,-395,-374,133,1209,1311,301,-245,-270,-120,-49,-15,-2,10,20,23,24,25,28,27,30,34,21,29,23,13,10,12,18,20,22,31,34,45,54,56,45,39,36,39,45,48,43,23,-3,-19,-20,-23,-31,-39,-42,-40,-34,-31,-25,-23,-24,-21,-14,-13,-10,-12,-8,-14,-11,-18,-14,-15,-15,-18,-11,-6,-6,-6,-3,-4,-7
2019-06-04,15:04:23.175,1,11,26,24,11,4,4,-11,-25,-31,-35,-34,-29,-31,-42,-144,-357,-352,128,1158,1142,295,-190,-296,-142,-75,-53,-41,-32,-28,-27,-15,-11,-6,2,5,12,17,18,27,33,34,44,49,59,58,61,62,71,76,75,61,50,31,16,0,2,-7,-12,-7,-9,-12,-13,-16,-14,-21,-25,-24,-24,-20,-25,-21,-21,-22,-21,-28,-24,-26,-28,-25,-33,-35,-28,-26,-29,-30,-27,-33,-29,-30,-21,-15,5,13,-1,-4,-8,-23,-38,-41,-42,-48,-49,-44,-60,-194,-412,-337,208,1230,1054,170,-303,-407,-210,-110,-81,-70,-60,-48,-41,-33,-20,-20,-14,-5,1,7
2019-06-04,15:04:24.200,14,26,32,40,47,53,70,73,87,94,88,93,71,44,29,10,-5,-14,-13,-22,-25,-32,-33,-30,-22,-16,-10,0,20,28,42,48,48,33,23,11,0,-16,-26,-42,-51,-49,-47,-42,-45,-41,-43,-44,-46,-43,-31,-33,-36,-50,-70,-71,-59,-85,-86,-71,-62,-64,-52,-40,-31,-20,-20,-23,-86,-347,-412,-83,865,1479,521,-112,-364,-216,-78,-27,-17,-2,5,11,-6,-15,-22,-24,-18,-14,-7,6,17,29,32,36,46,54,60,67,74,69,83,98,87,70,65,54,47,41,32,35,26,26,22,15,17,17,18,18,22,32,38,46,46,47,46,45
2019-06-04,15:04:25.224,9,-7,-11,-19,-26,-29,-31,-33,-39,-35,-29,-32,-28,-26,-25,-22,-18,-4,3,-9,-23,-23,-33,-48,-58,-54,-49,-52,-51,-50,-92,-328,-448,-193,668,1456,641,-42,-318,-199,-106,-72,-64,-56,-50,-45,-47,-34,-33,-29,-22,-18,-12,-7,-3,2,2,7,8,14,22,24,23,30,37,40,35,25,13,7,-1,-11,-19,-22,-30,-25,-23,-28,-25,-23,-20,-22,-22,-20,-24,-24,-26,-32,-25,-27,-29,-30,-32,-33,-30,-25,-27,-31,-24,-29,-32,-33,-34,-33,-28,-21,-16,-8,12,26,22,9,10,2,-10,-17,-19,-21,-15,-16,-24,-115,-375,-393,3,1004,1310,373
2019-06-04,15:04:26.249,-145,-304,-152,-77,-54,-49,-40,-30,-29,-26,-19,-18,-7,-1,0,9,11,15,18,21,21,22,25,24,26,26,28,34,33,34,20,6,0,-9,-13,-18,-24,-24,-23,-16,-18,-20,-19,-22,-24,-22,-24,-22,-29,-27,-25,-24,-26,-31,-34,-32,-36,-35,-36,-37,-38,-38,-41,-40,-40,-37,-36,-29,-30,-20,-9,4,22,34,24,20,22,14,0,-8,-10,-18,-19,-17,-37,-157,-426,-385,121,1167,1216,340,-153,-211,-96,-61,-51,-46,-44,-37,-32,-30,-27,-25,-17,-10,-13,-9,-10,-2,-5,-7,-6,-11,-11,-13,-18,-15,-6,5,8,9,8,1,-7,-14,-19,-20
2019-06-04,15:04:27.274,-24,-19,-22,-19,-15,-17,-20,-19,-19,-25,-28,-25,-30,-32,-30,-33,-26,-28,-30,-33,-32,-29,-34,-36,-34,-32,-30,-30,-34,-34,-36,-35,-30,-33,-27,-22,-6,7,14,3,0,-4,-24,-41,-42,-42,-43,-49,-45,-65,-253,-456,-323,369,1384,965,212,-190,-177,-93,-70,-62,-57,-52,-48,-43,-37,-37,-35,-33,-30,-26,-28,-23,-23,-16,-10,-15,-14,-13,-15,-13,-12,-4,7,8,10,6,-3,-12,-18,-17,-18,-21,-19,-21,-13,-11,-14,-16,-14,-11,-18,-20,-15,-14,-16,-13,-12,-15,-17,-11,-11,-9,-10,-9,-12,-16,-10,-12,-13,-8,-10,-12,-10,-16,-21,-15
2019-06-04,15:04:28.298,-7,5,16,26,10,0,1,-16,-31,-38,-38,-37,-39,-40,-55,-206,-420,-321,273,1302,996,160,-283,-320,-146,-86,-63,-59,-50,-44,-37,-29,-19,-10,-6,-1,4,5,10,7,9,15,18,23,23,19,22,21,23,23,22,19,1,-7,-18,-32,-33,-40,-39,-38,-37,-35,-39,-37,-36,-34,-35,-35,-29,-30,-31,-33,-36,-37,-40,-38,-37,-33,-32,-33,-36,-33,-33,-32,-31,-33,-30,-35,-34,-27,-27,-32,-35,-27,-22,-8,0,17,9,0,-2,-17,-27,-29,-30,-33,-34,-28,-42,-173,-433,-382,153,1211,1216,309,-200,-257,-126,-79,-62,-53,-46,-39,-41,-34,-24,-21
2019-06-04,15:04:29.323,-21,-12,-6,-1,-1,4,10,8,11,5,5,1,2,11,6,22,33,37,39,27,18,8,7,4,0,-2,-3,-1,0,-1,0,-4,-6,0,-1,-7,-5,-6,-6,-8,-2,-9,-9,-10,-11,-13,-14,-19,-20,-18,-17,-14,-19,-22,-20,-10,1,-14,-16,1,11,28,36,58,48,43,37,20,4,-1,13,19,27,39,35,-94,-336,-280,259,1269,1110,217,-257,-328,-157,-97,-91,-76,-64,-60,-56,-45,-39,-34,-31,-24,-19,-6,-12,-23,-12,-4,-1,4,6,6,-3,-7,-2,-5,-1,-6,-24,-35,-47,-59,-70,-76,-75,-70,-65,-58,-49,-43,-34,-29,-31,-20
2019-06-04,15:04:30.348,-7,-13,-17,-14,-5,-8,-11,-11,-8,-14,-18,-20,-14,-12,-26,-28,-24,-13,-16,-18,-16,-17,-12,-14,-12,-9,-4,2,4,23,31,18,14,14,-3,-14,-19,-21,-20,-27,-41,-60,-170,-447,-422,98,1183,1261,357,-156,-214,-109,-68,-49,-45,-40,-35,-32,-34,-33,-31,-28,-21,-13,-8,-7,-12,-14,-11,-11,-15,-23,-24,-27,-23,-26,-9,0,6,13,14,3,-4,-8,-10,-18,-18,-13,-9,-9,-5,-6,-9,-11,-13,-11,-6,-14,-19,-13,-14,-16,-19,-22,-22,-23,-26,-20,-21,-28,-22,-17,-18,-17,-12,-14,-17,-20,-9,-4,17,38,35,24,25,13,-7,-17
2019-06-04,15:04:31.372,-19,-21,-23,-32,-34,-59,-275,-470,-291,497,1455,868,133,-219,-157,-88,-51,-44,-45,-43,-44,-39,-34,-30,-28,-30,-23,-8,-9,-18,-13,-16,-20,-12,-11,-19,-28,-19,-11,-5,-3,3,8,7,5,2,-8,-11,-16,-11,-12,-12,-8,-8,-9,-12,-13,-6,-7,-11,-10,-9,-13,-19,-15,-21,-21,-20,-18,-19,-22,-27,-22,-29,-27,-26,-31,-26,-27,-24,-17,-10,9,31,25,12,15,0,-17,-31,-37,-34,-38,-42,-40,-64,-263,-463,-314,419,1443,894,128,-258,-230,-111,-77,-61,-58,-51,-45,-40,-33,-32,-26,-24,-22,-15,-16,-7,-3,3,4,3,5,-1,1,0
2019-06-04,15:04:32.397,4,12,27,25,20,22,2,-4,-1,-16,-20,-12,-15,-12,-11,-16,-16,-6,-6,-9,-17,-13,-12,-13,-18,-20,-15,-17,-21,-15,-26,-21,-24,-27,-28,-27,-26,-30,-28,-33,-31,-24,-22,-3,25,17,11,14,11,-7,-18,-30,-29,-39,-40,-43,-48,-184,-452,-397,168,1250,1153,258,-221,-257,-133,-89,-67,-65,-58,-48,-46,-41,-34,-26,-17,-15,-15,-14,-6,-3,-6,-1,-5,-4,-3,-5,-2,-4,-2,12,21,18,15,8,2,-13,-16,-22,-25,-24,-26,-21,-17,-15,-18,-13,-14,-12,-11,-16,-22,-23,-23,-21,-20,-28,-23,-22,-23,-22,-23,-27,-29,-26,-28,-30
2019-06-04,15:04:33.422,-16,-18,-16,-9,-2,20,34,26,13,15,1,-16,-27,-32,-29,-25,-28,-29,-58,-260,-405,-264,517,1387,745,70,-253,-172,-90,-57,-51,-47,-43,-37,-35,-30,-22,-15,-7,0,4,2,6,6,-1,0,-2,-9,-7,-7,-9,-7,0,16,14,16,14,7,2,0,-3,-12,-11,-7,-9,-10,-15,-18,-15,-16,-8,-10,-9,-14,-17,-12,-15,-14,-14,-21,-24,-23,-22,-23,-27,-30,-32,-29,-22,-29,-29,-26,-29,-22,-16,-8,3,18,11,2,0,-12,-24,-34,-43,-36,-39,-35,-42,-144,-362,-366,91,1092,1118,309,-167,-236,-122,-81,-64,-63,-54,-50,-45,-40,-36,-33
2019-06-04,15:04:34.446,-40,-33,-25,-24,-21,-15,-14,-11,-9,-12,-5,-9,-9,-3,3,18,23,25,19,10,1,-1,-3,-3,-13,-9,-5,-2,-2,-4,-9,-11,-5,-7,-6,-8,-8,-7,-7,-2,0,0,0,-1,-1,3,5,4,1,2,0,2,3,2,9,33,51,56,64,58,53,36,27,18,14,17,13,13,15,-34,-263,-343,-52,796,1426,562,-34,-315,-219,-56,-10,3,16,18,26,36,41,50,62,72,81,86,101,111,117,123,133,140,143,148,152,149,157,158,159,150,136,121,105,92,86,82,76,78,72,75,80,87,84,81,84,82,80,83,81,80,76,80
2019-06-04,15:04:35.471,-69,-75,-79,-90,-82,-83,-85,-85,-86,-91,-92,-90,-86,-88,-87,-80,-59,-43,-28,-26,-41,-47,-57,-74,-77,-80,-83,-80,-83,-83,-133,-349,-420,-138,783,1309,411,-175,-396,-240,-138,-102,-95,-85,-70,-68,-60,-55,-44,-41,-36,-29,-25,-26,-16,-12,-8,1,5,5,13,14,14,18,25,25,21,12,6,-9,-24,-28,-33,-36,-32,-32,-37,-31,-28,-32,-33,-30,-36,-33,-31,-36,-36,-29,-29,-28,-29,-28,-28,-29,-29,-26,-31,-30,-32,-31,-35,-35,-34,-32,-34,-29,-26,-15,-6,7,28,22,19,20,11,12,4,1,-4,-4,-10,-16,-82,-342,-407,-81,831,1373
2019-06-04,15:04:36.496,424,-153,-360,-203,-109,-88,-78,-73,-62,-65,-69,-60,-62,-66,-58,-49,-40,-40,-27,-17,-14,-6,4,7,2,-4,-8,-7,-1,0,0,-3,-15,-29,-43,-50,-63,-62,-65,-68,-68,-63,-61,-58,-52,-45,-39,-36,-33,-30,-31,-28,-28,-27,-26,-29,-27,-26,-28,-23,-25,-26,-29,-22,-18,-25,-20,-18,-16,-6,-2,2,13,37,38,27,38,28,3,-16,-22,-30,-36,-37,-32,-61,-257,-401,-232,560,1404,843,129,-130,-66,-45,-26,-29,-43,-41,-43,-45,-44,-46,-42,-44,-38,-37,-34,-37,-45,-43,-48,-53,-60,-63,-64,-68,-65,-48,-33,-16,-2,0,1,0,-1,-4
2019-06-04,15:04:37.520,-15,-10,-15,-8,-6,-9,-9,-8,-2,-8,-6,-9,-16,-9,-5,-7,-9,-7,0,-2,-4,-9,-12,-13,-12,-11,-13,-15,-8,-9,-13,-15,-13,-11,-8,-5,6,26,31,18,21,21,3,-6,-8,-10,-11,-11,-11,-20,-138,-347,-329,208,1214,1079,301,-147,-191,-87,-47,-30,-26,-23,-21,-16,-11,-7,-1,2,0,4,8,13,18,18,13,10,10,11,11,9,10,20,27,34,33,28,25,17,9,1,-5,-8,-10,-9,-7,-11,-12,-9,-8,-11,-16,-12,-13,-15,-14,-9,-9,-9,-8,-5,-3,-1,-1,1,7,6,12,7,6,4,0,3,3,15,27,42
2019-06-04,15:04:38.545,31,28,39,34,-2,-18,-33,-39,-37,-31,-59,-115,-189,-461,-495,-87,887,1265,332,-147,-308,-159,-46,-16,-8,-18,-38,-55,-58,-62,-54,-55,-67,-74,-101,-137,-160,-163,-152,-142,-124,-100,-68,-34,-6,20,46,46,61,55,42,20,16,7,-7,-23,-36,-53,-52,-58,-59,-53,-41,-37,-40,-28,-29,-35,-32,-24,-7,-9,-13,-18,-25,-43,-57,-64,-54,-40,-15,19,38,51,57,57,66,72,58,40,13,-5,-16,-35,-50,-44,-41,-38,-44,-38,-49,-167,-395,-379,158,1185,1150,370,-101,-137,-80,-59,-56,-55,-59,-57,-54,-54,-51,-53,-49,-46,-42,-36,-44,-47,-53,-58
2019-06-04,15:04:39.570,-59,-56,-66,-62,-55,-37,-23,-6,14,25,25,28,29,22,18,16,7,5,1,-1,3,-3,-12,-16,-17,-20,-23,-22,-21,-10,-8,-14,-5,-4,-4,-4,-15,-21,-28,-28,-27,-31,-22,-16,21,22,22,32,31,23,4,-5,-7,-12,-9,-7,-5,-13,-99,-337,-363,63,1071,1260,471,-35,-126,-73,-47,-38,-27,-33,-35,-27,-35,-40,-39,-39,-36,-33,-27,-34,-32,-35,-35,-36,-46,-48,-51,-48,-50,-45,-23,-5,4,9,12,13,7,3,1,2,4,-1,-3,0,-3,-8,-10,-7,-14,-17,-19,-25,-15,-20,-24,-26,-28,-30,-36,-38,-37,-35,-35,-37,-32,-23
2019-06-04,15:04:40.594,-7,15,23,32,46,35,20,2,-20,-26,-24,-26,-33,-32,-32,-63,-277,-390,-192,672,1399,683,121,-173,-142,-80,-65,-54,-50,-42,-37,-29,-24,-25,-19,-17,-16,-10,-8,-7,-10,3,4,1,0,-5,-7,0,6,14,13,20,18,10,0,-7,-14,-17,-20,-18,-22,-9,-7,-7,-3,4,11,10,5,5,5,10,15,8,8,10,8,5,-9,-7,-12,-17,0,16,6,11,8,5,-19,-37,-41,-37,-31,-40,-41,-40,-79,-292,-450,-239,539,1400,619,-30,-354,-284,-129,-89,-74,-61,-56,-38,-17,-28,-29,-30,-22,-19,-14,-8,2,9,16,24,36,48,58,70
2019-06-04,15:04:41.619,127,137,134,134,123,104,87,65,53,44,28,28,25,21,12,8,16,19,17,14,16,14,16,16,13,8,19,12,0,-8,-9,-11,-15,-37,-25,-12,-14,-6,11,15,21,15,10,-2,-23,-43,-40,-40,-37,-39,-38,-41,-180,-385,-323,318,1339,1041,258,-148,-140,-77,-52,-38,-38,-42,-46,-51,-52,-50,-42,-28,-32,-32,-24,-19,-14,-29,-24,-30,-31,-28,-33,-26,-23,-13,3,2,4,1,-6,-12,-13,-21,-22,-23,-16,-18,-14,-14,-19,-24,-30,-31,-29,-32,-29,-30,-29,-31,-34,-30,-29,-28,-31,-32,-32,-37,-36,-36,-33,-22,-12,0,-2,-14,-13,-18
2019-06-04,15:04:42.644,22,17,13,15,7,8,3,-17,-197,-375,-271,481,1406,909,237,-122,-99,-54,-26,-20,-22,-15,-5,-4,-6,-4,-2,0,1,11,13,9,7,6,6,1,-1,-10,-11,-5,6,13,29,35,33,28,26,18,12,7,13,11,7,10,11,10,7,6,8,11,8,9,10,14,9,10,10,10,7,9,12,11,10,8,5,2,-2,4,8,10,26,46,40,26,25,16,0,-8,-2,-5,-11,-8,-12,-37,-223,-391,-278,472,1384,875,203,-151,-129,-79,-53,-46,-49,-46,-46,-40,-37,-34,-32,-30,-29,-26,-26,-20,-14,-22,-28,-30,-32,-34,-36,-34,-31,-24
2019-06-04,15:04:43.668,3,6,1,-4,-14,-20,-25,-31,-35,-39,-28,-26,-26,-30,-37,-29,-34,-34,-36,-34,-31,-34,-35,-37,-34,-32,-34,-39,-44,-49,-41,-47,-54,-48,-51,-49,-47,-39,-32,-31,-12,-5,-17,-22,-18,-32,-45,-48,-46,-53,-52,-59,-59,-129,-367,-411,-48,936,1247,445,-66,-225,-130,-97,-82,-73,-71,-66,-56,-54,-50,-50,-43,-40,-33,-31,-25,-23,-22,-18,-21,-19,-23,-16,-15,-13,-4,0,5,0,3,-3,-16,-16,-17,-22,-18,-20,-19,-27,-27,-22,-30,-27,-26,-25,-22,-24,-24,-22,-22,-25,-23,-16,-17,-24,-27,-31,-20,-26,-26,-23,-24,-28,-24,-21,-25,-17
2019-06-04,15:04:44.693,-21,-17,-20,-5,-2,-15,-13,-7,-21,-35,-38,-35,-36,-37,-38,-47,-143,-370,-387,65,1085,1177,408,-77,-173,-98,-75,-54,-53,-49,-47,-44,-37,-36,-31,-26,-26,-19,-12,-8,-7,-10,-13,-22,-22,-23,-25,-17,-9,-4,6,14,19,10,5,5,-1,-1,-8,-8,-11,-11,-5,-11,-11,-9,-13,-11,-9,-13,-12,-10,-10,-7,-16,-12,-11,-10,-10,-13,-15,-16,-16,-19,-19,-17,-19,-20,-17,-20,-13,-17,-15,-10,-6,-6,-8,1,15,15,11,16,-2,-13,-26,-28,-30,-24,-28,-28,-89,-326,-394,-80,867,1324,567,34,-159,-93,-64,-46,-46,-42,-32,-34,-33,-31
2019-06-04,15:04:45.718,20,30,35,35,33,37,35,31,24,24,19,20,23,15,19,24,36,46,46,50,40,36,35,28,25,19,21,19,13,20,16,17,15,16,16,13,14,14,14,12,8,10,11,12,8,8,3,8,1,-1,0,0,0,0,-1,-3,-5,-7,-5,-8,-5,-4,-3,1,6,2,3,24,24,10,8,10,-3,-17,-19,-21,-21,-22,-29,-45,-214,-451,-342,306,1332,1019,271,-141,-156,-82,-64,-52,-50,-48,-43,-43,-34,-35,-33,-27,-24,-20,-16,-18,-13,-11,-14,-14,-18,-13,-7,-4,-4,2,12,21,24,12,5,-2,-16,-25,-27,-29,-30,-33,-28,-31
2019-06-04,15:04:46.742,36,35,37,33,37,34,31,25,20,18,20,21,14,21,21,19,20,13,6,6,2,-3,4,2,-2,-6,-8,-17,-13,-13,-13,-13,-14,-13,-10,-6,-8,-3,25,25,13,12,9,-3,-12,-20,-21,-13,-11,-12,-38,-233,-419,-256,450,1405,848,154,-195,-177,-66,-45,-38,-34,-26,-28,-21,-13,-9,-12,-5,2,4,5,11,15,14,17,20,18,11,15,18,23,27,35,38,38,36,28,13,4,-5,-7,-8,-8,-6,-4,-4,-9,-9,-6,-8,-15,-17,-11,-12,-8,-10,-10,-12,-15,-13,-19,-16,-25,-22,-20,-21,-21,-24,-21,-27,-32,-31,-27,-24,-26
2019-06-04,15:04:47.767,64,59,59,65,65,66,93,95,79,80,73,59,47,37,31,35,33,29,11,-133,-378,-303,255,1289,1123,311,-122,-174,-57,-26,-12,-7,-1,-1,0,4,5,10,16,16,18,25,29,34,32,35,34,27,34,30,31,31,34,41,42,45,40,26,19,15,7,0,-6,-9,-8,0,0,-2,-2,-3,-4,-6,-8,-10,-14,-19,-16,-22,-16,-19,-15,-18,-21,-22,-23,-25,-21,-27,-30,-31,-29,-28,-30,-26,-28,-31,-29,-35,-34,-31,-24,-17,2,20,8,-2,3,-8,-24,-37,-37,-37,-39,-36,-37,-114,-383,-421,-56,906,1362,503,-25,-216,-124,-87,-68,-62
2019-06-04,15:04:48.792,25,23,26,30,32,35,35,42,45,48,50,51,50,50,46,43,37,40,34,34,40,47,54,61,57,52,47,32,25,23,23,23,20,22,21,22,17,21,23,23,30,25,21,18,18,19,12,13,11,6,4,6,0,-1,-4,-3,-8,-6,-3,-10,-6,-8,-5,-12,-7,0,11,29,45,29,26,20,0,-16,-19,-14,-16,-22,-18,-28,-100,-344,-387,-6,976,1281,516,-1,-142,-79,-63,-52,-50,-49,-49,-47,-49,-45,-38,-39,-31,-29,-33,-31,-36,-33,-36,-41,-48,-50,-52,-52,-49,-35,-28,-16,-3,-3,-1,-8,-5,-15,-14,-14,-19,-17,-16,-17
2019-06-04,15:04:49.816,43,40,38,31,36,39,30,33,32,34,32,31,27,28,24,22,23,22,19,21,16,7,9,10,7,8,7,0,3,9,29,43,49,48,36,33,15,-5,-7,-10,-7,-14,-12,-18,-75,-312,-387,-84,859,1327,546,32,-171,-97,-65,-47,-41,-41,-39,-38,-29,-31,-30,-26,-23,-25,-21,-13,-18,-14,-16,-21,-25,-30,-33,-36,-29,-20,-10,2,11,10,9,12,2,-2,-9,-9,-18,-16,-14,-16,-14,-19,-18,-15,-20,-19,-20,-16,-18,-20,-19,-25,-23,-24,-25,-27,-28,-31,-36,-31,-30,-32,-29,-34,-33,-35,-37,-29,0,-1,-2,2,-4,-10,-20,-31
