2019-06-03,11:04:42.099,-2705,-2648,-2577,-2545,-2712,-2770,-2102,-1438,-1382,-1563,-1713,-1762,-1804,-1818,-1786,-1732,-1675,-1605,-1550,-1493,-1438,-1391,-1339,-1287,-1235,-1206,-1155,-1102,-1046,-1000,-954,-904,-869,-809,-752,-704,-644,-579,-531,-480,-423,-381,-345,-305,-276,-237,-203,-171,-144,-112,-84,-49,-32,-24,-19,-19,-19,-37,-30,-49,-67,-23,-24,-33,-48,-70,-80,-100,-120,-141,-149,-175,-220,-281,-333,-393,-443,-493,-541,-599,-679,-777,-900,-1016,-1111,-1189,-1266,-1358,-1432,-1493,-1541,-1543,-1528,-1534,-1521,-1499,-1463,-1450,-1402,-1337,-1393,-1595,-1483,-645,-91,-124,-378,-534,-625,-682,-717,-687,-642,-618,-599,-581,-564,-543,-528,-503,-497,-483,-474,-469,-436,-396,-359,-320
2019-06-03,11:04:43.123,-3347,-3269,-3183,-3091,-3004,-2907,-2794,-2696,-2601,-2503,-2407,-2338,-2261,-2193,-2128,-2095,-2044,-1966,-1894,-1829,-1771,-1721,-1663,-1587,-1511,-1433,-1363,-1295,-1227,-1172,-1141,-1099,-1050,-1024,-1003,-964,-991,-1035,-1094,-1120,-1152,-1188,-1190,-1177,-1166,-1159,-1156,-1160,-1140,-1125,-1108,-1077,-1049,-1022,-999,-965,-927,-897,-868,-838,-799,-760,-731,-689,-656,-622,-596,-578,-564,-554,-550,-578,-782,-937,-384,314,500,225,-30,-178,-306,-382,-388,-375,-364,-343,-312,-286,-255,-222,-196,-167,-146,-127,-113,-105,-106,-87,-59,-34,-10,6,14,34,43,46,80,130,161,182,199,212,221,228,230,221,214,203,199,200,204,206,207,219,230,247,263,277
2019-06-03,11:04:44.148,-1679,-1640,-1617,-1591,-1557,-1522,-1484,-1445,-1408,-1373,-1340,-1300,-1267,-1235,-1199,-1158,-1118,-1085,-1048,-1021,-990,-951,-920,-895,-867,-840,-810,-790,-761,-731,-697,-668,-651,-622,-597,-579,-552,-536,-520,-510,-503,-492,-484,-501,-677,-891,-536,278,579,395,139,-23,-164,-272,-313,-314,-305,-302,-291,-277,-267,-256,-246,-224,-210,-202,-200,-210,-214,-219,-222,-221,-230,-227,-221,-216,-201,-178,-157,-123,-90,-55,-40,-12,4,18,24,29,40,47,53,63,72,81,86,93,102,105,106,108,100,91,86,86,83,84,93,98,102,100,105,111,107,100,104,110,120,112,109,114,115,109,104,109,109,106,108,95
2019-06-03,11:04:45.173,-185,-169,-148,-121,-101,-87,-74,-60,-40,-27,-21,-17,-13,-11,-9,-1,2,-2,1,-11,-174,-473,-311,582,1080,980,660,412,243,94,12,-20,-45,-64,-90,-106,-114,-129,-141,-151,-165,-176,-184,-177,-186,-200,-218,-245,-254,-258,-267,-272,-268,-259,-256,-234,-205,-181,-168,-155,-143,-127,-122,-115,-103,-100,-103,-90,-90,-94,-92,-92,-81,-89,-97,-92,-112,-134,-142,-148,-134,-126,-115,-110,-105,-92,-99,-112,-123,-154,-172,-180,-192,-193,-192,-195,-172,-137,-142,-157,-119,-136,-117,-136,-138,-137,-131,-116,-98,-68,-38,-15,-7,-18,-58,-30,54,79,-59,-304,-206,567,964,892,684,552,449,283
2019-06-03,11:04:46.197,674,608,589,593,604,603,599,593,587,579,577,575,573,551,524,506,492,457,421,383,348,315,292,299,312,316,330,365,394,434,483,513,464,400,356,343,340,323,299,275,256,243,225,203,189,198,209,220,234,244,242,242,237,240,240,236,245,237,225,211,190,179,162,130,107,105,109,113,99,91,83,76,70,61,60,74,76,76,87,89,93,89,93,82,74,-26,-281,-356,331,879,883,692,439,270,146,60,24,3,-8,-17,-8,-10,-16,-20,-13,-15,-23,-22,-14,-12,-18,-18,-15,-24,-38,-41,-37,-30,-18,-10,1,23,39,42,47,55,58,58
2019-06-03,11:04:47.222,865,854,837,817,811,791,773,757,736,710,682,660,641,618,599,586,575,564,543,503,472,447,413,387,362,326,298,274,244,208,176,143,117,106,122,127,136,149,148,146,150,172,182,167,141,104,-74,-314,-125,706,1072,909,665,474,314,184,103,64,34,12,-12,-37,-67,-100,-133,-160,-178,-203,-228,-247,-253,-260,-269,-275,-291,-312,-319,-316,-307,-296,-286,-275,-267,-258,-250,-235,-233,-230,-228,-212,-201,-200,-200,-197,-184,-179,-183,-194,-199,-198,-200,-199,-195,-191,-189,-187,-181,-172,-165,-162,-159,-159,-162,-151,-149,-142,-134,-123,-109,-106,-85,-66,-44,-27,-11,-5,16,29
2019-06-03,11:04:48.247,1005,994,985,980,879,630,602,1284,1788,1692,1494,1279,1132,1004,906,854,826,812,788,773,761,755,730,720,710,697,683,673,660,647,639,623,605,596,591,576,559,556,561,568,569,564,564,557,545,539,532,521,510,506,495,482,469,458,446,443,428,416,413,395,386,382,383,380,375,376,375,371,361,356,355,351,338,327,330,333,334,320,309,290,286,304,321,316,319,324,287,76,-129,223,1138,1340,1007,716,579,453,323,249,218,189,158,140,124,102,79,51,28,-6,-36,-69,-103,-136,-171,-200,-229,-256,-286,-306,-331,-353,-362,-363,-357,-352,-344,-335,-321,-314
2019-06-03,11:04:49.271,826,810,789,773,755,727,712,702,680,646,617,596,568,545,529,509,485,465,453,440,427,422,412,405,411,422,431,440,443,449,446,447,441,434,410,367,321,268,190,115,48,13,7,24,46,-13,-237,-186,598,1142,1143,897,683,537,402,304,269,254,239,210,176,137,101,67,42,23,8,4,10,-5,-8,7,0,-23,-11,1,6,16,53,88,151,204,236,240,233,222,190,161,133,111,93,82,51,31,27,27,58,78,96,155,215,290,372,426,447,464,466,454,430,410,430,475,514,548,587,605,616,612,602,597,588,560,534,521,516,475,463,427
2019-06-03,11:04:50.296,1381,1345,1320,1285,1174,870,752,1377,1986,2057,1794,1513,1301,1073,1009,889,824,815,741,660,631,580,551,439,457,386,339,256,171,137,59,-7,-69,-116,-159,-188,-199,-188,-155,-103,-50,-9,21,45,64,68,73,64,52,36,29,17,-5,-30,-49,-71,-94,-107,-101,-103,-110,-118,-118,-119,-119,-110,-107,-103,-102,-110,-107,-116,-123,-133,-151,-161,-194,-224,-236,-267,-303,-346,-372,-391,-403,-423,-458,-479,-497,-523,-530,-528,-524,-517,-499,-455,-459,-702,-888,-305,451,858,723,416,226,83,-10,-30,-4,29,69,107,151,187,219,244,265,286,306,316,324,327,329,322,321,319,316,310
2019-06-03,11:04:51.321,1240,1231,1231,1238,1251,1250,1243,1234,1231,1218,1192,1159,1118,1076,1038,996,947,900,838,783,729,660,584,508,430,362,295,227,168,113,64,15,-25,-62,-90,-109,-115,-103,-85,-51,-11,33,77,124,167,214,259,305,349,376,395,416,430,425,424,413,389,372,345,327,174,-138,-90,635,1174,1258,984,694,507,342,249,221,198,189,173,169,148,138,128,120,108,92,86,82,70,59,45,32,28,3,-18,-40,-46,-55,-57,-41,-22,-7,-8,10,25,40,58,75,80,88,90,85,78,71,72,72,61,49,49,50,38,37,32,30,24,26,31,34,34,38,32,35
2019-06-03,11:04:52.345,1284,1274,1254,1228,1208,1190,1161,1136,1100,1078,1045,1018,977,926,879,819,793,750,687,656,641,649,667,578,338,387,1155,1731,1887,1634,1312,1103,926,806,751,711,675,644,616,602,576,555,533,500,473,447,415,373,320,274,235,205,199,198,210,209,208,225,259,272,277,290,278,261,246,248,246,219,184,153,110,58,21,-29,-56,-84,-110,-148,-182,-191,-215,-218,-234,-251,-271,-273,-267,-274,-294,-280,-271,-248,-237,-235,-236,-219,-202,-194,-175,-175,-177,-169,-177,-190,-197,-220,-223,-207,-196,-186,-165,-131,-89,-57,-197,-434,-122,729,1226,1208,862,615,420,255,175,148,122,117
2019-06-03,11:04:53.370,1479,1434,1401,1378,1346,1307,1289,1259,1221,1184,1148,1116,1077,1033,992,947,919,891,864,856,839,833,840,842,834,815,784,753,718,678,663,647,638,631,614,603,592,567,552,535,521,506,494,479,455,419,419,384,346,339,303,274,250,225,194,163,133,119,95,98,84,91,115,136,141,124,101,96,88,74,57,59,-4,-284,-502,49,841,1074,871,555,344,187,56,-19,-46,-57,-91,-107,-101,-105,-134,-126,-138,-146,-147,-151,-160,-172,-190,-195,-186,-200,-202,-204,-204,-203,-186,-149,-105,-70,-43,-7,15,29,31,51,49,35,34,45,40,28,40,39,45,37,18,0
2019-06-03,11:04:54.395,1761,1724,1694,1665,1667,1658,1639,1613,1577,1556,1513,1488,1460,1434,1405,1392,1375,1342,1314,1281,1270,1254,1242,1235,1213,1201,1185,1149,1004,654,624,1461,2119,2239,1919,1561,1323,1114,980,923,884,861,841,818,800,782,764,742,724,721,703,684,651,626,590,555,511,476,456,433,404,392,391,400,409,411,413,409,402,401,401,399,394,388,372,367,365,375,367,346,325,297,257,207,145,105,85,59,12,-34,-52,-139,-238,-301,-335,-382,-414,-432,-448,-461,-448,-435,-420,-407,-395,-383,-377,-362,-351,-340,-336,-346,-364,-568,-874,-635,135,691,762,410,105,-100,-272,-355,-385,-413,-423,-431
2019-06-03,11:04:55.419,1040,1008,978,948,922,897,876,865,849,833,820,801,788,768,757,743,721,714,709,713,718,725,727,727,721,708,694,690,676,661,661,654,654,655,647,646,651,654,659,659,664,664,661,641,610,582,538,463,431,479,497,477,458,449,446,441,441,434,410,383,358,333,335,346,354,355,360,366,284,11,-71,621,1240,1420,1173,844,619,430,299,241,205,184,165,157,143,137,130,124,112,96,79,62,43,25,4,-18,-48,-70,-87,-109,-127,-139,-136,-133,-121,-118,-110,-104,-95,-88,-91,-94,-101,-117,-129,-133,-143,-152,-155,-161,-166,-171,-176,-187,-201,-205,-221,-237
2019-06-03,11:04:56.444,516,495,467,441,419,398,379,358,330,306,294,279,280,280,273,266,247,237,230,225,220,220,217,206,175,-16,-219,103,869,1117,900,642,477,343,228,169,151,135,117,104,93,74,61,65,73,80,89,94,93,102,101,112,124,139,153,156,159,165,179,193,199,198,202,198,187,174,153,137,124,118,119,125,135,134,128,135,132,138,157,172,173,169,162,158,161,164,166,164,157,153,142,132,121,106,99,85,83,85,83,76,72,76,69,55,46,34,18,0,-14,-55,-261,-487,-121,690,945,681,418,248,106,-10,-72,-94,-110,-115,-132,-139,-148,-152
2019-06-03,11:04:57.469,165,155,147,137,136,123,112,101,96,86,76,65,59,59,59,63,84,102,106,108,104,96,96,97,89,86,75,68,61,53,52,49,46,42,39,37,36,41,43,45,51,52,53,58,57,59,61,66,61,62,59,52,49,47,43,39,41,46,47,47,47,47,49,45,42,35,41,44,50,39,-127,-394,-170,682,1128,991,688,461,293,151,85,71,55,54,65,72,74,79,85,91,101,101,97,92,88,91,76,59,55,55,49,39,34,43,62,69,87,95,101,110,115,121,125,126,127,124,128,125,127,134,136,136,135,135,141,144,144,148
2019-06-03,11:04:58.493,238,242,244,244,248,246,249,241,236,231,232,234,232,231,227,223,218,204,190,180,178,180,171,141,111,78,52,33,22,5,-7,-16,-92,-354,-425,272,889,858,604,357,207,89,8,-20,-25,-26,-25,-25,-21,-26,-20,-27,-33,-42,-52,-58,-71,-82,-97,-105,-105,-109,-108,-113,-121,-113,-104,-107,-110,-113,-122,-138,-156,-168,-179,-181,-180,-178,-178,-192,-194,-193,-173,-195,-176,-195,-221,-202,-155,-124,-106,-91,-78,-63,-41,-21,-7,2,5,6,5,14,15,18,26,32,34,42,43,55,67,74,87,95,96,98,95,94,85,86,95,81,69,-34,-328,-278,616,1267
2019-06-03,11:04:59.518,1198,787,533,377,220,119,78,58,35,15,-3,-28,-53,-71,-94,-118,-142,-161,-171,-184,-190,-215,-230,-248,-263,-265,-264,-264,-268,-258,-233,-227,-201,-179,-169,-155,-138,-123,-104,-91,-86,-77,-76,-68,-70,-79,-85,-100,-121,-133,-123,-89,-58,-35,-19,-15,-8,-2,4,11,17,20,26,31,34,44,51,61,76,83,94,105,113,124,128,140,145,143,154,164,165,163,162,148,134,127,123,114,104,74,-131,-406,29,942,1378,1082,686,469,286,127,44,17,-4,-23,-31,-42,-57,-69,-76,-81,-90,-103,-112,-133,-153,-173,-193,-214,-234,-252,-263,-266,-275,-274,-266,-251,-229,-210
2019-06-03,11:05:00.543,-120,-108,-98,-89,-79,-69,-67,-61,-57,-49,-44,-42,-36,-39,-39,-41,-39,-35,-35,-25,-19,-13,-7,-4,-2,8,11,10,17,23,32,33,38,47,45,47,51,50,50,56,61,67,66,72,77,71,72,80,79,84,93,104,117,124,124,129,134,135,139,136,74,-211,-343,353,1068,1273,1005,686,473,284,156,105,90,91,87,74,64,54,40,32,21,14,12,4,-3,-13,-21,-35,-54,-68,-78,-90,-95,-93,-78,-61,-38,-23,-11,1,7,13,19,24,26,25,16,16,13,10,9,6,11,11,9,14,17,20,17,25,24,22,25,31,32,31,33,31
2019-06-03,11:05:01.567,-13,-33,-40,-42,-42,-39,-37,-38,-44,-47,-46,-47,-49,-46,-47,-54,-62,-77,-83,-87,-92,-91,-89,-84,-79,-86,-99,-98,-94,-92,-94,-95,-191,-446,-416,384,934,793,505,296,153,23,-62,-87,-98,-110,-117,-123,-126,-130,-136,-141,-143,-141,-144,-145,-145,-142,-157,-181,-184,-179,-183,-182,-173,-162,-142,-121,-99,-84,-66,-56,-53,-51,-46,-44,-48,-48,-53,-56,-60,-57,-60,-60,-58,-65,-67,-66,-68,-71,-74,-76,-72,-69,-67,-60,-66,-69,-73,-74,-73,-85,-144,-233,-35,134,49,-69,-83,-41,-10,11,23,23,34,52,78,88,92,100,104,110,123,134,141,150,151,83
2019-06-03,11:05:02.592,-78,-108,648,1269,1205,896,681,543,404,316,280,255,231,206,183,161,143,123,107,96,83,72,54,28,3,-21,-42,-68,-85,-101,-116,-123,-129,-123,-113,-94,-80,-74,-67,-59,-55,-57,-64,-66,-61,-65,-68,-71,-75,-76,-80,-83,-79,-72,-69,-70,-66,-67,-58,-51,-49,-44,-37,-32,-27,-25,-20,-15,-15,-11,-6,-9,-12,-7,-1,-3,-1,2,7,16,21,20,18,17,14,18,28,29,31,37,40,38,37,40,43,41,19,-183,-420,19,808,1139,899,591,402,236,106,55,32,15,6,1,-7,-9,-14,-19,-24,-31,-38,-41,-47,-55,-65,-73,-90,-101,-107,-110
2019-06-03,11:05:03.617,20,16,14,15,33,49,63,74,76,78,85,91,91,89,86,81,70,64,58,49,39,26,17,12,6,-1,-12,-15,-19,-24,-30,-35,-41,-40,-42,-51,-59,-67,-70,-75,-77,-81,-83,-86,-94,-98,-97,-95,-101,-106,-114,-120,-124,-130,-134,-136,-143,-141,-141,-132,-123,-121,-129,-132,-128,-134,-134,-129,-214,-496,-539,185,819,961,693,393,205,28,-69,-99,-121,-125,-131,-141,-147,-153,-150,-156,-164,-165,-169,-171,-176,-182,-194,-208,-212,-220,-228,-233,-233,-230,-216,-194,-168,-145,-123,-99,-79,-59,-47,-38,-28,-27,-21,-23,-21,-16,-13,-8,-12,-4,-6,0,5,5,11,17
2019-06-03,11:05:04.641,442,441,435,430,429,428,432,427,431,430,428,431,426,428,426,429,428,424,421,420,418,417,415,415,407,400,389,388,374,372,370,379,380,379,370,367,360,357,354,349,290,23,-137,460,1145,1456,1248,897,668,476,344,298,274,259,243,230,226,221,214,203,191,183,169,155,146,133,114,94,81,64,49,38,31,26,35,52,70,88,105,118,125,134,141,147,145,146,141,137,134,132,129,122,117,113,104,99,98,93,88,81,73,70,64,61,55,51,46,45,42,40,40,32,25,22,18,9,9,6,1,-5,-10,-22,-31,-40,-40,-47,-51,-50
2019-06-03,11:05:05.666,531,521,514,504,494,485,466,451,437,430,417,414,356,98,-55,582,1282,1398,1110,825,644,472,363,322,289,269,257,240,227,213,201,184,169,157,145,134,122,101,71,45,36,17,4,-7,-13,-13,-12,-5,5,19,28,26,28,27,27,31,25,20,14,5,-5,-14,-32,-44,-48,-56,-68,-74,-80,-97,-104,-110,-121,-123,-125,-128,-133,-140,-146,-146,-148,-151,-153,-153,-153,-154,-158,-151,-152,-174,-183,-197,-215,-219,-222,-214,-214,-212,-205,-202,-200,-191,-177,-169,-164,-160,-229,-453,-473,247,806,717,453,255,131,30,-49,-69,-80,-91,-88,-88,-87,-85,-84,-80,-78,-74
2019-06-03,11:05:06.691,-65,-63,-62,-67,-63,-71,-80,-86,-87,-88,-84,-83,-68,-56,-39,-32,-27,-24,-27,-26,-29,-34,-28,-29,-23,-20,-23,-25,-20,-10,-17,-27,-30,-25,-15,-8,0,5,17,41,66,64,55,58,62,70,71,74,79,78,80,74,75,82,75,71,81,90,109,110,110,117,120,127,135,142,135,143,148,62,-191,-234,506,1065,1074,826,591,430,292,206,174,155,138,127,118,110,109,102,92,85,69,59,42,23,11,-6,-27,-50,-66,-88,-104,-114,-122,-123,-102,-88,-89,-88,-93,-100,-106,-118,-126,-132,-144,-157,-169,-178,-188,-199,-206,-222,-225,-236,-243,-257,-264,-269
2019-06-03,11:05:07.715,-800,-786,-774,-762,-749,-731,-705,-686,-671,-656,-646,-628,-609,-589,-568,-553,-529,-512,-502,-488,-482,-471,-452,-442,-425,-421,-418,-414,-403,-390,-375,-357,-333,-368,-597,-720,-128,539,744,562,305,147,16,-83,-120,-127,-138,-135,-134,-136,-135,-147,-156,-164,-158,-157,-151,-148,-147,-151,-156,-162,-164,-167,-165,-152,-138,-129,-106,-79,-53,-31,-12,5,26,32,41,46,43,28,25,19,5,0,-16,-30,-48,-60,-75,-91,-114,-136,-152,-164,-179,-189,-209,-216,-222,-233,-236,-235,-235,-241,-245,-250,-254,-259,-267,-273,-270,-279,-279,-274,-267,-263,-241,-206,-170,-129,-84,-41,-64,-272,-356,256,933,1033
2019-06-03,11:05:08.740,592,369,231,111,17,-8,-18,-23,-21,-18,-17,-17,-12,-5,-4,0,0,5,2,-3,-15,-24,-32,-44,-42,-48,-44,-30,-16,-3,2,17,22,22,32,38,38,41,53,57,59,58,53,84,76,-18,-69,-52,-25,6,12,0,37,17,14,21,24,54,87,100,51,-8,-48,-77,-109,-119,-128,-140,-133,-124,-118,-117,-116,-103,-77,-50,-19,10,21,-131,-298,-12,795,1065,915,710,555,418,310,238,205,193,189,173,149,130,107,80,56,40,26,18,14,15,19,8,-10,-23,-30,-38,-37,-32,-23,-10,-11,-22,-28,-25,-28,-40,-40,-47,-48,-54,-50,-48,-55,-49
2019-06-03,11:05:09.765,61,65,67,63,65,65,72,77,79,85,88,87,86,72,49,26,12,-10,-46,-80,-107,-123,-138,-166,-205,-246,-271,-287,-306,-325,-340,-355,-368,-384,-446,-659,-728,-171,569,520,197,23,-20,-63,-112,-102,-75,-54,-44,-38,-26,-9,2,4,13,21,20,12,3,-1,-8,-16,-16,-15,-3,1,4,11,28,50,71,78,87,84,84,101,119,118,110,98,94,101,100,93,84,79,67,61,55,45,24,17,13,15,17,13,11,6,8,1,-24,-36,-47,-61,-72,-95,-123,-162,-189,-223,-244,-264,-287,-296,-305,-330,-376,-616,-849,-483,264,626,511,225,4,-166,-293,-348
2019-06-03,11:05:10.789,-510,-517,-512,-513,-504,-485,-459,-434,-407,-375,-355,-335,-305,-283,-268,-252,-228,-203,-179,-146,-102,-71,-46,-13,26,55,77,83,89,106,114,120,128,134,138,134,121,125,127,126,127,119,108,109,106,113,112,124,137,149,151,159,172,174,181,194,200,214,223,224,216,203,199,188,186,183,183,192,189,181,153,9,-158,65,818,1025,760,564,407,293,184,111,93,85,84,92,108,120,136,156,181,193,194,193,183,179,164,141,124,113,99,87,90,94,101,100,105,106,96,82,83,87,74,60,49,40,37,31,16,14,14,11,10,13,8,0,-14,-25
2019-06-03,11:05:11.814,-265,-284,-301,-318,-340,-362,-386,-406,-426,-438,-451,-460,-459,-448,-447,-452,-469,-494,-520,-542,-571,-608,-640,-674,-707,-738,-859,-1140,-1124,-367,177,115,-234,-468,-584,-690,-752,-761,-746,-722,-706,-679,-645,-605,-578,-556,-537,-523,-521,-521,-510,-500,-485,-463,-425,-376,-322,-263,-197,-123,-46,27,94,147,182,216,252,282,310,329,347,358,353,336,315,300,290,283,271,268,268,275,274,278,282,288,284,287,299,303,301,314,318,317,309,315,325,324,318,307,295,283,265,248,226,211,178,149,120,84,41,14,-31,-74,-127,-182,-235,-384,-654,-517,361,862,607,290,142,82,13,-21
2019-06-03,11:05:12.839,-250,-222,-203,-190,-178,-184,-188,-192,-197,-212,-228,-224,-231,-241,-243,-247,-254,-253,-245,-231,-223,-207,-181,-151,-121,-91,-71,-49,-33,-30,-22,-15,-26,-22,-15,-22,-31,-43,-53,-65,-79,-93,-112,-131,-148,-159,-174,-185,-197,-195,-180,-177,-170,-167,-167,-170,-174,-186,-218,-248,-286,-332,-371,-403,-425,-432,-431,-431,-429,-425,-411,-397,-377,-352,-328,-295,-263,-244,-231,-224,-220,-208,-197,-176,-166,-145,-117,-88,-54,-23,3,25,51,68,88,114,122,-15,-267,-30,882,1382,1187,861,648,494,344,252,217,191,169,158,157,152,147,136,133,127,125,114,111,107,92,81,61,41,27,16
2019-06-03,11:05:13.863,-36,-49,-52,-49,-41,-33,-28,-27,-36,-47,-60,-73,-82,-91,-107,-132,-157,-179,-195,-203,-220,-232,-239,-241,-224,-201,-170,-118,-64,-4,47,93,129,153,167,178,178,171,159,142,140,138,135,132,131,130,126,135,144,149,160,170,172,170,175,176,179,178,178,177,177,178,189,196,206,213,208,185,180,184,185,169,149,50,-248,-326,401,1091,1124,786,496,313,137,4,-57,-96,-129,-163,-189,-226,-259,-284,-303,-301,-307,-306,-313,-320,-326,-333,-329,-316,-316,-310,-302,-288,-281,-260,-243,-217,-186,-171,-154,-144,-132,-132,-129,-112,-99,-82,-65,-44,-21,2,41,69,103,132
2019-06-03,11:05:14.888,209,213,211,212,214,215,216,217,215,203,191,183,161,138,121,107,96,89,80,76,82,88,88,94,102,104,104,111,108,108,114,123,130,129,130,119,115,119,121,122,109,1,-230,-146,619,1104,829,528,347,256,151,65,19,-19,-56,-83,-115,-143,-170,-202,-236,-262,-297,-344,-391,-437,-497,-565,-651,-742,-849,-933,-948,-919,-845,-740,-614,-482,-353,-230,-132,-49,10,52,81,104,118,119,116,113,97,76,57,46,50,65,82,97,121,134,148,159,177,189,207,225,246,258,285,305,319,336,357,376,380,380,388,384,384,388,401,397,395,394,394,381,367,349
2019-06-03,11:05:15.913,534,513,508,484,462,445,425,412,401,393,381,323,52,-135,433,1182,1367,1032,648,376,135,-52,-150,-201,-246,-283,-310,-332,-348,-359,-365,-372,-382,-389,-397,-402,-413,-426,-431,-437,-437,-430,-425,-403,-373,-340,-299,-246,-198,-153,-113,-79,-38,0,26,53,75,95,101,110,115,114,107,96,88,77,68,61,54,43,37,30,26,23,20,14,10,6,14,19,20,29,33,30,32,31,37,42,43,52,54,60,60,60,56,57,58,52,46,35,26,20,3,-4,-13,-18,-25,-32,-47,-55,-65,-78,-91,-94,-147,-389,-532,29,827,975,683,415,281,161,59,22,30,21
2019-06-03,11:05:16.937,498,505,510,515,516,525,528,534,530,519,506,493,475,454,434,415,399,380,371,365,363,372,394,416,435,453,468,473,468,463,460,454,437,411,396,359,325,300,268,248,231,216,205,172,148,124,85,53,20,-17,-53,-81,-115,-138,-171,-198,-204,-207,-208,-214,-219,-230,-236,-241,-256,-288,-299,-300,-309,-315,-301,-270,-225,-175,-125,-81,-40,12,63,86,100,101,104,92,81,74,88,114,131,150,145,130,133,120,-51,-277,75,1051,1496,1242,881,674,495,323,222,165,104,65,40,14,20,25,38,46,56,60,57,62,49,29,16,1,-28,-48,-53,-62,-67,-74
2019-06-03,11:05:17.962,579,590,592,581,575,569,556,551,545,539,528,526,518,502,483,456,432,424,395,367,333,299,279,262,272,315,327,316,306,298,296,308,291,256,235,224,217,222,219,214,213,211,208,205,198,194,180,161,132,120,79,39,26,19,15,33,53,80,83,96,104,108,110,109,105,110,82,-148,-384,72,984,1363,1144,780,531,344,192,116,76,46,29,12,1,-10,-33,-49,-61,-63,-67,-80,-98,-116,-137,-160,-173,-190,-201,-212,-221,-219,-215,-200,-176,-155,-133,-107,-96,-91,-75,-69,-64,-58,-56,-52,-43,-35,-33,-33,-35,-37,-28,-20,-13,0,21,44,64,67
2019-06-03,11:05:18.987,707,688,673,662,651,639,622,607,597,587,573,565,555,523,477,452,447,453,465,475,488,481,449,408,399,418,433,445,441,435,416,409,421,417,408,398,380,271,26,27,783,1312,1223,1030,826,665,506,362,292,240,179,113,54,13,-26,-65,-90,-115,-131,-133,-154,-172,-196,-215,-239,-255,-263,-245,-213,-166,-104,-17,59,118,176,231,272,301,325,335,340,339,330,314,314,302,284,273,271,277,276,274,266,262,263,276,292,295,301,321,324,328,330,333,325,329,326,319,320,303,289,266,232,186,136,80,23,-36,-79,-117,-135,-137,-138,-129,-103,-89,-73,-67
2019-06-03,11:05:20.011,36,15,-29,-93,-217,-561,-857,-463,248,591,385,-22,-307,-538,-731,-841,-893,-937,-972,-1004,-1022,-1033,-1040,-1035,-1036,-1040,-1046,-1026,-1002,-974,-938,-897,-853,-813,-769,-715,-662,-602,-530,-446,-357,-268,-195,-118,-32,22,60,90,127,150,174,193,208,208,199,163,165,156,154,143,134,128,135,135,159,173,180,191,219,238,236,243,259,270,257,249,246,239,237,231,237,243,235,235,219,201,174,140,125,112,95,94,101,115,114,116,122,141,164,196,223,244,153,-132,-92,789,1491,1568,1248,908,705,523,391,339,297,259,245,231,210,191,178,177,174,172,175,180,179,177
2019-06-03,11:05:21.036,16,5,3,-2,-14,-15,-33,-51,-63,-66,-65,-64,-56,-55,-56,-55,-60,-62,-65,-74,-80,-98,-126,-160,-191,-217,-249,-271,-287,-286,-283,-278,-270,-263,-264,-280,-308,-343,-383,-437,-499,-557,-606,-633,-652,-653,-648,-634,-608,-578,-542,-500,-451,-410,-376,-355,-329,-306,-291,-275,-257,-229,-214,-200,-183,-169,-164,-147,-119,-96,-150,-401,-460,219,856,1038,880,615,435,295,194,159,145,140,137,133,130,130,133,140,145,154,155,155,152,145,144,143,137,127,115,122,124,130,139,155,166,180,195,199,199,199,196,194,198,198,188,170,156,143,134,124,113,107,97,88,77,69
2019-06-03,11:05:22.061,-130,-145,-160,-161,-163,-164,-159,-151,-125,-88,-45,-4,21,40,52,54,36,16,-10,-45,-64,-79,-74,-78,-87,-88,-85,-70,-49,-22,-8,-5,-95,-313,-233,542,1096,944,673,483,371,241,147,111,94,84,75,56,37,8,-19,-46,-96,-142,-184,-228,-271,-304,-341,-378,-409,-434,-451,-457,-463,-461,-467,-475,-489,-521,-562,-607,-666,-731,-803,-865,-898,-900,-903,-918,-922,-911,-893,-862,-830,-797,-766,-729,-688,-644,-599,-555,-516,-482,-450,-421,-390,-351,-319,-280,-236,-194,-144,-96,-53,-17,19,53,92,126,154,191,230,250,275,304,322,331,354,363,366,366,356,330,298,271,134,-125
2019-06-03,11:05:23.085,-365,432,964,778,493,298,208,102,26,16,12,18,18,21,27,33,33,37,39,26,22,21,20,10,-14,-29,-42,-55,-73,-95,-111,-117,-113,-105,-98,-105,-124,-135,-130,-123,-97,-57,-4,43,86,127,154,158,150,122,87,47,17,-18,-46,-61,-77,-72,-87,-91,-81,-70,-55,-41,-29,-12,4,20,35,36,45,53,48,34,27,25,23,23,23,14,-1,-17,-39,-60,-77,-106,-134,-154,-183,-300,-614,-660,104,797,953,663,345,152,-37,-191,-287,-364,-447,-533,-613,-674,-717,-744,-768,-784,-788,-782,-770,-750,-719,-687,-657,-638,-617,-594,-581,-559,-538,-513,-468,-421,-374,-330
2019-06-03,11:05:24.110,-550,-495,-445,-390,-341,-295,-247,-202,-154,-116,-78,-42,-12,19,46,65,78,85,94,101,110,114,119,116,116,107,97,85,75,72,70,72,74,79,84,88,95,101,114,118,123,128,133,117,108,104,89,68,50,28,-30,-252,-381,61,841,920,574,332,216,114,2,-41,-59,-72,-76,-55,-25,16,68,122,173,214,239,254,261,253,233,194,155,120,100,76,71,74,87,112,146,176,204,225,236,251,262,267,269,270,266,256,243,232,213,189,159,137,114,82,57,32,4,-34,-72,-117,-169,-221,-279,-324,-357,-378,-390,-389,-374,-352,-329,-307,-288,-280,-289,-314
2019-06-03,11:05:25.135,-729,-775,-838,-898,-977,-1063,-1133,-1185,-1228,-1256,-1266,-1270,-1264,-1248,-1233,-1291,-1552,-1566,-786,-53,86,-187,-460,-608,-739,-812,-809,-780,-742,-701,-645,-592,-536,-471,-409,-344,-288,-236,-186,-149,-118,-89,-68,-38,-17,-1,13,34,53,76,107,141,173,201,223,237,249,254,263,265,267,269,271,277,284,289,298,309,314,318,324,330,336,346,352,350,347,337,328,319,303,288,276,261,245,237,225,215,209,202,196,182,177,173,168,176,191,208,231,268,305,347,383,407,420,428,433,434,434,424,378,142,-91,312,1199,1534,1281,930,710,556,419,351,331,331,335,342,345,336
2019-06-03,11:05:26.160,273,270,270,265,264,254,244,225,199,169,141,108,74,33,-2,-26,-61,-89,-102,-118,-141,-160,-174,-190,-208,-220,-220,-225,-237,-253,-282,-323,-375,-434,-485,-553,-625,-685,-728,-754,-771,-796,-812,-816,-814,-805,-788,-768,-746,-728,-716,-700,-672,-653,-643,-625,-612,-587,-564,-534,-497,-453,-405,-366,-315,-263,-221,-171,-126,-80,-33,4,36,62,86,102,115,124,97,-109,-270,142,987,1166,867,606,473,368,263,211,195,194,189,182,175,167,164,163,161,161,161,166,160,159,150,150,146,134,118,113,107,100,115,140,167,192,218,231,240,254,260,273,291,304,329,354,382,414
2019-06-03,11:05:27.184,499,517,531,528,506,471,444,419,401,383,372,364,357,348,347,339,329,325,324,323,325,330,343,345,339,335,333,330,322,313,299,288,281,270,250,230,225,190,147,114,75,29,-20,-74,-151,-417,-677,-298,533,892,680,323,76,-132,-333,-474,-567,-640,-687,-715,-744,-769,-783,-785,-787,-782,-778,-773,-773,-773,-783,-794,-808,-806,-797,-776,-753,-729,-693,-636,-565,-491,-414,-338,-261,-193,-128,-63,0,51,96,140,187,237,279,310,330,349,362,371,374,390,401,404,406,405,400,397,390,389,382,377,367,360,356,354,362,372,381,383,391,397,405,404,396,390,375,352
2019-06-03,11:05:28.209,188,175,160,140,126,102,76,44,20,-18,-66,-142,-384,-523,-38,841,1080,833,620,531,458,376,336,311,274,226,166,87,9,-47,-79,-91,-96,-99,-102,-94,-83,-80,-76,-81,-83,-85,-82,-91,-97,-96,-86,-67,-44,-27,-17,-13,-14,-16,-29,-43,-69,-93,-118,-149,-180,-220,-264,-312,-357,-400,-442,-485,-522,-540,-561,-564,-564,-564,-559,-565,-572,-577,-595,-621,-648,-683,-728,-770,-807,-849,-878,-889,-880,-883,-896,-891,-883,-851,-802,-748,-690,-631,-579,-539,-519,-495,-476,-453,-425,-398,-402,-590,-749,-318,489,836,665,416,293,207,131,115,129,149,161,175,190,214,234,249,260,270
2019-06-03,11:05:29.234,-111,-120,-129,-139,-145,-163,-181,-198,-216,-224,-227,-220,-201,-172,-137,-103,-71,-47,-34,-29,-30,-33,-34,-33,-36,-31,-30,-31,-38,-57,-74,-91,-102,-121,-140,-161,-187,-210,-223,-238,-256,-277,-288,-290,-255,-197,-131,-61,9,70,116,139,143,125,87,43,-8,-52,-76,-80,-58,-25,15,48,68,84,100,109,127,149,175,193,201,192,66,-217,-192,588,1216,1318,1036,764,601,466,379,361,347,338,319,297,263,232,201,173,153,140,129,118,109,93,77,62,39,11,-18,-50,-84,-116,-138,-154,-158,-168,-183,-192,-211,-231,-259,-293,-334,-378,-428,-484,-538,-596,-665,-732,-797,-837
2019-06-03,11:05:30.258,-1288,-1270,-1249,-1241,-1223,-1192,-1144,-1091,-1033,-977,-923,-876,-834,-806,-789,-784,-793,-792,-773,-742,-697,-651,-597,-531,-469,-405,-338,-271,-211,-146,-95,-55,-27,0,18,28,42,53,62,69,26,-221,-346,221,1014,1205,964,686,528,387,269,212,188,168,152,141,137,134,132,127,125,123,127,120,110,99,83,63,44,25,5,-6,-18,-30,-33,-29,-21,-14,-11,-15,-24,-34,-45,-52,-72,-90,-103,-119,-134,-150,-153,-151,-134,-109,-83,-52,-18,5,22,37,45,44,48,52,54,70,88,109,126,143,159,180,196,210,217,230,249,258,265,270,264,254,239,226,214,203,199,189
2019-06-03,11:05:31.283,-157,-243,-491,-495,261,919,871,540,291,164,32,-71,-111,-142,-165,-181,-201,-225,-246,-258,-264,-267,-268,-263,-261,-260,-263,-274,-299,-329,-371,-423,-479,-540,-600,-664,-716,-752,-765,-775,-780,-791,-796,-794,-793,-782,-759,-734,-717,-695,-678,-664,-648,-632,-616,-599,-573,-542,-509,-482,-446,-410,-363,-321,-280,-241,-196,-148,-104,-61,-21,11,43,70,95,115,124,132,129,130,137,138,134,134,133,130,130,126,132,127,125,128,77,-162,-280,268,1038,1192,929,658,514,382,274,225,215,210,203,199,188,179,170,153,137,117,95,75,54,21,-10,-48,-82,-119,-154,-188,-228,-254,-277,-278
2019-06-03,11:05:32.308,-405,-378,-333,-282,-218,-153,-89,-23,37,86,122,148,164,163,157,143,124,104,97,93,89,95,100,112,123,136,143,149,155,161,160,160,161,156,144,136,128,122,122,119,115,115,128,139,133,132,142,151,153,158,152,154,144,133,95,-104,-389,-176,691,1138,974,618,382,214,57,-26,-66,-95,-128,-168,-215,-270,-327,-391,-439,-492,-543,-583,-610,-634,-656,-669,-674,-668,-652,-626,-596,-560,-528,-486,-442,-402,-371,-341,-320,-307,-291,-277,-265,-259,-257,-262,-257,-252,-240,-230,-218,-200,-184,-167,-157,-150,-136,-122,-111,-100,-92,-87,-94,-81,-74,-72,-73,-70,-70,-80,-77,-78
2019-06-03,11:05:33.332,-210,-207,-211,-203,-194,-189,-185,-187,-185,-185,-191,-196,-212,-221,-248,-418,-609,-369,440,704,368,93,-59,-152,-263,-335,-362,-381,-406,-423,-424,-419,-416,-421,-423,-427,-419,-411,-397,-381,-369,-349,-316,-275,-238,-207,-161,-90,-16,50,134,214,270,285,287,302,295,278,270,274,266,264,258,250,244,239,237,236,234,230,232,215,209,217,215,213,205,196,196,189,188,191,204,198,200,186,181,159,139,126,108,100,106,79,75,72,77,66,86,117,146,165,113,97,28,-125,-310,229,1122,1292,966,674,556,359,241,193,104,91,105,52,11,9,-7,-33,-46,-72,-98,-92
2019-06-03,11:05:34.357,468,467,497,516,492,453,425,392,366,342,319,332,361,346,335,338,345,338,319,307,309,294,307,283,308,360,333,232,231,243,285,268,162,183,173,175,184,139,151,147,165,218,158,160,182,149,136,144,134,138,135,132,180,123,112,124,141,130,111,108,109,118,129,136,157,131,-79,-207,332,998,1101,922,668,525,386,274,220,202,212,167,159,159,172,180,172,153,143,138,91,72,62,40,22,5,-21,-40,-62,-83,-76,-74,-78,-43,-16,6,18,23,26,21,21,20,20,6,1,2,0,-3,5,15,18,22,31,34,28,56,46,40,45,56
2019-06-03,11:05:35.382,925,905,889,876,855,847,832,812,789,771,756,740,707,677,648,632,601,565,526,497,488,501,490,315,71,239,1010,1308,1104,850,647,506,396,343,340,350,368,369,359,339,313,305,297,280,251,234,205,216,171,166,165,146,124,140,132,137,145,159,180,189,191,184,182,207,184,161,165,140,122,98,103,89,69,65,63,55,46,45,40,45,38,59,71,76,78,90,88,95,114,129,108,132,125,134,112,72,80,57,52,4,-26,-56,-81,-94,-168,-357,-331,335,762,650,490,313,216,110,24,-13,-20,-28,-43,-57,-63,-73,-78,-71,-85,-74,-62,-69
2019-06-03,11:05:36.406,111,86,78,35,-3,-10,-41,-63,-43,-22,-16,0,30,28,-20,-9,21,28,37,32,13,1,18,24,24,27,13,11,14,-18,-63,-87,-111,-136,-152,-160,-185,-197,-202,-215,-253,-282,-312,-364,-385,-388,-420,-436,-410,-384,-383,-374,-354,-329,-316,-331,-344,-318,-321,-314,-332,-504,-670,-249,600,851,546,261,118,-5,-106,-136,-144,-137,-135,-136,-124,-111,-106,-99,-101,-114,-113,-104,-106,-104,-98,-99,-99,-103,-108,-113,-116,-123,-122,-110,-99,-84,-69,-60,-54,-55,-53,-54,-47,-47,-47,-58,-56,-52,-53,-60,-60,-49,-34,-21,-15,-17,-5,8,13,20,27,31,33,35,29,27
2019-06-03,11:05:37.431,-230,-227,-227,-234,-236,-245,-254,-237,-239,-259,-248,-229,-225,-224,-218,-215,-222,-229,-218,-218,-229,-224,-299,-535,-611,10,623,707,502,262,105,-2,-89,-169,-182,-195,-198,-199,-170,-157,-155,-143,-129,-100,-84,-69,-94,-75,-76,-106,-96,-86,-82,-91,-90,-75,-62,-47,-2,29,32,57,88,73,95,119,71,95,121,126,121,114,128,119,131,96,81,87,82,57,55,54,62,43,62,79,80,97,111,121,116,109,149,133,96,120,139,141,151,171,149,162,161,153,148,140,113,91,75,67,-9,-275,-399,153,810,766,611,393,251,114,21,-24,-39,-54,-67,-81,-76,-64
2019-06-03,11:05:38.456,47,49,50,57,55,58,62,69,70,64,58,55,59,66,72,66,67,73,84,93,102,108,107,115,111,92,80,78,74,77,80,76,70,61,52,48,39,37,27,18,1,-11,-21,-28,-32,-37,-49,-59,-68,-77,-84,-85,-84,-69,-50,-45,-40,-35,-32,-35,-30,-28,-30,-30,-29,-107,-361,-445,190,814,781,598,391,249,127,39,-2,-13,-26,-31,-40,-46,-44,-48,-54,-45,-38,-45,-51,-59,-60,-68,-74,-88,-94,-100,-97,-108,-99,-78,-48,-26,-14,-19,-19,-9,-10,6,18,35,40,35,45,49,47,45,39,39,32,29,44,38,33,32,30,29,23,16
2019-06-03,11:05:39.480,222,212,216,217,220,224,232,237,241,247,235,229,223,236,243,236,230,235,237,232,234,226,221,229,239,199,171,-35,-331,73,1038,1546,1307,917,638,425,253,179,134,103,88,65,30,18,10,0,-10,-11,-8,-34,-42,-50,-83,-112,-130,-151,-173,-177,-193,-199,-189,-175,-155,-109,-82,-77,-58,-52,-48,-42,-53,-49,-64,-69,-75,-98,-104,-104,-110,-130,-137,-148,-150,-156,-171,-189,-196,-204,-210,-216,-206,-211,-218,-228,-242,-250,-248,-251,-252,-241,-209,-207,-216,-212,-210,-237,-251,-249,-257,-258,-227,-235,-269,-449,-784,-605,354,1119,1150,778,433,204,96,0,-30,-15,1,-6
2019-06-03,11:05:40.505,191,220,147,108,264,238,207,231,231,149,118,136,68,42,96,58,39,21,111,124,-25,152,265,331,290,309,318,338,346,229,196,187,222,212,179,169,192,170,170,166,156,145,141,143,144,143,157,181,224,222,169,103,-1,-31,-9,-84,-168,-232,-234,-153,-89,-77,-78,-56,-4,42,61,75,28,-19,-87,-340,-681,-528,371,752,612,448,267,164,76,19,0,-16,-24,-18,-24,-21,-11,-26,-11,22,21,0,35,34,1,46,57,67,70,75,85,88,110,112,97,141,173,185,138,93,76,65,54,50,49,57,45,31,47,58,60,56,64,83,90,73
2019-06-03,11:05:41.530,223,249,315,275,234,274,241,194,207,214,179,145,137,108,95,101,86,72,57,1,31,-1,0,-11,-53,-40,-48,-261,-586,-478,495,957,840,613,342,134,-16,-117,-168,-209,-223,-220,-193,-193,-179,-171,-149,-152,-182,-134,-140,-145,-146,-133,-116,-110,-123,-113,-87,-83,-53,-29,-25,16,46,53,57,71,91,98,99,111,107,101,95,114,101,88,111,103,83,77,107,56,66,113,98,95,51,66,110,69,99,68,70,105,68,75,66,77,62,59,63,72,62,27,18,17,0,-2,-56,-345,-507,63,1007,1161,848,539,393,231,100,48,17,-5,0,4,-7,-33
2019-06-03,11:05:42.554,30,24,30,2,26,35,13,-14,-34,-47,-41,-46,-58,-68,-63,-55,-34,-18,2,12,24,30,30,25,11,48,62,56,56,36,25,24,15,3,-13,-21,-37,-46,-50,-69,-91,-89,-108,-126,-147,-161,-171,-181,-196,-213,-229,-234,-261,-278,-338,-250,-227,-240,-242,-242,-240,-242,-244,-226,-220,-218,-200,-207,-215,-372,-667,-401,601,1202,983,585,362,211,93,58,50,75,71,63,53,59,51,55,81,47,43,40,52,50,33,25,13,5,6,-4,-10,-9,11,34,54,96,108,117,123,112,131,123,134,142,134,143,140,124,130,120,121,122,113,131,124,143,145,136
2019-06-03,11:05:43.579,110,97,104,104,107,126,121,127,118,124,137,121,116,132,138,139,130,118,123,109,70,69,115,117,91,94,86,86,72,-87,-400,-231,819,1467,1181,765,490,316,166,75,39,9,-16,-36,-47,-44,-42,-43,-57,-63,-70,-77,-80,-95,-98,-108,-120,-129,-135,-137,-137,-136,-129,-115,-93,-62,-39,-32,-20,-22,-17,-14,-15,-14,-15,-13,-18,-18,-22,-24,-26,-35,-36,-42,-45,-46,-43,-38,-33,-34,-40,-48,-41,-36,-37,-41,-43,-38,-35,-41,-47,-49,-43,-48,-54,-60,-75,-72,-75,-76,-60,-57,-58,-59,-62,-73,-74,-69,-65,-70,-68,-80,-213,-539,-393,595,1267,1095
2019-06-03,11:05:44.604,744,463,294,131,39,6,-11,-26,-34,-41,-50,-58,-60,-65,-66,-72,-78,-89,-91,-94,-108,-125,-133,-142,-152,-160,-157,-154,-141,-104,-76,-50,-34,-27,-13,-7,-3,2,4,16,15,10,8,9,8,2,2,1,-1,-3,-8,-17,-14,-15,-16,-17,-14,-15,-17,-16,-23,-24,-23,-27,-19,-19,-21,-23,-24,-20,-25,-24,-26,-19,-18,-29,-22,-20,-16,-7,-7,-11,-25,-27,-25,-28,-35,-61,-258,-524,-158,840,1277,937,592,365,212,64,-17,-37,-51,-70,-75,-77,-78,-86,-85,-87,-86,-80,-88,-95,-97,-107,-116,-127,-133,-135,-137,-138,-145,-133,-117,-94,-67,-51,-39,-33
2019-06-03,11:05:45.628,-54,-55,-51,-44,-39,-42,-39,-35,-38,-39,-37,-36,-42,-43,-50,-51,-52,-45,-47,-49,-48,-39,-44,-45,-43,-38,-34,-30,-26,-28,-26,-29,-30,-27,-25,-24,-31,-30,-30,-33,-31,-22,-8,-6,-15,-22,-21,-20,-21,-22,-19,-57,-285,-461,85,889,955,696,462,294,160,49,-1,-18,-33,-47,-50,-57,-59,-56,-55,-61,-64,-60,-63,-71,-71,-75,-83,-95,-86,-79,-78,-70,-67,-62,-43,-18,2,14,24,28,27,28,35,32,38,47,52,46,43,44,33,29,31,27,27,28,25,22,14,23,20,26,28,20,17,7,10,3,1,8,3,4,3,0,8,0
2019-06-03,11:05:46.653,-71,-67,-67,-59,-65,-54,-61,-65,-60,-69,-62,-61,-61,-52,-52,-38,-35,-43,-45,-46,-34,-32,-36,-57,-295,-551,-36,1006,1377,976,616,399,240,105,29,0,-17,-29,-26,-36,-30,-38,-45,-42,-58,-61,-70,-74,-76,-100,-107,-126,-138,-146,-160,-157,-158,-160,-142,-130,-98,-84,-69,-60,-58,-52,-55,-52,-49,-52,-51,-55,-57,-59,-66,-70,-74,-72,-74,-70,-78,-82,-78,-71,-69,-70,-65,-57,-65,-58,-52,-56,-59,-53,-56,-56,-55,-44,-45,-41,-39,-41,-50,-48,-40,-48,-42,-41,-28,-20,-18,-26,-23,-23,-22,-16,-14,-22,-170,-425,-235,688,1047,787,571,377,229,103
2019-06-03,11:05:47.678,-16,-41,-56,-70,-73,-79,-79,-82,-91,-89,-81,-85,-87,-85,-96,-100,-113,-114,-126,-131,-133,-138,-135,-126,-106,-80,-73,-58,-51,-47,-41,-42,-41,-45,-39,-42,-39,-36,-39,-37,-35,-43,-43,-49,-47,-46,-43,-45,-39,-34,-33,-34,-36,-37,-38,-38,-33,-29,-29,-29,-27,-28,-26,-32,-36,-34,-40,-38,-35,-35,-35,-37,-34,-34,-40,-45,-51,-51,-46,-36,-32,-27,-21,-23,-29,-33,-34,-28,-29,-41,-181,-503,-302,710,1366,1144,734,456,276,111,17,-12,-29,-33,-40,-50,-51,-58,-63,-58,-62,-69,-77,-81,-89,-103,-115,-130,-142,-150,-159,-160,-162,-166,-156,-134,-95,-67
2019-06-03,11:05:48.702,-99,-86,-65,-51,-45,-49,-53,-51,-43,-42,-53,-47,-43,-49,-52,-59,-57,-64,-70,-71,-69,-73,-71,-70,-68,-59,-59,-58,-60,-60,-58,-61,-69,-67,-64,-60,-62,-66,-61,-56,-60,-65,-63,-62,-60,-57,-60,-65,-67,-63,-71,-69,-59,-50,-40,-40,-41,-41,-41,-32,-35,-37,-62,-227,-503,-231,774,1272,957,605,384,233,88,19,-8,-24,-33,-41,-43,-45,-46,-44,-49,-52,-50,-53,-60,-74,-82,-91,-99,-106,-114,-123,-120,-123,-126,-113,-97,-70,-56,-36,-24,-16,-16,-13,-14,-9,-10,-9,-8,-15,-17,-17,-12,-17,-18,-20,-19,-15,-17,-18,-17,-16,-11,-7,-8,-12
2019-06-03,11:05:49.727,-40,-31,-34,-36,-42,-42,-37,-35,-35,-34,-37,-37,-31,-36,-39,-37,-37,-35,-27,-21,-13,-13,-21,-15,-14,-13,-12,-13,-16,-139,-387,-285,546,968,751,539,356,225,104,19,-7,-23,-33,-38,-35,-41,-47,-49,-48,-46,-50,-51,-60,-66,-71,-76,-86,-92,-99,-97,-100,-95,-87,-72,-52,-40,-30,-30,-28,-27,-24,-23,-22,-24,-21,-17,-18,-22,-20,-22,-19,-22,-33,-28,-24,-26,-28,-26,-18,-21,-28,-28,-29,-22,-17,-17,-15,-17,-23,-20,-22,-24,-21,-23,-19,-25,-21,-21,-24,-21,-21,-9,-9,-11,-14,-16,-18,-25,-24,-13,-8,-2,-5,-9,-12,-12,-15,-13
2019-06-03,11:05:50.752,23,0,-179,-455,-96,846,1307,1000,646,428,280,131,53,33,17,0,-13,-17,-22,-21,-22,-26,-30,-43,-46,-51,-65,-77,-85,-99,-117,-129,-134,-130,-133,-130,-122,-107,-83,-64,-48,-37,-24,-18,-12,-12,-8,-4,0,-2,-8,-10,-10,-6,-10,-11,-19,-22,-22,-25,-32,-36,-38,-39,-38,-35,-44,-41,-34,-29,-27,-34,-31,-31,-30,-31,-33,-35,-36,-33,-31,-31,-26,-27,-30,-32,-30,-26,-28,-38,-34,-40,-50,-42,-41,-34,-18,-16,-35,-32,-27,-22,-11,-14,-104,-402,-437,432,1221,1197,813,516,337,172,61,25,-2,-13,-24,-29,-35,-39,-40,-47,-51,-49,-60,-60
2019-06-03,11:05:51.777,-5,-14,-23,-41,-48,-59,-68,-70,-78,-79,-73,-56,-29,-16,-3,5,10,17,10,5,4,3,11,1,-2,-6,-15,-9,-25,-29,-35,-35,-33,-40,-38,-44,-40,-30,-34,-38,-35,-32,-30,-35,-30,-27,-27,-22,-22,-20,-16,-18,-21,-18,-15,-13,-14,-7,-6,-9,-10,-13,-14,-18,-12,-12,-11,-6,0,0,-6,-19,-2,-8,-7,-6,-9,-88,-337,-378,369,973,802,576,376,244,129,34,-6,-10,-18,-29,-32,-31,-33,-35,-34,-38,-38,-36,-38,-44,-50,-50,-50,-56,-63,-62,-62,-66,-61,-47,-33,-20,-14,-14,-15,-14,-18,-19,-19,-22,-17,-19,-17,-21,-26,-27
2019-06-03,11:05:52.801,63,63,69,68,70,61,58,58,59,67,68,63,67,67,69,61,62,62,64,63,57,60,65,65,65,60,63,59,51,51,44,42,50,52,53,48,51,43,41,40,39,44,43,0,-235,-401,180,1011,1165,808,516,361,225,106,51,31,22,10,-1,-10,-16,-14,-17,-22,-24,-34,-44,-49,-55,-67,-76,-77,-85,-93,-95,-99,-88,-77,-59,-43,-29,-15,-4,-2,-3,-3,1,2,7,15,12,9,10,6,0,-2,-4,-6,-3,-7,-9,-12,-15,-10,-4,1,-1,-3,0,9,6,8,14,11,18,18,20,20,18,21,23,29,29,27,29,25,27,27
2019-06-03,11:05:53.826,119,116,108,107,103,102,102,105,108,111,115,111,105,107,97,101,99,92,14,-277,-292,510,1220,1169,789,534,384,226,124,88,71,62,48,38,26,22,21,15,7,2,1,0,-4,-14,-29,-38,-49,-63,-73,-79,-75,-76,-69,-43,-19,-5,6,17,21,24,24,21,20,26,27,23,20,11,11,6,5,3,2,0,-3,-6,-5,0,-4,-9,-7,-9,-10,-6,-11,-8,-10,-12,-14,-18,-13,-12,-15,-8,-14,-17,-16,-25,-23,-24,-26,-24,-25,-27,-38,-39,-45,-53,-50,-52,-46,-41,-38,-32,-37,-43,-43,-45,-40,-41,-41,-138,-426,-378,444,1069,985,682
2019-06-03,11:05:54.851,617,437,284,183,147,124,112,107,98,86,83,77,75,66,59,50,41,31,18,4,-8,-17,-22,-31,-44,-44,-41,-30,-7,9,28,33,40,43,47,51,46,47,46,46,45,33,30,27,17,18,19,20,13,16,17,13,13,10,7,8,9,8,7,4,7,3,9,8,1,9,10,10,6,8,7,0,2,5,-2,4,0,1,9,8,10,12,11,10,7,7,4,5,0,1,5,12,19,21,13,8,11,18,18,16,-4,-233,-462,75,934,1192,893,596,384,223,94,30,11,-5,-22,-25,-40,-43,-46,-51,-50,-64,-68,-72,-82,-84,-106,-116
2019-06-03,11:05:55.875,102,80,73,63,55,58,57,72,88,111,123,127,139,135,143,139,136,140,127,130,128,122,120,107,108,104,101,104,96,97,93,90,95,92,97,92,86,85,87,88,82,84,80,76,78,70,69,68,65,59,50,54,59,54,48,49,47,43,41,44,36,39,36,22,17,12,12,11,15,25,20,13,11,7,12,11,12,7,-106,-393,-357,535,1156,1010,709,447,285,135,34,7,-13,-24,-31,-36,-45,-48,-41,-46,-57,-57,-62,-73,-75,-82,-90,-101,-109,-110,-117,-114,-113,-108,-98,-87,-70,-58,-52,-43,-41,-33,-36,-33,-36,-43,-38,-41,-40,-41
2019-06-03,11:05:56.900,157,155,146,142,135,129,127,123,128,133,132,130,122,127,125,120,127,119,116,113,107,105,98,101,93,92,97,92,89,79,74,77,71,77,83,86,85,82,79,84,84,83,76,76,55,-152,-331,54,829,918,694,504,365,243,146,84,71,54,47,38,33,40,38,37,38,32,33,29,26,21,12,12,0,-2,-1,0,7,7,14,29,39,46,44,49,55,49,56,57,60,55,50,51,48,50,41,32,38,38,40,39,38,38,35,40,42,38,35,31,26,24,20,25,20,22,17,9,15,17,17,21,23,23,10,13,17,12,20,18
2019-06-03,11:05:57.925,152,141,139,142,129,138,140,139,152,145,139,134,132,138,130,134,112,-90,-339,84,973,1355,1018,680,477,323,191,123,95,72,63,53,44,39,28,26,20,14,11,-4,-11,-21,-34,-41,-57,-70,-83,-87,-87,-89,-81,-72,-48,-18,-5,15,22,26,28,26,32,32,31,30,26,27,24,16,11,4,3,-1,-7,-8,-11,-8,-13,-17,-17,-21,-19,-21,-24,-27,-25,-23,-30,-28,-26,-34,-32,-34,-34,-31,-34,-35,-38,-36,-35,-37,-35,-35,-37,-36,-43,-43,-42,-47,-45,-55,-44,-39,-29,-20,-24,-30,-32,-31,-29,-29,-31,-56,-263,-509,-89,783,1168,917
2019-06-03,11:05:58.949,851,609,438,292,219,199,179,164,152,145,141,136,134,127,119,111,95,91,81,68,50,37,30,14,6,5,4,5,19,38,60,71,88,86,86,91,92,91,89,86,81,77,83,78,76,77,69,64,55,54,59,54,56,54,52,51,47,49,45,38,39,33,28,25,31,32,27,32,29,29,26,24,25,24,22,17,16,14,8,7,8,0,-1,-2,-5,-4,-9,-16,-20,-23,-10,-12,-8,-17,-20,-18,-18,-17,-19,-41,-244,-460,-25,820,1013,729,485,311,170,54,-6,-28,-42,-51,-53,-58,-65,-71,-74,-76,-77,-85,-82,-88,-92,-99,-110,-112
2019-06-03,11:05:59.974,187,182,175,175,180,178,189,209,217,222,220,218,212,211,212,212,205,202,193,190,179,177,173,164,164,157,153,152,147,149,143,143,143,139,135,130,126,128,127,130,121,120,120,117,117,111,106,104,100,102,89,86,85,82,84,75,62,61,59,56,56,56,61,59,58,42,47,46,46,45,38,17,-178,-410,-12,811,1090,842,570,380,233,108,44,15,-2,-18,-23,-26,-36,-37,-41,-41,-46,-59,-64,-72,-74,-82,-97,-104,-118,-122,-128,-128,-119,-112,-100,-76,-54,-45,-38,-33,-28,-20,-13,-16,-18,-16,-17,-13,-21,-24,-28,-29,-22,-27,-28,-26
2019-06-03,11:06:00.999,228,226,226,223,219,208,209,205,200,200,198,195,189,187,178,171,175,165,159,153,150,152,141,144,139,131,129,124,125,117,110,113,102,95,99,93,96,90,88,84,69,71,64,58,61,54,62,64,62,54,54,65,63,57,49,-47,-353,-350,530,1293,1225,822,531,359,194,81,41,11,3,-5,-19,-12,-22,-26,-28,-46,-44,-60,-67,-71,-80,-85,-102,-114,-131,-134,-136,-144,-139,-129,-119,-94,-74,-49,-35,-21,-12,-16,-13,-8,-7,-5,-7,-3,-6,-9,-9,-16,-22,-27,-33,-26,-33,-31,-32,-36,-33,-36,-35,-35,-33,-21,-23,-17,-16,-18,-11,-26
2019-06-03,11:06:02.023,263,256,245,249,247,246,242,236,240,230,224,225,216,212,209,208,198,192,198,204,199,191,183,188,180,177,175,165,55,-211,-125,714,1190,971,731,529,384,248,155,115,96,80,66,58,45,44,34,27,18,5,2,-6,-20,-28,-46,-57,-66,-84,-91,-101,-96,-95,-80,-62,-47,-32,-30,-24,-16,-12,-7,-11,-12,-9,-8,-12,-20,-23,-15,-19,-28,-34,-32,-30,-30,-23,-26,-28,-29,-36,-29,-32,-40,-34,-36,-29,-30,-28,-26,-29,-26,-26,-27,-28,-29,-27,-26,-24,-21,-28,-26,-29,-27,-24,-29,-31,-30,-30,-41,-41,-39,-45,-38,-32,-27,-22,-29,-40
2019-06-03,11:06:03.048,253,250,251,247,244,156,-91,-90,678,1203,987,758,573,446,333,251,204,189,175,160,157,152,154,143,137,139,121,121,110,96,82,73,68,52,42,37,29,29,26,37,49,56,71,71,64,66,58,62,55,52,51,42,45,42,39,41,36,39,30,30,29,16,21,25,23,18,12,18,14,13,14,5,3,1,0,-2,-9,-6,-8,-9,-9,-12,-15,-20,-17,-23,-25,-17,-24,-33,-30,-32,-29,-26,-22,-15,-13,-6,-17,-15,-10,-9,-5,-12,-83,-352,-385,413,1121,1029,652,411,272,129,31,-8,-28,-39,-46,-52,-55,-60,-64,-67,-73,-72,-83,-90
2019-06-03,11:06:04.073,192,181,164,143,134,120,114,105,92,100,102,119,146,162,177,184,191,190,183,183,178,176,174,167,169,162,156,148,139,135,131,126,122,110,105,101,101,101,100,99,89,88,87,89,88,86,81,79,79,80,76,72,71,66,65,66,61,57,53,52,48,50,54,46,41,36,31,30,33,27,22,21,23,32,39,29,23,22,18,22,18,3,-169,-447,-115,799,1295,988,625,414,254,108,30,-7,-21,-33,-35,-44,-54,-59,-66,-75,-81,-88,-90,-97,-108,-114,-129,-141,-159,-168,-173,-180,-183,-185,-171,-147,-120,-84,-65,-54,-48,-44,-40,-42,-34,-32
2019-06-03,11:06:05.097,249,250,240,235,228,220,212,202,196,192,186,178,171,168,162,155,151,147,145,141,132,132,133,127,129,135,131,130,125,118,120,118,109,109,103,99,103,98,94,86,82,86,82,80,80,78,75,73,71,69,64,63,59,50,58,59,70,65,63,51,49,53,46,46,50,13,-208,-399,94,898,1004,723,494,337,199,86,31,11,-2,-15,-18,-22,-23,-30,-38,-38,-40,-45,-51,-57,-73,-79,-88,-92,-105,-107,-103,-107,-101,-94,-81,-68,-50,-34,-32,-37,-26,-30,-37,-32,-32,-39,-39,-33,-36,-30,-35,-33,-39,-44,-44,-42,-44,-44,-42,-43,-42,-38
2019-06-03,11:06:06.122,229,223,220,217,213,212,204,204,203,198,195,194,190,186,173,170,169,162,154,141,138,136,135,139,141,142,135,126,121,117,119,117,114,34,-202,-209,497,996,848,620,441,316,203,119,85,70,59,58,49,44,43,37,30,25,26,25,14,7,-5,-13,-22,-35,-37,-36,-42,-45,-45,-31,-12,1,11,12,11,14,12,13,13,14,13,8,10,6,4,-2,0,-3,-6,-9,-6,-9,-8,-12,-13,-11,-13,-10,-10,-4,-2,-2,-2,-4,-5,-5,-9,-2,-8,-7,-9,-3,-1,-7,-10,-7,-4,-4,-1,0,-2,-6,-9,-13,-17,-25,-26,-27,-21,-16
2019-06-03,11:06:07.147,222,223,215,210,202,200,196,197,190,159,-43,-265,202,1038,1330,988,680,506,355,224,166,141,133,120,108,108,95,84,76,68,62,52,50,33,18,7,-11,-27,-44,-52,-61,-76,-70,-75,-60,-40,-20,9,12,23,34,31,40,35,35,42,33,40,31,29,27,15,25,15,13,8,-6,3,-5,-5,-7,-15,-1,-8,-5,-5,-16,-2,-5,-8,-12,-14,-6,-17,-17,-14,-22,-17,-23,-25,-26,-25,-25,-30,-26,-28,-34,-34,-37,-39,-37,-44,-46,-49,-52,-49,-39,-35,-33,-25,-25,-32,-30,-27,-19,-20,-19,-54,-293,-445,178,930,1083,787,513,329,172,56
2019-06-03,11:06:08.171,216,199,176,168,159,149,155,148,141,124,117,118,114,100,89,76,61,48,31,19,6,3,-2,-1,14,32,55,79,99,109,108,102,102,99,100,93,95,96,92,82,74,71,65,57,59,49,51,46,44,37,31,31,30,32,31,21,19,18,14,8,4,3,2,-3,-6,-13,-5,-2,-6,4,-4,-1,-5,-6,-3,-8,-12,-12,-12,-7,-15,-19,-23,-28,-25,-24,-19,-14,-19,-19,-32,-27,-26,-26,-27,-35,-104,-386,-436,371,1070,1038,718,444,276,110,8,-26,-45,-56,-65,-69,-81,-90,-86,-100,-95,-96,-103,-112,-119,-123,-133,-149,-154,-165,-172,-180
2019-06-03,11:06:09.196,-121,-117,-111,-96,-77,-64,-43,-27,-16,-17,-12,-11,-15,-14,-23,-26,-16,-30,-29,-29,-31,-32,-40,-43,-48,-52,-49,-44,-42,-39,-36,-29,-25,-21,-23,-20,-17,-17,-9,-12,-9,-1,1,2,8,11,13,10,9,3,7,16,17,22,20,27,32,25,22,23,21,23,27,29,-37,-258,-326,288,820,647,469,327,228,131,49,20,10,1,-6,-14,-18,-19,-14,-16,-20,-20,-20,-24,-31,-36,-45,-46,-48,-53,-57,-57,-54,-52,-42,-29,-20,-13,-11,-5,-8,-12,-13,-11,-7,-9,-9,-11,-15,-21,-17,-15,-18,-17,-20,-21,-22,-20,-21,-18,-18,-18,-22,-25
2019-06-03,11:06:10.221,-66,-69,-70,-66,-63,-63,-65,-67,-67,-73,-68,-68,-69,-67,-65,-67,-70,-73,-76,-72,-69,-64,-69,-60,-56,-58,-63,-65,-64,-64,-55,-57,-112,-355,-448,233,879,903,615,382,228,82,-11,-47,-62,-74,-81,-81,-78,-81,-85,-86,-87,-87,-89,-95,-99,-111,-117,-131,-139,-143,-148,-155,-157,-157,-146,-124,-98,-79,-63,-48,-37,-30,-36,-33,-29,-20,-22,-20,-22,-20,-19,-22,-23,-17,-17,-20,-22,-22,-18,-17,-10,-9,-8,-5,-5,0,-3,-7,-2,1,-6,-5,-3,1,-3,-3,-2,-6,-5,-8,-11,-10,-11,-20,-22,-18,-23,-26,-20,-17,-8,-7,-14,-24,-17,-17
2019-06-03,11:06:11.245,-21,-22,-23,-79,-354,-479,192,924,1097,804,498,316,155,43,-10,-34,-47,-44,-45,-51,-53,-58,-63,-53,-54,-55,-58,-63,-73,-77,-90,-99,-99,-100,-106,-108,-105,-86,-70,-47,-21,-3,10,22,30,28,29,29,22,27,19,6,-1,-9,-13,-24,-30,-30,-38,-41,-42,-43,-43,-51,-48,-47,-48,-43,-45,-47,-41,-41,-35,-33,-24,-27,-23,-15,-14,-14,-9,-9,-3,-4,-2,-10,-5,-8,-12,2,10,16,19,12,4,6,7,9,7,3,-52,-313,-452,199,948,968,710,468,305,162,59,12,-9,-24,-30,-36,-40,-41,-43,-44,-46,-48,-42,-49,-62,-64,-79,-89
2019-06-03,11:06:12.270,-95,-100,-111,-123,-107,-106,-105,-96,-76,-59,-63,-63,-48,-48,-46,-54,-56,-56,-57,-61,-74,-71,-65,-76,-84,-93,-87,-84,-92,-94,-96,-94,-85,-81,-85,-83,-82,-87,-79,-73,-72,-63,-54,-50,-49,-41,-35,-33,-29,-28,-27,-17,-14,-6,2,10,13,19,12,17,22,28,26,26,23,-98,-327,-231,559,903,688,500,351,231,118,43,22,8,-2,0,-3,-11,-23,-25,-35,-41,-45,-41,-46,-52,-57,-67,-74,-82,-86,-83,-89,-88,-88,-77,-61,-45,-39,-30,-23,-24,-22,-12,-13,-18,-12,-10,-11,-13,-13,-18,-17,-13,-18,-16,-23,-19,-19,-21,-15,-17,-11,-10
2019-06-03,11:06:13.295,-10,-14,-16,-19,-18,-18,-18,-18,-18,-24,-17,-15,-18,-20,-22,-18,-20,-23,-22,-27,-26,-29,-37,-43,-43,-42,-35,-38,-30,-28,-30,-38,-41,-41,-39,-39,-41,-83,-334,-511,106,893,1127,835,527,313,137,9,-39,-65,-85,-94,-102,-112,-118,-123,-121,-127,-129,-134,-142,-148,-160,-168,-184,-202,-213,-218,-229,-233,-233,-220,-199,-173,-148,-132,-115,-102,-92,-82,-79,-76,-72,-69,-67,-68,-67,-69,-68,-65,-67,-68,-73,-68,-67,-67,-63,-64,-65,-64,-58,-56,-56,-52,-50,-52,-44,-41,-40,-38,-34,-36,-37,-31,-28,-25,-20,-19,-20,-13,-10,-4,-5,-1,0,0,13,14
2019-06-03,11:06:14.319,106,112,113,105,116,128,151,161,168,160,171,183,193,205,214,181,-69,-230,434,1240,1407,1108,822,635,469,350,304,295,290,286,286,291,300,313,315,325,332,339,351,348,354,351,350,347,347,348,344,352,367,377,408,436,473,513,540,574,593,593,573,542,505,463,420,394,365,335,299,264,226,173,125,75,26,-30,-87,-137,-194,-248,-294,-342,-389,-432,-472,-506,-538,-561,-583,-602,-615,-628,-628,-623,-621,-625,-632,-628,-627,-617,-612,-610,-606,-597,-584,-571,-564,-534,-528,-528,-508,-463,-407,-381,-366,-349,-376,-576,-709,-159,600,591,403,264,168,73,-14,-54,-65,-72
2019-06-03,11:06:15.344,-421,-421,-414,-409,-405,-400,-388,-380,-373,-370,-365,-358,-353,-353,-350,-346,-339,-333,-327,-312,-293,-274,-251,-229,-205,-180,-167,-165,-164,-160,-153,-160,-154,-161,-157,-167,-182,-181,-183,-187,-196,-203,-211,-217,-224,-229,-231,-235,-243,-241,-235,-252,-245,-215,-215,-216,-217,-195,-160,-147,-143,-134,-116,-109,-117,-113,-93,-75,-73,-84,-83,-85,-70,-75,-63,-49,-46,-38,-39,-37,-41,-21,-7,-10,-10,-6,-114,-415,-382,482,1121,1010,711,463,299,135,39,15,-6,-19,-24,-31,-37,-59,-51,-53,-69,-63,-65,-70,-84,-99,-106,-123,-135,-153,-167,-171,-175,-175,-169,-152,-131,-98,-73,-61,-55,-50
2019-06-03,11:06:16.369,-570,-546,-542,-542,-528,-525,-511,-514,-503,-496,-501,-496,-485,-476,-471,-474,-462,-456,-449,-445,-440,-430,-402,-393,-391,-383,-364,-347,-339,-331,-320,-308,-297,-283,-277,-266,-251,-244,-233,-223,-216,-206,-183,-177,-171,-173,-163,-163,-157,-134,-124,-108,-101,-95,-94,-88,-79,-73,-67,-59,-123,-410,-515,267,1056,1110,798,512,334,172,56,15,2,0,-7,-12,-11,-13,-12,-14,-14,-14,-9,-12,-15,-24,-29,-38,-43,-50,-64,-54,-60,-55,-47,-27,2,22,41,50,52,65,59,59,63,62,64,58,56,47,41,40,33,33,31,19,19,13,15,12,3,1,-7,-2,0,-5,-4,-13
2019-06-03,11:06:17.393,-168,-169,-172,-166,-163,-161,-159,-170,-168,-173,-169,-166,-161,-147,-143,-129,-126,-132,-129,-126,-117,-115,-107,-103,-136,-355,-518,-30,747,811,591,388,254,136,40,0,-5,-12,-6,-5,1,10,18,28,36,44,53,56,64,64,70,74,70,74,79,78,80,86,97,114,133,141,150,159,162,160,162,158,162,166,171,171,172,169,164,160,158,152,151,147,152,147,140,141,133,122,118,107,97,80,68,55,35,11,-10,-26,-43,-67,-85,-106,-120,-130,-147,-165,-181,-189,-202,-197,-200,-204,-195,-196,-206,-208,-215,-205,-199,-195,-203,-396,-691,-379,573,1085,850,529,276,92
2019-06-03,11:06:18.418,-171,-248,-271,-286,-293,-297,-294,-299,-303,-303,-302,-298,-295,-294,-300,-303,-310,-318,-325,-334,-339,-341,-340,-338,-325,-302,-266,-234,-207,-191,-164,-135,-126,-131,-123,-123,-133,-136,-137,-151,-157,-162,-165,-168,-168,-166,-160,-153,-153,-152,-147,-147,-148,-144,-138,-133,-127,-127,-117,-112,-108,-103,-93,-84,-83,-78,-71,-62,-65,-68,-66,-60,-59,-35,-29,-19,-7,2,-5,5,13,13,24,30,32,-119,-435,-265,716,1333,1141,810,549,366,202,115,87,69,49,41,37,36,30,27,18,15,16,9,2,-2,-10,-18,-27,-31,-36,-35,-31,-28,-19,-4,18,35,52,63,72,76,78,71
2019-06-03,11:06:19.443,-32,-35,-36,-42,-48,-49,-56,-60,-66,-67,-75,-74,-77,-89,-94,-92,-98,-94,-96,-99,-99,-103,-96,-101,-104,-104,-104,-105,-106,-113,-116,-123,-127,-134,-141,-142,-150,-151,-144,-144,-137,-141,-145,-156,-153,-149,-151,-146,-146,-179,-398,-603,-185,662,769,511,309,161,39,-54,-107,-105,-108,-108,-102,-91,-81,-68,-62,-51,-39,-24,-10,0,15,23,42,50,62,75,88,103,118,124,121,116,105,82,76,64,59,57,57,53,44,36,28,17,5,-3,-13,-22,-27,-31,-42,-43,-43,-46,-48,-50,-50,-50,-49,-49,-44,-39,-42,-38,-35,-29,-26,-24,-24,-19,-24,-20,-22,-22
2019-06-03,11:06:20.467,65,64,64,65,84,79,82,80,72,66,64,65,64,61,52,5,-255,-415,241,1053,1286,872,525,363,215,105,45,18,15,12,-2,-4,-27,-28,-27,-29,-45,-67,-103,-107,-114,-133,-152,-168,-184,-188,-197,-197,-198,-186,-164,-139,-114,-90,-75,-55,-52,-34,-16,0,13,20,31,35,36,38,40,38,33,35,33,24,15,19,8,6,0,0,-6,-15,-21,-26,-36,-46,-50,-55,-65,-73,-79,-90,-92,-97,-105,-120,-125,-136,-145,-158,-171,-177,-195,-207,-200,-204,-209,-209,-216,-230,-237,-241,-237,-226,-234,-271,-469,-734,-299,580,1002,613,193,-24,-217,-378,-468,-505,-559,-600
2019-06-03,11:06:21.492,-473,-509,-536,-495,-237,18,111,143,159,152,244,295,303,304,301,290,264,262,262,243,248,255,246,246,231,231,224,181,179,175,167,150,139,130,106,85,76,77,77,77,71,68,72,60,51,51,37,32,35,16,4,16,21,14,5,-1,2,14,23,16,36,72,49,30,73,65,86,123,139,138,144,156,142,127,140,152,152,187,185,179,171,173,171,175,176,185,145,-132,-319,257,1147,1341,1074,742,526,329,161,86,52,38,49,54,59,63,60,56,50,44,32,21,11,-7,-24,-43,-57,-67,-85,-98,-105,-115,-119,-126,-114,-106,-105,-104,-108,-108
2019-06-03,11:06:22.517,486,472,461,453,438,413,434,431,383,383,399,367,321,322,326,313,299,289,304,320,322,302,298,299,284,306,308,256,268,282,266,235,230,250,263,224,249,256,257,248,246,238,227,206,197,203,199,205,206,183,-20,-216,73,877,1030,923,707,540,404,289,214,196,186,170,158,149,141,137,129,125,115,111,103,95,81,64,48,31,14,3,-5,-4,-10,-13,-16,-11,-22,-29,-34,-39,-48,-53,-58,-68,-74,-84,-93,-100,-115,-126,-133,-137,-146,-150,-151,-158,-164,-168,-176,-178,-182,-183,-191,-195,-201,-210,-221,-226,-225,-236,-240,-241,-246,-252,-258,-265,-272,-277
2019-06-03,11:06:23.542,532,514,495,490,483,473,466,449,422,410,400,393,378,368,346,185,-83,72,911,1307,1122,882,686,543,407,334,327,334,326,322,323,316,319,324,319,315,309,304,302,315,326,320,310,308,308,306,321,342,343,337,346,354,361,368,376,381,378,384,394,396,399,398,394,383,379,373,368,359,350,339,328,314,303,288,274,267,255,246,233,222,214,206,197,192,183,172,166,158,149,135,125,118,108,106,105,106,105,95,83,72,66,56,49,42,39,-33,-274,-362,245,819,681,530,346,238,128,30,-19,-32,-45,-57,-62,-69,-75,-77,-82,-87,-94,-102
2019-06-03,11:06:24.566,855,835,810,784,759,733,708,697,681,666,654,642,635,628,623,609,599,590,575,563,551,540,532,521,506,497,487,476,458,444,432,426,414,402,387,377,360,342,332,320,308,302,294,279,262,250,245,230,219,204,195,179,176,185,183,182,179,164,152,151,141,138,129,124,120,35,-218,-269,454,1027,856,633,437,319,201,107,71,55,38,30,22,11,3,-5,-13,-20,-31,-41,-50,-61,-72,-81,-96,-109,-129,-138,-144,-150,-145,-139,-127,-109,-97,-91,-84,-80,-75,-75,-75,-75,-73,-76,-77,-81,-80,-83,-85,-85,-86,-90,-88,-87,-94,-87,-85,-84,-78,-76
2019-06-03,11:06:25.591,664,656,649,637,625,618,603,594,585,573,560,546,529,512,506,497,492,492,479,475,467,457,439,426,416,411,399,388,355,136,-92,325,1188,1396,1107,838,651,497,362,293,276,252,222,213,201,184,174,166,156,143,133,116,103,85,70,54,34,15,3,-10,-18,-19,-15,-9,4,19,29,40,43,46,47,42,40,39,36,34,27,22,21,14,8,1,-5,-11,-13,-8,-12,-19,-23,-24,-26,-27,-27,-30,-35,-36,-37,-37,-46,-52,-59,-62,-58,-51,-49,-44,-44,-49,-56,-53,-55,-55,-55,-55,-55,-108,-367,-506,171,929,932,650,402,248,104,-6,-43,-59
2019-06-03,11:06:26.616,415,404,392,380,373,363,349,338,326,318,304,286,272,256,239,220,203,194,188,183,181,179,185,195,203,210,210,214,213,216,216,211,206,200,195,191,186,178,168,163,152,147,142,135,136,134,129,127,125,123,119,117,118,112,106,99,95,86,84,91,98,102,98,95,84,80,81,76,77,74,69,65,-10,-289,-367,417,1109,1043,770,519,356,199,95,62,43,31,23,20,15,8,4,-1,-6,-11,-18,-21,-30,-39,-51,-57,-69,-77,-84,-87,-88,-87,-79,-69,-60,-47,-36,-23,-15,-8,-3,-5,-7,-8,-9,-8,-8,-14,-16,-19,-24,-33,-31,-34
2019-06-03,11:06:27.640,199,192,188,178,174,174,168,165,159,156,151,144,141,134,124,118,110,109,119,123,122,116,115,101,98,94,90,85,85,85,76,-24,-267,-272,493,985,811,610,415,290,167,82,48,32,21,11,8,5,0,-6,-9,-10,-15,-22,-27,-37,-43,-50,-57,-67,-74,-78,-79,-79,-75,-66,-57,-54,-50,-47,-45,-41,-44,-44,-43,-44,-47,-50,-51,-50,-51,-54,-57,-59,-60,-61,-64,-64,-64,-64,-64,-66,-65,-61,-60,-56,-55,-56,-61,-60,-63,-63,-65,-71,-71,-61,-45,-38,-38,-35,-40,-42,-37,-33,-33,-29,-30,-25,-67,-297,-455,101,865,903,648,419,273,137
2019-06-03,11:06:28.665,56,15,3,-12,-22,-25,-29,-29,-30,-33,-40,-41,-41,-46,-56,-65,-76,-85,-95,-104,-105,-107,-109,-107,-100,-86,-66,-52,-45,-34,-23,-12,-8,-9,-3,1,-1,-2,0,-1,-3,-4,-8,-10,-8,-10,-9,-8,-4,-4,-1,0,0,3,3,7,5,4,5,4,2,1,0,0,-4,-5,-5,0,-1,-1,-5,-12,-17,-19,-28,-21,-17,-9,-1,-3,-13,-19,-20,-16,-15,-15,-21,-149,-428,-314,584,1120,929,642,415,243,95,18,-7,-25,-34,-40,-46,-47,-55,-58,-63,-68,-69,-76,-84,-93,-104,-117,-127,-139,-149,-154,-157,-156,-156,-145,-129,-111,-94,-75,-62,-51
2019-06-03,11:06:29.690,-100,-99,-91,-84,-84,-83,-84,-85,-83,-84,-82,-82,-79,-83,-84,-83,-79,-78,-75,-73,-71,-67,-64,-61,-54,-48,-47,-50,-45,-43,-45,-45,-43,-41,-44,-38,-35,-34,-33,-27,-28,-24,-24,-25,-24,-25,-30,-31,-35,-34,-27,-11,-2,1,-2,0,1,7,8,9,-3,-187,-440,-115,797,1140,900,622,414,248,114,46,26,12,4,-6,-10,-12,-14,-21,-31,-32,-39,-41,-50,-63,-69,-77,-93,-105,-111,-112,-113,-112,-103,-94,-80,-66,-51,-37,-28,-19,-16,-10,-10,-6,-7,-5,-7,-7,-11,-16,-19,-21,-20,-17,-24,-22,-21,-23,-25,-24,-21,-18,-21,-21,-20,-18
2019-06-03,11:06:30.714,-231,-230,-223,-221,-220,-218,-213,-212,-210,-207,-203,-201,-201,-195,-193,-189,-185,-190,-198,-190,-193,-190,-184,-174,-164,-156,-159,-160,-157,-152,-144,-141,-146,-244,-469,-458,301,781,612,411,228,109,2,-81,-107,-118,-124,-126,-128,-131,-129,-128,-130,-131,-131,-135,-134,-144,-154,-156,-167,-170,-174,-172,-170,-165,-158,-148,-137,-122,-110,-101,-91,-90,-83,-80,-79,-79,-74,-71,-68,-71,-74,-73,-70,-72,-75,-73,-69,-66,-63,-66,-64,-56,-57,-56,-51,-47,-44,-41,-43,-41,-33,-30,-31,-30,-25,-24,-23,-17,-14,-15,-14,-11,-6,-5,-5,-11,-12,-18,-21,-15,-7,4,6,5,0,4
2019-06-03,11:06:31.739,-328,-319,-315,-311,-347,-576,-733,-132,645,722,458,212,55,-85,-188,-224,-236,-243,-247,-246,-244,-245,-241,-238,-232,-235,-236,-235,-236,-243,-254,-262,-264,-271,-275,-271,-267,-266,-252,-237,-216,-194,-181,-163,-149,-133,-123,-118,-115,-113,-107,-108,-105,-100,-98,-95,-98,-97,-95,-92,-92,-88,-83,-83,-80,-77,-74,-70,-62,-58,-58,-55,-52,-49,-45,-46,-44,-39,-39,-37,-33,-30,-34,-31,-24,-23,-22,-20,-20,-21,-15,-14,-16,-15,-14,-14,-15,-13,-14,-20,-21,-23,-24,-18,-15,0,0,-1,-6,-2,-2,-2,0,1,-32,-257,-467,77,926,1103,819,540,356,199,74,26,7,-4
2019-06-03,11:06:32.764,-341,-342,-338,-333,-330,-330,-331,-332,-332,-333,-337,-338,-348,-351,-361,-367,-368,-366,-365,-362,-350,-334,-308,-282,-261,-236,-219,-205,-196,-185,-178,-172,-167,-164,-159,-159,-156,-155,-152,-147,-145,-139,-134,-132,-129,-123,-120,-111,-110,-108,-104,-95,-91,-84,-79,-79,-77,-70,-68,-66,-62,-60,-55,-52,-50,-48,-44,-41,-40,-39,-38,-37,-34,-29,-23,-21,-19,-17,-20,-20,-18,-16,-21,-20,-23,-29,-23,-15,-3,2,3,-4,0,0,8,4,5,-38,-266,-422,154,926,968,717,470,320,183,70,25,9,-3,-11,-21,-21,-27,-28,-28,-29,-31,-36,-47,-53,-60,-68,-76,-84,-92,-97
2019-06-03,11:06:33.788,-473,-468,-460,-454,-437,-411,-390,-371,-360,-350,-341,-333,-325,-320,-312,-305,-300,-295,-291,-288,-287,-284,-275,-271,-267,-265,-260,-256,-251,-245,-242,-237,-233,-229,-225,-219,-214,-211,-205,-200,-199,-197,-190,-186,-182,-178,-177,-175,-168,-162,-161,-160,-153,-149,-152,-146,-145,-143,-139,-131,-113,-107,-108,-109,-106,-98,-90,-85,-82,-122,-336,-463,65,769,768,550,337,214,99,6,-36,-50,-60,-63,-67,-68,-69,-72,-74,-76,-79,-77,-81,-86,-93,-102,-106,-110,-117,-120,-115,-114,-108,-96,-81,-69,-60,-54,-46,-43,-40,-30,-29,-23,-21,-21,-18,-17,-19,-22,-18,-20,-19,-23,-23,-19,-20,-15
2019-06-03,11:06:34.813,-458,-448,-439,-428,-419,-415,-404,-397,-394,-390,-380,-374,-363,-351,-348,-337,-330,-323,-315,-307,-297,-289,-282,-276,-269,-267,-260,-248,-247,-246,-242,-242,-236,-228,-210,-192,-187,-184,-182,-173,-169,-160,-154,-152,-254,-522,-477,386,999,840,556,326,166,24,-58,-79,-90,-103,-103,-107,-107,-105,-109,-111,-111,-113,-120,-125,-130,-138,-150,-162,-171,-177,-180,-178,-177,-175,-161,-139,-117,-96,-76,-57,-47,-37,-35,-33,-27,-27,-23,-23,-21,-17,-19,-23,-22,-22,-22,-21,-17,-14,-17,-16,-11,-9,-7,-8,-5,-5,-1,3,5,6,5,0,2,5,6,6,9,8,8,9,7,12,14,18
2019-06-03,11:06:35.838,-354,-345,-338,-338,-334,-326,-321,-317,-311,-310,-309,-309,-306,-294,-283,-268,-256,-252,-253,-240,-234,-231,-223,-216,-254,-495,-672,-44,781,904,620,343,165,11,-97,-138,-150,-164,-169,-168,-166,-166,-165,-164,-163,-161,-162,-170,-175,-179,-181,-191,-203,-206,-210,-207,-205,-198,-186,-169,-147,-129,-109,-98,-86,-77,-71,-64,-63,-61,-57,-56,-58,-55,-53,-52,-53,-51,-47,-49,-46,-39,-34,-34,-30,-27,-30,-32,-28,-30,-31,-30,-26,-25,-20,-17,-18,-20,-22,-21,-22,-23,-21,-16,-17,-16,-15,-15,-15,-12,-10,-16,-17,-15,-21,-26,-23,-24,-28,-25,-15,-5,-2,-12,-12,-8,-6,-3
2019-06-03,11:06:36.862,-380,-379,-505,-729,-614,212,598,384,169,-1,-116,-224,-288,-305,-314,-315,-321,-320,-315,-311,-308,-306,-304,-299,-296,-300,-299,-299,-300,-303,-305,-304,-299,-292,-282,-271,-254,-240,-226,-215,-208,-201,-192,-188,-179,-170,-167,-162,-160,-155,-151,-152,-149,-146,-144,-144,-139,-133,-129,-125,-119,-117,-113,-108,-99,-98,-97,-92,-89,-89,-80,-81,-78,-75,-71,-71,-67,-63,-63,-60,-57,-53,-51,-49,-46,-43,-40,-41,-37,-37,-40,-41,-46,-45,-45,-40,-34,-20,-16,-15,-23,-16,-15,-16,-14,-9,-45,-267,-441,104,894,986,712,469,318,178,69,24,7,-4,-11,-12,-12,-16,-17,-20,-25,-31
2019-06-03,11:06:37.887,-408,-410,-409,-412,-417,-423,-428,-430,-427,-424,-421,-413,-396,-375,-352,-327,-311,-292,-272,-264,-255,-244,-234,-230,-220,-217,-215,-209,-207,-207,-205,-198,-194,-191,-190,-187,-183,-181,-173,-170,-164,-158,-154,-149,-144,-137,-135,-130,-122,-121,-116,-111,-108,-107,-104,-99,-98,-95,-88,-88,-81,-80,-73,-70,-69,-67,-62,-59,-58,-56,-60,-52,-49,-50,-46,-47,-44,-49,-51,-49,-49,-43,-43,-29,-21,-17,-19,-18,-12,-9,-10,-3,-31,-246,-481,3,887,1156,859,571,371,212,84,31,11,-3,-10,-17,-23,-24,-30,-35,-38,-41,-45,-51,-57,-64,-78,-89,-101,-116,-123,-130,-129,-126,-123,-111
2019-06-03,11:06:38.912,-400,-372,-348,-328,-312,-296,-284,-278,-271,-265,-255,-255,-254,-242,-236,-238,-235,-232,-226,-228,-222,-215,-215,-211,-205,-198,-193,-186,-178,-174,-168,-163,-158,-154,-147,-145,-138,-133,-129,-123,-117,-107,-105,-102,-100,-99,-93,-93,-90,-90,-87,-78,-75,-74,-71,-68,-69,-68,-62,-61,-60,-58,-56,-53,-54,-50,-49,-46,-45,-44,-39,-43,-46,-45,-52,-51,-40,-28,-18,-15,-17,-20,-15,-16,-16,-9,-6,-93,-356,-392,410,1060,947,672,430,278,147,49,9,-6,-15,-21,-24,-27,-31,-36,-35,-37,-41,-47,-55,-61,-72,-79,-93,-105,-109,-114,-118,-119,-113,-105,-93,-74,-54,-38,-26,-21
2019-06-03,11:06:39.936,-313,-305,-301,-301,-294,-290,-287,-280,-275,-272,-268,-265,-264,-258,-257,-253,-254,-249,-244,-238,-235,-234,-233,-227,-220,-214,-211,-204,-197,-190,-187,-185,-180,-177,-175,-170,-165,-161,-154,-154,-153,-148,-142,-138,-134,-129,-126,-122,-120,-118,-112,-105,-103,-102,-97,-93,-92,-91,-95,-96,-93,-95,-85,-83,-66,-62,-60,-64,-60,-61,-58,-55,-53,-79,-276,-448,-15,763,865,617,396,257,140,40,-10,-27,-39,-48,-51,-51,-52,-56,-54,-59,-62,-61,-68,-72,-77,-85,-92,-101,-106,-111,-114,-109,-107,-101,-92,-76,-63,-51,-37,-30,-23,-21,-20,-16,-16,-14,-13,-17,-16,-14,-13,-19,-21,-17
2019-06-03,11:06:40.961,-321,-320,-319,-316,-311,-305,-300,-295,-284,-277,-272,-268,-263,-258,-256,-250,-245,-238,-230,-226,-222,-217,-207,-202,-200,-189,-189,-181,-179,-171,-166,-166,-161,-155,-148,-144,-138,-133,-134,-129,-124,-120,-116,-116,-113,-109,-105,-100,-96,-99,-96,-95,-99,-89,-86,-68,-58,-56,-57,-61,-56,-57,-50,-44,-60,-241,-494,-118,782,1153,843,553,350,194,65,7,-15,-25,-32,-43,-45,-47,-47,-51,-53,-60,-63,-70,-78,-84,-92,-105,-120,-129,-137,-146,-149,-148,-147,-137,-117,-90,-65,-43,-26,-16,-13,-5,0,-1,0,2,5,5,6,3,0,0,3,0,-4,-4,-6,-8,-6,-4,-2,-4
2019-06-03,11:06:41.986,-243,-237,-233,-231,-220,-214,-210,-204,-203,-196,-196,-196,-192,-186,-179,-178,-175,-174,-170,-164,-163,-160,-155,-149,-150,-142,-139,-140,-138,-134,-131,-128,-129,-125,-121,-117,-113,-109,-109,-109,-107,-110,-106,-110,-103,-95,-85,-70,-65,-66,-68,-65,-56,-57,-52,-60,-201,-477,-302,608,1138,904,605,381,219,74,-1,-28,-42,-52,-56,-60,-64,-65,-66,-69,-73,-79,-84,-85,-95,-105,-111,-123,-139,-149,-151,-149,-149,-146,-137,-122,-96,-69,-53,-37,-24,-18,-15,-13,-8,-5,-5,-7,-3,-4,-5,-3,-5,-6,-4,-1,-3,-11,-8,-5,-3,0,0,2,0,3,4,5,9,8,8,6
2019-06-03,11:06:43.010,-189,-188,-186,-180,-175,-174,-170,-163,-164,-162,-157,-154,-153,-150,-144,-141,-140,-139,-138,-136,-135,-129,-128,-127,-122,-121,-117,-115,-111,-114,-119,-119,-118,-119,-114,-108,-95,-88,-86,-88,-85,-80,-75,-72,-70,-120,-350,-482,121,850,845,599,366,225,103,3,-37,-55,-62,-68,-70,-72,-76,-79,-80,-81,-82,-84,-88,-90,-98,-103,-111,-121,-129,-132,-136,-133,-127,-120,-108,-92,-74,-62,-54,-50,-45,-41,-43,-43,-39,-37,-35,-36,-33,-34,-34,-38,-37,-32,-35,-33,-35,-33,-34,-35,-34,-35,-33,-32,-27,-32,-31,-26,-30,-30,-25,-22,-23,-24,-22,-22,-21,-21,-19,-16,-18,-17
2019-06-03,11:06:44.035,-234,-231,-229,-228,-226,-232,-224,-228,-223,-213,-200,-191,-188,-191,-187,-184,-179,-174,-168,-180,-344,-550,-291,545,805,549,330,173,53,-60,-119,-132,-142,-146,-151,-148,-153,-154,-151,-152,-154,-156,-158,-158,-162,-167,-178,-182,-188,-197,-197,-193,-189,-186,-173,-152,-135,-117,-102,-95,-88,-86,-87,-83,-79,-75,-72,-71,-70,-71,-74,-73,-71,-70,-68,-63,-65,-65,-57,-54,-52,-47,-43,-38,-42,-38,-37,-37,-32,-30,-32,-27,-25,-25,-25,-20,-14,-16,-15,-15,-14,-16,-15,-18,-15,-16,-13,-15,-17,-20,-21,-25,-26,-22,-28,-34,-36,-42,-47,-46,-53,-45,-39,-24,-19,-25,-29,-29
2019-06-03,11:06:45.060,-164,-160,-156,-151,-170,-377,-633,-163,738,1073,770,474,263,97,-34,-85,-110,-122,-131,-133,-133,-137,-140,-142,-146,-146,-148,-154,-159,-168,-174,-183,-196,-210,-218,-226,-230,-225,-218,-207,-188,-162,-139,-114,-95,-81,-74,-64,-55,-46,-46,-43,-41,-37,-36,-36,-35,-34,-35,-34,-31,-35,-33,-32,-31,-33,-32,-28,-26,-22,-23,-22,-19,-14,-11,-9,-9,-5,-4,-2,0,3,3,1,2,1,3,9,5,7,11,14,14,12,15,11,12,16,18,17,14,12,18,14,12,13,10,12,11,5,0,0,-3,-8,-3,3,15,14,18,11,9,12,11,9,13,-28,-272,-438
2019-06-03,11:06:46.084,58,875,964,675,396,226,76,-43,-91,-107,-121,-130,-135,-138,-142,-139,-144,-149,-152,-155,-158,-163,-169,-175,-186,-197,-205,-208,-212,-214,-209,-205,-188,-174,-156,-131,-117,-108,-97,-96,-89,-85,-85,-84,-84,-83,-79,-78,-78,-79,-79,-82,-84,-81,-85,-87,-88,-86,-86,-84,-86,-83,-76,-72,-73,-73,-69,-67,-68,-65,-65,-66,-60,-56,-60,-56,-62,-61,-62,-61,-59,-61,-60,-59,-65,-64,-68,-67,-57,-53,-49,-45,-48,-56,-49,-48,-45,-46,-44,-62,-240,-438,-111,704,915,642,421,272,158,51,-4,-18,-26,-35,-39,-41,-37,-36,-37,-38,-38,-40,-42,-46,-53,-62,-70,-83
2019-06-03,11:06:47.109,-238,-242,-247,-246,-241,-228,-215,-191,-171,-151,-139,-130,-119,-113,-107,-103,-98,-91,-90,-89,-87,-88,-83,-79,-79,-81,-81,-81,-83,-81,-81,-79,-78,-77,-71,-70,-69,-63,-64,-57,-58,-52,-50,-48,-46,-44,-43,-43,-38,-37,-38,-37,-35,-37,-35,-32,-34,-33,-31,-30,-31,-30,-27,-25,-25,-20,-18,-18,-26,-30,-29,-33,-27,-15,-9,0,2,2,-5,-6,-4,0,4,3,-7,-166,-453,-204,707,1206,965,654,422,250,97,25,0,-20,-30,-31,-36,-42,-46,-52,-55,-61,-68,-73,-79,-91,-103,-117,-130,-141,-154,-164,-165,-167,-166,-161,-142,-117,-89,-67,-53,-41,-29,-25
2019-06-03,11:06:48.134,-143,-143,-138,-131,-133,-132,-128,-128,-125,-122,-117,-120,-120,-120,-121,-117,-112,-115,-117,-113,-111,-106,-105,-98,-91,-91,-82,-76,-73,-70,-65,-60,-59,-54,-50,-47,-50,-43,-44,-41,-42,-43,-32,-32,-29,-30,-27,-24,-26,-30,-36,-36,-42,-42,-25,-19,-12,-16,-21,-24,-25,-19,-19,-15,-13,-37,-247,-496,-80,813,1143,934,617,394,219,75,12,-8,-23,-32,-40,-47,-49,-51,-56,-59,-65,-69,-71,-81,-91,-97,-108,-122,-134,-140,-147,-149,-152,-147,-144,-129,-106,-92,-74,-58,-42,-33,-26,-19,-16,-18,-13,-12,-10,-9,-7,-9,-12,-12,-14,-16,-22,-24,-27,-22,-19,-22
2019-06-03,11:06:49.158,-105,-108,-102,-97,-93,-92,-85,-85,-83,-80,-78,-81,-79,-77,-76,-76,-78,-74,-73,-76,-82,-85,-86,-78,-62,-55,-47,-48,-51,-56,-57,-55,-52,-53,-51,-91,-329,-533,11,840,1032,833,530,332,159,22,-29,-52,-64,-74,-82,-85,-89,-93,-94,-96,-94,-91,-100,-106,-114,-124,-133,-142,-150,-157,-158,-157,-150,-142,-134,-117,-101,-90,-74,-62,-51,-43,-36,-31,-35,-32,-29,-23,-18,-18,-21,-26,-27,-27,-28,-29,-31,-32,-34,-32,-34,-32,-31,-28,-28,-28,-30,-26,-28,-26,-25,-28,-28,-29,-32,-29,-33,-34,-39,-42,-43,-50,-38,-29,-26,-18,-21,-25,-30,-25,-22,-17
2019-06-03,11:06:50.183,-68,-68,-143,-414,-523,209,926,1000,791,490,297,125,6,-28,-46,-63,-70,-74,-75,-77,-80,-84,-86,-88,-92,-94,-101,-112,-114,-126,-136,-147,-150,-152,-148,-144,-141,-129,-117,-102,-86,-71,-58,-50,-39,-33,-25,-19,-17,-10,-6,-3,-3,-3,-1,-3,-9,-11,-11,-11,-13,-15,-12,-11,-11,-17,-12,-11,-8,-6,-6,-2,0,0,2,-1,3,4,4,2,3,0,0,4,2,-3,-12,-10,-20,-16,-14,-7,1,4,-1,1,3,4,4,7,7,-87,-348,-379,422,993,878,672,444,293,151,58,23,8,1,-8,-9,-18,-24,-27,-33,-35,-38,-46,-55,-68,-82,-90
2019-06-03,11:06:51.208,-181,-189,-191,-194,-191,-193,-190,-177,-169,-155,-143,-135,-127,-122,-115,-111,-106,-103,-104,-100,-98,-96,-93,-94,-91,-91,-89,-90,-91,-90,-90,-91,-92,-88,-85,-84,-83,-83,-77,-80,-77,-75,-77,-76,-75,-75,-75,-76,-83,-75,-80,-79,-72,-65,-52,-54,-57,-59,-56,-56,-50,-50,-49,-79,-278,-413,-21,688,685,508,335,218,119,31,-23,-35,-38,-41,-42,-47,-49,-53,-53,-55,-56,-55,-60,-59,-65,-69,-76,-81,-86,-86,-85,-81,-75,-68,-58,-48,-36,-39,-36,-32,-29,-27,-24,-24,-26,-24,-25,-26,-28,-26,-21,-26,-24,-24,-22,-24,-24,-25,-23,-23,-17,-14,-13,-6
2019-06-03,11:06:52.232,-151,-152,-147,-144,-140,-140,-137,-132,-132,-126,-124,-120,-114,-111,-107,-109,-115,-110,-118,-117,-110,-91,-84,-77,-79,-85,-79,-78,-71,-67,-64,-164,-442,-420,419,1014,867,601,367,212,70,-15,-39,-55,-64,-66,-74,-80,-82,-84,-85,-88,-93,-97,-106,-114,-120,-128,-141,-148,-158,-163,-162,-167,-161,-154,-138,-119,-97,-77,-64,-51,-42,-36,-34,-37,-37,-37,-32,-29,-29,-25,-28,-32,-31,-35,-39,-44,-40,-35,-32,-25,-28,-30,-27,-26,-27,-26,-27,-25,-30,-31,-28,-27,-29,-26,-28,-27,-26,-26,-25,-23,-20,-19,-17,-17,-16,-19,-25,-28,-28,-33,-30,-14,-7,-16,-14,-19
2019-06-03,11:06:53.257,-123,-119,-107,-105,-104,-116,-280,-545,-286,631,1050,826,549,324,165,29,-48,-75,-101,-128,-124,-113,-108,-106,-104,-103,-101,-104,-107,-107,-115,-121,-130,-146,-159,-176,-191,-190,-186,-179,-167,-144,-119,-106,-87,-70,-59,-47,-42,-38,-31,-25,-20,-12,-6,-6,-7,-8,-5,-10,-15,-9,-8,-7,-9,-10,-12,-10,-10,-6,0,2,0,0,1,0,0,0,0,2,2,4,4,2,0,1,2,0,-1,0,3,2,0,-1,0,-2,-3,-4,-10,-11,-12,-17,-14,-8,4,11,10,-1,0,4,6,9,9,-33,-258,-445,76,907,1013,784,521,349,201,80,23,8,-6,-18
2019-06-03,11:06:54.282,-100,-102,-106,-111,-111,-116,-122,-124,-128,-129,-133,-139,-149,-156,-164,-171,-174,-172,-171,-162,-158,-139,-125,-109,-94,-82,-70,-69,-62,-62,-64,-61,-62,-60,-63,-63,-68,-68,-67,-66,-66,-67,-67,-72,-73,-67,-65,-64,-64,-62,-66,-65,-58,-59,-56,-59,-54,-57,-59,-56,-56,-53,-57,-56,-59,-57,-53,-53,-51,-49,-55,-59,-58,-61,-59,-60,-46,-35,-34,-34,-36,-33,-28,-23,-20,-21,-98,-345,-414,316,941,822,609,392,255,131,37,7,-4,-16,-23,-24,-27,-30,-34,-36,-38,-38,-45,-50,-53,-57,-69,-79,-94,-106,-108,-113,-115,-118,-113,-97,-81,-64,-51,-39,-28,-21
2019-06-03,11:06:55.306,-88,-83,-82,-75,-72,-73,-72,-72,-71,-72,-70,-70,-71,-72,-70,-67,-64,-64,-63,-59,-55,-52,-46,-44,-47,-47,-47,-46,-45,-43,-37,-35,-34,-37,-33,-34,-39,-37,-32,-26,-27,-23,-24,-30,-28,-26,-28,-26,-26,-28,-28,-27,-32,-37,-39,-44,-42,-37,-27,-15,-14,-17,-22,-21,-20,-15,-12,-15,-92,-371,-444,364,1081,1041,769,498,313,150,41,6,-11,-22,-27,-33,-39,-42,-46,-53,-60,-66,-73,-81,-93,-101,-113,-127,-139,-151,-157,-162,-165,-164,-162,-150,-131,-108,-85,-68,-47,-36,-26,-19,-11,-10,-12,-8,-3,-3,-7,-10,-10,-11,-19,-19,-21,-21,-18,-21
2019-06-03,11:06:56.331,-69,-69,-63,-65,-60,-59,-56,-53,-52,-49,-50,-51,-53,-49,-46,-47,-43,-43,-41,-39,-41,-39,-39,-37,-37,-38,-40,-33,-31,-34,-30,-29,-28,-27,-30,-29,-29,-26,-21,-20,-18,-26,-28,-28,-34,-27,-24,-13,-2,0,-1,-6,-10,0,3,5,-3,-134,-409,-310,594,1142,968,695,449,286,134,42,14,-8,-18,-23,-27,-33,-37,-37,-41,-47,-54,-58,-64,-73,-78,-91,-105,-117,-128,-132,-135,-136,-133,-134,-119,-102,-82,-64,-49,-38,-30,-22,-19,-17,-17,-17,-15,-10,-19,-16,-16,-15,-22,-23,-21,-21,-24,-27,-25,-19,-21,-25,-24,-21,-23,-22,-23,-24,-21,-22
2019-06-03,11:06:57.356,-89,-87,-83,-83,-81,-78,-79,-80,-79,-73,-69,-73,-72,-68,-71,-66,-63,-63,-64,-61,-62,-64,-66,-73,-70,-74,-73,-72,-66,-52,-54,-61,-57,-54,-52,-46,-44,-47,-158,-404,-361,462,949,766,558,348,211,89,3,-21,-37,-45,-52,-56,-58,-60,-62,-59,-61,-58,-59,-65,-74,-82,-92,-102,-112,-120,-124,-125,-123,-120,-117,-103,-87,-63,-53,-44,-39,-33,-26,-25,-24,-20,-14,-14,-20,-20,-18,-19,-20,-23,-24,-24,-20,-22,-21,-21,-17,-15,-12,-11,-11,-12,-7,-7,-7,-9,-7,-7,-9,-6,-6,-2,-2,1,4,0,0,2,3,2,7,6,4,6,3,1
2019-06-03,11:06:58.381,-52,-50,-52,-50,-49,-54,-57,-58,-63,-58,-53,-40,-33,-29,-36,-37,-32,-33,-28,-27,-40,-197,-477,-256,675,1140,929,644,407,236,87,9,-14,-33,-41,-51,-54,-59,-65,-67,-68,-75,-81,-92,-94,-102,-114,-125,-142,-154,-163,-171,-179,-181,-178,-173,-157,-132,-113,-92,-76,-62,-52,-49,-46,-45,-39,-38,-38,-38,-36,-37,-39,-39,-38,-41,-43,-42,-41,-44,-44,-47,-44,-37,-38,-36,-33,-33,-30,-31,-30,-30,-33,-38,-33,-32,-33,-31,-26,-30,-32,-32,-31,-33,-31,-31,-34,-34,-35,-35,-37,-34,-34,-35,-38,-36,-35,-38,-37,-35,-36,-33,-28,-30,-28,-35,-43,-45
2019-06-03,11:06:59.405,-33,-31,-30,-16,-9,-10,-13,-17,-14,-14,-10,-4,-15,-175,-454,-245,687,1168,971,680,436,265,111,31,6,-12,-22,-25,-29,-38,-43,-48,-54,-60,-60,-66,-71,-79,-92,-103,-118,-130,-142,-153,-161,-161,-163,-158,-145,-124,-101,-75,-53,-36,-26,-22,-16,-14,-12,-11,-10,-7,-15,-15,-17,-20,-22,-27,-25,-22,-27,-23,-22,-20,-23,-32,-29,-23,-20,-20,-19,-19,-18,-14,-24,-15,-19,-20,-18,-18,-15,-16,-13,-10,-21,-16,-12,-18,-25,-23,-10,-10,-27,-18,-10,-18,-20,-17,-14,-25,-27,-24,-30,-28,-27,-24,-9,-4,-13,-8,-8,-2,-7,0,1,-124,-381,-351
2019-06-03,11:07:00.430,490,1011,844,607,382,246,116,18,-13,-18,-38,-44,-38,-47,-52,-59,-51,-57,-68,-68,-64,-68,-87,-88,-98,-111,-116,-123,-127,-126,-126,-119,-108,-89,-70,-57,-47,-37,-29,-28,-24,-28,-29,-28,-28,-30,-30,-32,-28,-29,-31,-31,-36,-35,-36,-33,-41,-42,-44,-44,-46,-42,-43,-43,-41,-46,-39,-38,-37,-36,-35,-38,-31,-35,-36,-35,-29,-30,-30,-27,-26,-26,-23,-20,-25,-27,-33,-31,-38,-35,-30,-22,-12,-11,-13,-17,-11,-8,-9,-12,-10,-77,-331,-435,286,989,934,692,443,288,147,44,5,-8,-20,-28,-32,-33,-37,-41,-43,-48,-51,-58,-64,-74,-77,-88
2019-06-03,11:07:01.455,-93,-105,-118,-124,-130,-136,-131,-122,-106,-92,-75,-57,-39,-26,-21,-14,-10,-5,-2,0,3,0,-2,0,-6,-5,-1,0,-4,-8,-2,-5,-2,-2,-3,-1,0,0,4,5,7,8,7,6,5,6,9,8,2,3,6,4,6,11,10,11,10,13,13,9,7,5,1,5,5,8,3,-5,-10,-16,-13,-8,0,8,9,7,3,2,7,7,9,5,-105,-394,-363,525,1158,1052,763,492,307,147,49,17,-1,-12,-18,-22,-27,-33,-38,-40,-45,-52,-53,-60,-76,-85,-95,-109,-119,-129,-136,-139,-148,-146,-141,-130,-111,-88,-65,-48,-32,-18,-17,-14,-14,-11
2019-06-03,11:07:02.479,-35,-34,-33,-32,-35,-35,-45,-41,-43,-41,-42,-40,-41,-40,-41,-39,-44,-42,-35,-36,-34,-34,-32,-27,-28,-28,-29,-30,-29,-32,-33,-32,-30,-30,-30,-31,-37,-32,-34,-36,-27,-33,-36,-47,-44,-38,-54,-47,-40,-27,-24,-28,-26,-19,-24,-26,-18,-19,-46,-269,-469,-5,866,1029,787,524,342,184,62,5,-11,-19,-38,-37,-35,-44,-42,-40,-44,-58,-61,-56,-60,-74,-84,-91,-102,-105,-116,-123,-117,-118,-111,-104,-86,-83,-59,-54,-51,-35,-35,-28,-22,-28,-21,-27,-24,-23,-29,-32,-22,-33,-32,-25,-30,-28,-31,-21,-36,-26,-31,-28,-18,-31,-21,-25,-16,-19
2019-06-03,11:07:03.504,-49,-50,-51,-43,-49,-54,-46,-41,-52,-45,-41,-44,-37,-47,-47,-42,-48,-47,-58,-53,-41,-29,-32,-32,-33,-34,-34,-30,-19,-24,-62,-255,-467,-36,830,997,773,508,326,177,53,-4,-12,-34,-42,-45,-45,-55,-59,-63,-65,-69,-75,-80,-86,-95,-104,-117,-128,-137,-145,-149,-154,-150,-149,-143,-127,-109,-93,-76,-65,-55,-52,-51,-50,-45,-42,-42,-41,-39,-39,-38,-42,-46,-45,-46,-49,-52,-53,-52,-54,-51,-53,-50,-45,-44,-41,-35,-37,-34,-35,-35,-34,-37,-34,-34,-35,-31,-33,-35,-38,-38,-32,-27,-27,-30,-28,-28,-26,-28,-28,-25,-30,-34,-33,-36,-42,-38
2019-06-03,11:07:04.529,-17,-26,-24,-19,-10,-6,-11,-19,-18,-11,-5,-5,-6,-93,-385,-431,428,1138,1095,803,515,320,157,48,10,-8,-14,-30,-30,-37,-42,-42,-49,-51,-57,-65,-79,-85,-87,-107,-118,-121,-140,-142,-150,-159,-147,-151,-144,-113,-91,-84,-61,-40,-35,-23,-20,-14,-10,-14,-12,-6,-5,-6,-6,-7,-22,-10,-9,-16,-23,-17,-21,-28,-16,-16,-15,-19,-15,-14,-24,-12,-16,-11,-4,-13,1,-6,0,-1,-3,8,-2,-7,-3,-1,-5,-7,-1,4,0,0,6,0,-2,-2,0,2,0,-2,-8,-13,-11,-18,-14,-7,6,8,7,-2,0,2,-1,0,-2,-20,-208,-445
2019-06-03,11:07:05.553,-120,802,1093,859,580,378,217,83,12,-12,-26,-34,-39,-44,-45,-50,-58,-59,-62,-66,-70,-78,-83,-94,-109,-120,-128,-135,-138,-134,-133,-136,-132,-118,-102,-86,-70,-58,-50,-42,-41,-33,-36,-38,-34,-32,-34,-35,-39,-39,-40,-38,-40,-39,-42,-44,-42,-35,-36,-39,-44,-39,-41,-38,-35,-35,-33,-36,-37,-33,-30,-28,-28,-28,-31,-31,-33,-31,-32,-34,-35,-34,-34,-37,-34,-36,-37,-36,-43,-44,-38,-47,-48,-42,-37,-33,-26,-29,-26,-22,-19,-15,-14,-12,-82,-334,-437,276,982,925,681,437,279,143,39,0,-11,-24,-34,-37,-41,-42,-46,-47,-55,-58,-65,-72
2019-06-03,11:07:06.578,-103,-110,-118,-132,-139,-144,-152,-151,-153,-153,-145,-134,-119,-103,-85,-71,-60,-54,-50,-42,-42,-39,-34,-35,-31,-34,-34,-37,-39,-37,-40,-44,-44,-41,-40,-38,-35,-30,-28,-30,-28,-29,-24,-22,-22,-20,-19,-16,-17,-21,-19,-22,-19,-20,-20,-20,-20,-19,-16,-15,-15,-17,-14,-16,-16,-22,-19,-12,-13,-11,-12,-17,-11,-14,-26,-25,-32,-33,-28,-23,-12,-5,-7,-14,-13,-9,-7,-6,-4,-42,-284,-499,94,974,1170,903,597,380,207,75,22,0,-14,-28,-34,-40,-42,-47,-51,-57,-62,-71,-79,-86,-92,-103,-118,-127,-139,-152,-161,-163,-165,-164,-151,-129,-107,-84
2019-06-03,11:07:07.603,-64,-51,-35,-24,-17,-15,-13,-10,-6,-6,-7,-4,-2,-2,-2,-4,-8,-11,-11,-8,-9,-7,-9,-8,-10,-7,-5,-6,-6,-5,-5,-3,-1,-1,-2,-2,0,0,0,0,0,0,3,1,0,-1,-1,-2,-2,-5,-6,-3,-7,-7,-2,1,-1,-2,-3,-6,-4,-5,-4,-9,-16,-13,-23,-17,-5,1,6,1,2,-2,-2,1,6,2,0,-73,-345,-458,303,1055,1035,769,491,314,158,50,5,-12,-25,-33,-37,-41,-46,-50,-51,-58,-62,-66,-75,-75,-85,-95,-104,-115,-130,-135,-140,-140,-140,-132,-131,-111,-90,-70,-58,-53,-42,-36,-35,-32,-32,-27,-24,-23
2019-06-03,11:07:08.627,-32,-33,-35,-37,-40,-40,-38,-41,-39,-38,-42,-37,-42,-39,-39,-40,-34,-29,-28,-29,-31,-33,-31,-31,-30,-31,-27,-27,-29,-28,-31,-29,-29,-29,-29,-26,-33,-32,-39,-45,-46,-49,-46,-30,-20,-15,-18,-21,-23,-23,-20,-21,-21,-18,-88,-340,-427,281,954,885,653,415,262,127,29,-8,-21,-33,-40,-45,-44,-46,-50,-51,-52,-57,-57,-63,-69,-75,-85,-93,-103,-109,-116,-119,-120,-118,-110,-99,-83,-66,-55,-49,-44,-36,-31,-32,-30,-27,-25,-23,-21,-23,-25,-24,-27,-30,-35,-29,-27,-28,-25,-26,-29,-25,-27,-24,-29,-22,-22,-25,-18,-16,-16,-17,-12,-11
2019-06-03,11:07:09.652,-29,-27,-27,-24,-28,-27,-24,-21,-20,-23,-23,-24,-24,-19,-17,-21,-24,-20,-20,-25,-36,-35,-33,-37,-23,-19,-8,-3,-3,-10,-11,-7,-7,-8,-10,-23,-193,-466,-201,733,1166,940,641,402,234,92,18,-4,-21,-28,-32,-38,-49,-48,-51,-54,-56,-63,-70,-75,-86,-97,-110,-119,-128,-143,-150,-155,-159,-159,-148,-134,-116,-91,-67,-54,-44,-29,-23,-24,-18,-13,-14,-17,-15,-16,-18,-17,-21,-21,-20,-22,-21,-20,-19,-20,-21,-21,-17,-15,-17,-13,-13,-16,-12,-10,-13,-13,-9,-9,-10,-7,-10,-13,-12,-6,-5,-8,-5,-1,-5,-2,-3,-2,-1,-5,-2,-6
2019-06-03,11:07:10.677,11,8,8,9,7,9,9,7,2,0,-1,-6,0,8,17,22,23,10,16,19,19,21,19,17,-82,-378,-394,484,1170,1096,805,520,331,164,62,29,9,-7,-8,-17,-23,-27,-31,-29,-33,-44,-50,-55,-64,-73,-84,-94,-108,-122,-132,-136,-137,-142,-140,-129,-109,-86,-62,-40,-25,-14,-7,-4,-3,-2,-4,-1,-2,-1,-3,-4,-5,-8,-9,-17,-18,-17,-21,-21,-26,-25,-21,-21,-23,-22,-20,-16,-14,-14,-13,-14,-12,-13,-15,-16,-16,-15,-15,-10,-11,-15,-17,-21,-18,-15,-15,-14,-14,-17,-19,-22,-23,-20,-25,-30,-27,-30,-25,-13,-6,0,-8,-13
2019-06-03,11:07:11.701,3,8,11,11,14,12,-51,-298,-422,232,971,949,705,451,297,152,42,0,-16,-29,-34,-39,-41,-41,-43,-47,-52,-55,-58,-65,-68,-75,-87,-94,-101,-111,-119,-123,-123,-121,-118,-108,-91,-73,-61,-54,-47,-41,-37,-34,-35,-32,-31,-34,-32,-33,-42,-40,-38,-40,-39,-37,-39,-39,-34,-33,-35,-36,-34,-36,-34,-36,-35,-35,-35,-34,-34,-33,-32,-37,-36,-37,-33,-32,-32,-29,-27,-25,-25,-26,-25,-27,-23,-27,-38,-38,-41,-46,-34,-24,-22,-17,-16,-23,-21,-19,-17,-15,-10,-20,-167,-428,-273,632,1087,892,622,397,236,92,18,-7,-22,-27,-35,-42,-45,-47
2019-06-03,11:07:12.726,-35,-39,-44,-47,-56,-59,-66,-78,-83,-95,-108,-120,-125,-133,-135,-134,-129,-113,-90,-70,-55,-40,-25,-17,-12,-10,-7,-5,-7,-6,-5,-11,-12,-11,-12,-20,-18,-14,-13,-11,-16,-18,-17,-14,-12,-8,-11,-12,-12,-9,-6,-7,-8,-6,-10,-8,-7,-10,-7,-7,-4,-2,0,-3,0,0,-5,-5,-8,-6,-6,-3,-5,-9,-7,-10,-16,-18,-22,-24,-27,-21,-13,-11,0,0,-9,-7,-5,-1,0,4,3,-85,-374,-431,403,1118,1083,803,516,325,156,51,14,-1,-15,-21,-26,-32,-34,-39,-41,-43,-49,-55,-61,-68,-80,-88,-99,-113,-123,-135,-141,-144,-148,-145
2019-06-03,11:07:13.751,-110,-94,-70,-47,-29,-10,2,12,16,19,16,20,21,17,12,10,13,12,11,10,6,2,3,2,0,-3,-2,-6,-8,-5,-6,-5,-2,-4,-7,-2,2,1,1,0,1,2,4,-1,-4,-5,-7,-6,-9,-8,-14,-12,-7,-11,-11,-18,-19,-22,-33,-26,-12,-8,-3,-4,-10,-17,-14,-10,-7,-4,-5,-41,-260,-445,41,868,977,746,488,322,179,62,10,-7,-19,-26,-33,-38,-42,-46,-50,-56,-60,-64,-64,-71,-80,-84,-94,-101,-108,-117,-122,-122,-120,-116,-109,-93,-81,-68,-60,-48,-39,-38,-33,-38,-36,-31,-32,-30,-30,-34,-36,-37,-35,-37,-33,-33
2019-06-03,11:07:14.775,-47,-48,-47,-47,-45,-45,-45,-43,-39,-40,-41,-38,-39,-39,-37,-37,-39,-38,-37,-35,-37,-35,-33,-34,-34,-38,-40,-47,-45,-44,-56,-44,-33,-21,-20,-26,-34,-32,-28,-25,-23,-22,-27,-163,-405,-284,584,1005,796,552,354,212,83,6,-12,-24,-31,-33,-36,-43,-48,-49,-46,-50,-59,-65,-65,-69,-79,-89,-100,-110,-117,-120,-123,-123,-119,-116,-100,-84,-70,-56,-44,-37,-30,-25,-25,-23,-20,-19,-20,-19,-23,-23,-25,-29,-27,-29,-29,-26,-24,-21,-20,-20,-24,-21,-17,-16,-16,-13,-12,-11,-8,-6,-3,-5,-2,-3,-6,-3,-2,-2,-2,-1,2,-2,3,1
2019-06-03,11:07:15.800,-2,-2,-1,-11,-15,-18,-21,-23,-13,-14,-8,-3,-2,-7,-6,-5,-4,-6,-6,-16,-158,-438,-279,642,1171,1002,702,444,262,105,25,-1,-18,-27,-33,-39,-45,-48,-53,-56,-58,-61,-67,-74,-81,-88,-101,-119,-128,-142,-152,-153,-161,-157,-151,-135,-116,-98,-75,-60,-44,-32,-29,-21,-18,-20,-15,-19,-14,-12,-17,-18,-21,-23,-25,-20,-24,-25,-25,-25,-25,-22,-20,-21,-23,-16,-16,-15,-13,-6,-9,-11,-12,-13,-12,-13,-11,-11,-6,-5,-6,-7,-8,-10,-13,-11,-6,-7,-4,-4,-8,-6,-7,-9,-7,-17,-16,-19,-30,-23,-13,-6,2,8,1,-4,0,2
2019-06-03,11:07:16.825,29,28,30,-33,-307,-442,307,1104,1154,880,577,371,201,83,37,20,9,-1,-2,-7,-12,-15,-22,-25,-31,-38,-43,-53,-65,-73,-88,-97,-110,-116,-121,-124,-124,-120,-113,-99,-82,-69,-51,-40,-33,-28,-24,-21,-17,-16,-14,-12,-13,-11,-11,-12,-17,-24,-21,-26,-22,-21,-22,-27,-24,-24,-25,-24,-25,-25,-25,-22,-20,-18,-21,-19,-19,-21,-17,-21,-20,-22,-20,-21,-19,-19,-18,-24,-29,-32,-37,-38,-40,-29,-22,-17,-13,-14,-20,-18,-21,-17,-13,-19,-24,-121,-365,-355,449,979,809,582,369,232,103,20,-11,-25,-36,-36,-36,-39,-40,-42,-46,-48,-55,-62
2019-06-03,11:07:17.849,-72,-77,-83,-94,-96,-104,-109,-113,-115,-111,-108,-101,-90,-80,-65,-59,-59,-50,-41,-37,-35,-36,-32,-33,-36,-37,-38,-41,-42,-43,-41,-40,-42,-41,-43,-38,-34,-31,-31,-29,-32,-31,-25,-23,-24,-25,-22,-22,-23,-22,-25,-25,-31,-25,-22,-24,-22,-23,-25,-24,-25,-26,-34,-41,-42,-44,-37,-25,-24,-18,-16,-15,-22,-19,-18,-20,-17,-13,-28,-216,-451,-112,769,1059,825,554,356,201,71,8,-12,-27,-36,-43,-45,-49,-52,-53,-54,-61,-67,-75,-81,-88,-96,-109,-120,-127,-132,-140,-141,-142,-140,-132,-121,-102,-82,-66,-52,-39,-30,-25,-24,-20,-17,-16,-12,-15
2019-06-03,11:07:18.874,-46,-43,-47,-52,-52,-44,-41,-43,-40,-39,-37,-30,-26,-28,-26,-24,-23,-22,-22,-20,-16,-14,-20,-20,-14,-13,-13,-5,-8,-7,-9,-15,-16,-15,-10,-8,-12,-15,-15,-14,-14,-16,-14,-17,-21,-26,-30,-30,-15,-12,-2,0,-3,-11,-9,-7,-4,-2,2,-16,-211,-478,-128,803,1182,966,653,418,233,85,24,-2,-19,-28,-33,-41,-44,-46,-52,-56,-61,-66,-67,-74,-83,-97,-109,-119,-137,-144,-154,-159,-162,-156,-149,-135,-113,-91,-72,-56,-46,-36,-27,-23,-22,-22,-17,-13,-16,-12,-11,-14,-14,-15,-13,-15,-22,-21,-21,-20,-20,-18,-16,-16,-16,-16,-13,-11
2019-06-03,11:07:19.899,-13,-11,-8,-6,-5,-9,-9,-8,-11,-8,-6,-5,0,-1,0,2,2,5,3,0,4,5,9,6,3,2,-1,-2,-4,-2,6,11,25,26,24,18,22,25,27,26,26,20,-124,-405,-250,677,1193,1041,742,490,307,152,69,44,28,17,6,7,7,4,-2,-2,-2,-10,-16,-25,-27,-35,-42,-51,-65,-70,-73,-81,-85,-85,-77,-64,-46,-31,-15,-3,12,21,29,32,39,37,42,41,41,49,43,42,44,42,42,41,38,36,40,44,43,45,45,49,49,52,51,46,48,54,58,57,58,59,63,61,59,61,59,61,60,62,64,63,61,53
2019-06-03,11:07:20.923,-71,-69,-74,-75,-75,-77,-71,-63,-53,-48,-52,-60,-58,-54,-53,-50,-47,-51,-167,-415,-360,473,942,759,535,330,198,71,-12,-36,-53,-57,-58,-65,-69,-71,-74,-77,-80,-85,-90,-95,-101,-104,-113,-123,-127,-138,-140,-140,-137,-130,-123,-111,-96,-86,-75,-66,-59,-55,-54,-54,-53,-49,-45,-50,-48,-46,-48,-48,-49,-46,-48,-48,-43,-42,-41,-40,-42,-37,-36,-34,-33,-32,-29,-31,-30,-26,-26,-28,-28,-23,-25,-23,-22,-22,-22,-18,-20,-23,-19,-19,-19,-19,-16,-19,-21,-28,-29,-30,-29,-13,-12,-3,-2,-5,-14,-9,-4,-4,-6,-2,-25,-225,-464,-66,818,1098
2019-06-03,11:07:21.948,846,560,353,189,58,-1,-20,-38,-43,-45,-50,-55,-61,-62,-68,-70,-77,-84,-88,-93,-105,-114,-126,-138,-145,-152,-155,-156,-153,-151,-135,-115,-94,-78,-63,-47,-38,-31,-25,-23,-25,-26,-24,-22,-24,-24,-24,-25,-24,-31,-29,-34,-28,-29,-28,-27,-25,-24,-24,-22,-17,-16,-15,-11,-9,-9,-10,-11,-11,-11,-11,-8,-6,-6,-5,-9,-9,-8,-8,-8,-9,-7,-9,-5,-5,-4,-3,-2,-2,-7,-7,-14,-23,-24,-25,-14,-4,5,6,4,-3,-2,0,0,-2,-1,-9,-162,-446,-266,656,1152,981,685,441,268,113,31,3,-9,-21,-28,-31,-29,-35,-38,-42,-48
2019-06-03,11:07:22.973,0,-3,-11,-16,-27,-40,-52,-63,-75,-84,-88,-92,-90,-89,-78,-58,-34,-13,-1,12,24,33,37,36,37,38,39,39,40,35,31,30,30,30,28,24,25,19,20,20,17,17,14,13,14,15,16,17,17,18,18,17,19,19,15,12,14,15,20,19,17,15,20,17,15,12,13,16,12,8,1,1,0,-3,4,12,22,23,20,19,18,20,19,17,21,-3,-212,-413,-8,836,984,763,511,341,202,89,26,8,-1,-9,-15,-16,-21,-26,-29,-32,-43,-47,-48,-55,-62,-71,-83,-92,-95,-101,-108,-109,-110,-110,-103,-94,-79,-62,-55,-49,-43,-37
2019-06-03,11:07:23.997,-64,-60,-57,-52,-45,-47,-45,-51,-53,-54,-56,-52,-55,-57,-58,-58,-55,-55,-51,-50,-49,-53,-53,-55,-48,-47,-44,-47,-44,-41,-40,-38,-43,-43,-39,-38,-40,-35,-34,-37,-39,-45,-44,-45,-48,-36,-30,-22,-19,-20,-27,-22,-19,-18,-15,-13,-27,-192,-426,-187,690,1004,778,529,341,201,78,11,-9,-22,-27,-29,-32,-35,-31,-37,-40,-45,-46,-51,-62,-67,-75,-82,-94,-102,-111,-115,-115,-114,-116,-109,-94,-80,-66,-51,-40,-29,-20,-21,-13,-15,-15,-15,-16,-18,-18,-17,-23,-28,-28,-24,-23,-25,-24,-25,-21,-19,-22,-19,-17,-17,-19,-18,-16,-14,-11,-13
2019-06-03,11:07:25.022,-40,-37,-31,-31,-30,-31,-26,-24,-23,-24,-28,-30,-28,-29,-29,-27,-26,-25,-28,-35,-42,-43,-44,-29,-22,-16,-12,-11,-17,-17,-16,-13,-14,-16,-20,-163,-442,-288,633,1147,972,676,424,249,95,16,-8,-25,-39,-43,-46,-52,-52,-55,-56,-62,-69,-79,-84,-91,-97,-108,-126,-134,-140,-148,-153,-155,-152,-149,-135,-117,-98,-78,-58,-46,-38,-26,-19,-17,-18,-20,-17,-12,-14,-16,-19,-21,-20,-24,-26,-26,-22,-23,-20,-21,-17,-13,-13,-12,-11,-8,-11,-10,-11,-11,-8,-5,-5,-5,-6,-4,-7,-6,-5,-9,-10,-10,-7,-9,-3,-2,-3,-2,-3,-12,-19,-22
2019-06-03,11:07:26.047,-19,-20,-10,0,5,10,8,1,0,5,3,1,0,-8,-142,-411,-272,639,1143,970,683,440,264,119,37,7,-3,-15,-23,-29,-28,-30,-40,-42,-44,-48,-54,-63,-72,-79,-92,-103,-112,-119,-123,-126,-126,-128,-126,-115,-104,-87,-73,-61,-54,-46,-37,-35,-33,-35,-36,-32,-29,-30,-36,-38,-35,-35,-38,-39,-38,-39,-33,-29,-29,-32,-31,-30,-28,-31,-29,-28,-24,-21,-21,-22,-23,-23,-21,-27,-23,-23,-27,-27,-25,-21,-23,-26,-29,-36,-37,-36,-41,-36,-31,-30,-20,-18,-25,-26,-22,-24,-24,-22,-22,-71,-302,-439,146,885,895,671,423,273,137,32,-9,-22
2019-06-03,11:07:27.071,-38,-44,-46,-48,-51,-56,-59,-63,-68,-75,-78,-78,-87,-93,-103,-112,-121,-120,-116,-121,-116,-114,-109,-98,-82,-75,-69,-57,-49,-46,-47,-43,-39,-35,-37,-36,-41,-44,-42,-41,-38,-36,-35,-38,-40,-37,-35,-33,-31,-32,-30,-31,-29,-26,-26,-24,-25,-23,-23,-22,-17,-15,-15,-21,-20,-17,-18,-18,-17,-21,-22,-24,-23,-18,-21,-17,-19,-18,-21,-29,-29,-33,-31,-20,-19,-5,2,-2,-10,-7,-2,0,-1,4,-35,-276,-478,112,949,1090,832,540,352,186,62,13,-4,-13,-21,-28,-34,-37,-41,-42,-43,-50,-52,-59,-67,-78,-88,-99,-114,-126,-136,-143,-149,-146
2019-06-03,11:07:28.096,-149,-142,-122,-103,-84,-72,-57,-45,-39,-30,-26,-25,-21,-23,-22,-22,-21,-20,-21,-21,-22,-27,-28,-21,-26,-25,-26,-26,-28,-27,-25,-21,-14,-12,-10,-9,-11,-6,-4,-8,-10,-10,-13,-12,-9,-6,-8,-7,-9,-9,-6,-8,-11,-10,-10,-7,-8,-4,-3,-8,-6,-12,-16,-21,-22,-29,-29,-17,-11,-4,-1,-1,-5,-6,-5,-3,-4,-3,-11,-176,-456,-219,715,1167,974,675,431,253,105,32,5,-10,-19,-27,-29,-36,-38,-44,-48,-51,-56,-64,-68,-80,-92,-99,-112,-123,-135,-145,-147,-147,-147,-143,-131,-111,-89,-73,-58,-41,-28,-19,-18,-13,-9,-12,-10,-14
2019-06-03,11:07:29.121,-13,-13,-12,-15,-14,-12,-14,-14,-14,-16,-13,-12,-14,-19,-18,-18,-16,-14,-12,-9,-9,-6,-6,-6,-5,-8,-7,-6,-4,-4,-1,-6,-8,-5,-7,-6,-7,-5,-10,-3,-3,-8,-6,-15,-21,-21,-33,-34,-21,-11,-11,-11,-13,-14,-11,-11,-12,-8,-9,-47,-273,-447,72,880,963,735,469,310,166,54,3,-17,-27,-32,-36,-39,-44,-46,-47,-53,-56,-61,-62,-67,-74,-81,-89,-98,-110,-118,-121,-118,-116,-115,-106,-93,-78,-68,-62,-53,-47,-39,-34,-33,-31,-32,-29,-27,-32,-34,-36,-36,-36,-37,-38,-37,-37,-36,-38,-41,-42,-35,-28,-29,-25,-24,-29,-24
2019-06-03,11:07:30.145,-29,-28,-25,-23,-20,-23,-22,-21,-22,-14,-16,-15,-20,-21,-16,-18,-19,-22,-31,-30,-32,-34,-22,-14,-6,-3,-6,-11,-12,-12,-11,-8,-5,-8,-130,-384,-303,563,1047,858,611,394,243,111,28,2,-11,-20,-20,-22,-31,-34,-38,-39,-43,-46,-54,-56,-59,-68,-80,-91,-98,-106,-113,-114,-116,-112,-102,-89,-75,-61,-48,-37,-26,-15,-4,-4,-3,0,3,0,-2,-1,1,3,1,-2,-4,-2,0,-3,-1,0,2,4,3,10,10,9,10,9,10,13,17,17,18,17,18,16,17,19,18,17,18,19,21,24,21,17,19,23,21,20,23,24,15,11
2019-06-03,11:07:31.170,-27,-28,-25,-20,-15,-5,-1,-6,-9,-10,-7,-5,-4,0,-36,-268,-492,42,920,1138,888,581,373,196,65,10,-8,-23,-30,-37,-41,-44,-50,-53,-53,-65,-70,-76,-84,-91,-97,-111,-124,-137,-147,-154,-156,-156,-152,-148,-134,-112,-90,-74,-60,-53,-42,-35,-28,-29,-28,-23,-20,-21,-26,-27,-27,-26,-26,-26,-28,-25,-26,-27,-26,-23,-25,-24,-19,-15,-15,-16,-13,-14,-14,-13,-15,-16,-15,-16,-13,-10,-12,-11,-11,-13,-9,-11,-10,-11,-12,-12,-13,-12,-11,-12,-14,-12,-19,-20,-27,-31,-21,-14,-5,-1,2,-6,-9,-2,-3,-3,-4,-3,-84,-351,-417,383
2019-06-03,11:07:32.195,1088,1019,759,493,320,164,65,29,8,0,-6,-9,-13,-18,-22,-26,-26,-30,-37,-43,-50,-59,-67,-75,-92,-106,-111,-116,-118,-118,-113,-100,-88,-74,-59,-50,-39,-28,-27,-19,-18,-17,-14,-15,-16,-18,-22,-26,-28,-31,-28,-31,-29,-27,-29,-31,-33,-32,-30,-26,-22,-21,-20,-19,-18,-19,-20,-19,-21,-24,-25,-23,-28,-26,-24,-27,-25,-22,-17,-20,-17,-16,-16,-17,-16,-21,-21,-26,-32,-34,-38,-46,-38,-31,-20,-14,-13,-18,-16,-18,-16,-15,-12,-18,-103,-358,-405,371,989,876,634,400,254,117,23,-4,-20,-29,-36,-38,-44,-48,-49,-51,-57,-62,-63,-69
2019-06-03,11:07:33.219,12,1,-6,-11,-19,-29,-41,-49,-48,-46,-41,-29,-9,6,15,22,33,43,48,51,51,51,57,54,53,53,50,50,44,39,36,34,38,40,39,41,38,41,39,38,41,38,45,43,41,40,39,37,35,35,36,32,32,34,34,35,37,35,34,32,34,34,31,28,28,26,31,32,29,25,26,25,19,14,10,7,2,13,18,15,23,25,20,18,22,19,16,20,11,-143,-425,-230,699,1193,1008,702,455,275,122,44,19,1,-11,-16,-22,-25,-29,-32,-36,-44,-49,-55,-60,-73,-84,-98,-109,-123,-131,-141,-145,-148,-147,-139,-126,-107,-90,-72
2019-06-03,11:07:34.244,-52,-40,-27,-19,-13,-13,-12,-10,-10,-10,-13,-12,-15,-15,-12,-13,-15,-16,-18,-18,-21,-17,-16,-15,-9,-13,-11,-10,-9,-8,-6,-2,-5,-6,-2,2,0,-2,0,-4,-5,0,-1,-4,-6,-5,-6,-7,-5,-3,-4,-4,-3,0,-2,-4,-6,-2,0,1,-3,-4,-5,-11,-14,-17,-23,-17,-7,-1,6,8,5,3,5,4,4,8,6,-48,-308,-454,241,1029,1057,791,509,329,171,59,14,-2,-17,-25,-30,-29,-36,-41,-45,-49,-51,-58,-63,-70,-78,-85,-95,-107,-118,-126,-131,-130,-135,-130,-123,-106,-92,-75,-62,-48,-38,-32,-30,-27,-24,-26,-24,-22
2019-06-03,11:07:35.269,-13,-15,-17,-17,-16,-19,-20,-24,-22,-21,-20,-17,-18,-20,-18,-22,-19,-15,-16,-13,-15,-14,-16,-14,-11,-9,-9,-9,-10,-10,-8,-11,-13,-12,-14,-11,-8,-9,-10,-10,-13,-15,-15,-12,-11,-13,-15,-16,-19,-21,-22,-30,-33,-34,-33,-28,-17,-14,-11,-13,-19,-17,-17,-13,-10,-5,-17,-181,-416,-191,683,1009,782,537,348,206,83,14,-4,-19,-26,-31,-35,-38,-43,-44,-46,-54,-61,-62,-66,-73,-83,-90,-100,-113,-121,-127,-130,-132,-131,-124,-105,-86,-71,-61,-49,-40,-32,-25,-24,-21,-18,-15,-17,-18,-15,-18,-20,-23,-23,-27,-28,-25,-21,-25,-23,-21
2019-06-03,11:07:36.293,-16,-20,-22,-23,-22,-19,-21,-17,-15,-10,-10,-10,-6,-4,-5,-7,-3,-4,0,-3,-3,-5,-4,-3,-4,-7,-2,-4,-2,-1,-4,-1,-2,-8,-9,-11,-7,-8,-7,-4,-6,-8,-18,-20,-21,-29,-19,-12,-7,-4,-3,-11,-8,-4,-6,-4,0,-3,-144,-435,-286,639,1172,987,693,442,264,111,30,2,-16,-26,-33,-41,-41,-44,-47,-51,-54,-58,-65,-72,-81,-93,-102,-115,-131,-142,-149,-157,-160,-161,-158,-139,-117,-96,-73,-56,-43,-30,-19,-16,-13,-11,-14,-8,-10,-12,-10,-8,-6,-7,-7,-7,-10,-10,-8,-7,-4,-6,-5,-5,-7,-4,-3,2,1,-2
2019-06-03,11:07:37.318,2,3,2,2,3,4,8,7,13,10,8,5,5,2,2,5,4,2,0,1,2,2,5,1,-3,0,-3,-6,-3,-4,-3,-2,-7,-14,-14,-15,-19,-12,-8,0,4,4,-1,-3,0,1,3,5,-6,-168,-430,-214,719,1141,926,637,408,235,94,22,-4,-22,-32,-38,-41,-43,-50,-53,-59,-61,-66,-68,-73,-82,-91,-97,-109,-120,-127,-131,-137,-137,-134,-127,-119,-104,-81,-66,-54,-42,-31,-32,-29,-27,-25,-26,-17,-19,-24,-29,-30,-30,-27,-29,-29,-32,-33,-27,-30,-32,-28,-25,-23,-23,-24,-25,-26,-25,-20,-22,-24,-20,-15,-19,-18,-17,-13,-13
2019-06-03,11:07:38.343,-4,-10,-13,-10,-12,-4,-9,-8,-8,-13,-14,-15,-16,-17,-22,-24,-24,-24,-18,-13,-11,-2,-4,-13,-11,-7,-1,-2,0,-3,-87,-336,-391,366,974,854,622,396,259,125,28,-3,-15,-25,-29,-35,-37,-39,-38,-41,-46,-51,-56,-57,-62,-73,-84,-96,-100,-110,-116,-123,-120,-122,-114,-103,-86,-73,-62,-53,-42,-36,-31,-24,-23,-18,-22,-19,-19,-20,-17,-19,-21,-20,-23,-27,-24,-21,-23,-22,-23,-22,-25,-22,-20,-21,-20,-18,-17,-15,-10,-11,-12,-9,-11,-10,-7,-2,-6,-7,-8,-10,-12,-13,-16,-11,-13,-8,-10,-7,-3,-4,-8,-7,-6,-7,-9,-8
2019-06-03,11:07:39.367,-2,-15,-16,-21,-24,-10,-2,5,6,10,2,7,4,5,6,10,-1,-168,-445,-188,744,1181,960,663,429,255,111,36,7,-9,-18,-28,-35,-35,-38,-47,-52,-55,-60,-64,-66,-78,-88,-104,-115,-129,-138,-143,-152,-154,-152,-148,-138,-118,-92,-73,-57,-42,-32,-22,-21,-18,-13,-12,-11,-10,-12,-11,-11,-14,-18,-19,-21,-26,-24,-18,-17,-19,-19,-18,-13,-16,-19,-18,-21,-22,-23,-17,-14,-12,-10,-10,-9,-7,-6,-8,-7,-4,-8,-7,-7,-10,-9,-11,-8,-7,-9,-8,-7,-5,-5,-7,-6,-8,-7,-8,-3,-6,-7,-8,-8,-9,-7,-11,-17,-20,-25,-25
2019-06-03,11:07:40.392,-1,10,22,20,16,11,10,8,15,19,18,-9,-232,-471,11,912,1174,926,616,405,230,97,41,17,-2,-14,-19,-18,-23,-30,-35,-35,-41,-43,-49,-58,-65,-77,-88,-97,-110,-124,-132,-138,-140,-138,-131,-117,-89,-64,-46,-33,-19,-10,-1,-3,-4,1,7,5,7,8,5,4,8,2,1,2,1,1,0,-2,-4,-2,-1,-1,1,5,4,0,3,7,8,5,12,14,12,12,6,9,8,8,14,12,14,13,13,10,11,12,11,11,8,10,12,9,12,15,11,16,18,18,16,13,9,4,0,3,3,4,11,17,25,25,19,13,13,14
2019-06-03,11:07:41.417,-6,-4,-2,-30,-237,-436,-23,811,955,727,479,320,184,67,10,-10,-25,-29,-35,-41,-45,-41,-46,-47,-52,-57,-62,-68,-71,-80,-90,-98,-108,-114,-118,-119,-114,-111,-106,-95,-80,-65,-52,-44,-40,-34,-31,-31,-28,-26,-27,-25,-29,-30,-31,-30,-29,-28,-35,-34,-29,-25,-24,-26,-22,-22,-24,-23,-22,-20,-19,-13,-16,-13,-17,-18,-13,-15,-14,-14,-14,-13,-14,-13,-17,-19,-17,-14,-12,-12,-11,-12,-13,-14,-13,-12,-11,-12,-11,-15,-15,-13,-13,-16,-20,-19,-24,-24,-16,-10,-1,0,0,-1,2,0,1,4,2,-23,-231,-464,-16,872,1124,872,583,377
2019-06-03,11:07:42.441,231,99,41,17,2,-7,-13,-24,-26,-30,-33,-36,-46,-51,-59,-60,-69,-80,-88,-104,-120,-132,-140,-143,-144,-142,-136,-125,-106,-82,-59,-45,-30,-20,-13,-10,-10,-8,-2,-4,-8,-10,-12,-10,-9,-8,-12,-12,-12,-17,-19,-21,-16,-11,-13,-14,-13,-14,-12,-11,-11,-7,-7,-7,-9,-14,-16,-15,-10,-7,-6,-10,-10,-9,-7,-6,-7,-9,-10,-8,-8,-13,-10,-9,-8,-9,-8,-10,-12,-9,-8,-6,-4,-5,-12,-22,-19,-25,-26,-19,-16,-9,-1,0,-8,-6,-6,-4,-3,-7,-32,-251,-492,-25,879,1150,912,605,388,211,79,23,-2,-18,-34,-42,-45,-55
2019-06-03,11:07:43.466,0,-3,-5,-9,-13,-25,-34,-37,-56,-66,-74,-88,-99,-107,-114,-118,-113,-107,-94,-72,-47,-34,-23,-10,-3,0,3,4,7,7,10,11,11,11,6,6,5,0,3,2,3,1,0,2,0,-2,-2,-1,0,-3,1,2,0,-2,-2,-1,1,5,4,1,3,3,8,7,7,4,0,1,0,2,3,0,4,1,0,4,3,-1,-6,-6,-11,-17,-20,-22,-14,-5,5,3,0,-5,-3,-4,-4,-3,0,-16,-195,-416,-155,718,982,757,518,338,198,82,18,-4,-23,-34,-39,-42,-44,-47,-52,-50,-54,-58,-65,-66,-72,-79,-87,-97,-104,-110,-114,-119
2019-06-03,11:07:44.491,-99,-96,-91,-82,-61,-48,-41,-32,-24,-19,-16,-14,-11,-10,-8,-7,-8,-10,-11,-13,-17,-15,-12,-16,-16,-16,-12,-12,-17,-14,-13,-9,-12,-10,-10,-10,-9,-9,-7,-8,-6,-5,-3,-3,-5,-7,-6,-7,-9,-10,-9,-11,-11,-8,-4,-4,-4,-5,-4,-6,-5,-5,-7,-10,-21,-20,-21,-28,-20,-8,1,3,0,-5,-4,-5,-4,-2,1,1,-115,-398,-362,522,1104,972,702,450,276,124,32,5,-7,-18,-22,-29,-35,-36,-40,-47,-53,-57,-62,-69,-76,-88,-97,-107,-119,-131,-141,-145,-149,-150,-143,-130,-110,-95,-79,-62,-45,-35,-27,-22,-21,-19,-16,-18
2019-06-03,11:07:45.515,-6,-5,-8,-11,-13,-13,-11,-13,-14,-18,-21,-20,-20,-21,-19,-16,-12,-10,-8,-9,-9,-5,-9,-7,-7,-2,-3,-2,-3,-4,-1,-1,-2,-4,-4,-6,-5,-5,-1,-2,-7,-9,-8,-4,-5,-5,-3,-3,0,-5,-10,-16,-20,-22,-29,-17,-8,1,3,4,-2,0,0,1,2,3,-1,-128,-412,-332,570,1147,1013,728,463,279,125,34,2,-13,-24,-34,-39,-40,-42,-50,-51,-53,-60,-67,-74,-74,-85,-93,-104,-120,-133,-145,-144,-149,-150,-143,-134,-114,-90,-73,-56,-40,-33,-24,-17,-12,-9,-3,-3,-2,-4,-7,-6,-9,-11,-8,-10,-13,-10,-6,-11,-9
2019-06-03,11:07:46.540,5,3,4,2,5,7,2,1,1,0,4,5,5,2,2,5,0,-1,0,3,2,0,1,1,3,3,3,4,2,2,2,0,0,-4,-4,-9,-12,-18,-16,-20,-25,-15,-8,0,-2,-6,-9,-8,-4,1,1,3,-18,-196,-420,-149,727,1001,782,533,348,208,87,19,-4,-14,-26,-33,-38,-42,-42,-45,-48,-53,-57,-62,-63,-68,-71,-83,-98,-106,-113,-114,-114,-116,-115,-108,-98,-80,-66,-58,-48,-40,-38,-33,-30,-28,-28,-31,-25,-26,-29,-32,-34,-33,-31,-31,-33,-30,-28,-29,-30,-27,-30,-30,-29,-25,-22,-21,-15,-14,-18,-13,-12,-11,-13,-12
2019-06-03,11:07:47.565,-8,-6,-8,-8,-11,-9,-7,-10,-5,-8,-5,-10,-10,-11,-12,-17,-23,-25,-24,-21,-11,-7,0,2,0,-8,-1,2,3,6,9,-22,-232,-450,-26,832,1037,807,537,348,196,70,14,-3,-13,-21,-29,-34,-36,-40,-41,-44,-48,-56,-57,-65,-72,-79,-91,-103,-111,-121,-127,-127,-125,-123,-117,-105,-81,-63,-51,-38,-31,-25,-23,-17,-11,-9,-11,-15,-11,-9,-10,-12,-16,-15,-20,-19,-22,-21,-22,-20,-21,-19,-21,-16,-21,-17,-16,-14,-14,-13,-11,-13,-11,-11,-9,-10,-8,-7,-5,-8,-6,-9,-8,-6,-6,-6,-9,-6,-3,-6,-5,-6,-9,-9,-14,-13
2019-06-03,11:07:48.589,-1,-7,-7,5,8,15,18,15,10,8,11,17,14,18,-1,-195,-464,-118,807,1173,951,647,414,239,95,31,7,-8,-19,-23,-28,-30,-33,-34,-40,-42,-45,-53,-59,-64,-79,-98,-107,-119,-131,-140,-141,-140,-138,-132,-122,-103,-80,-67,-49,-37,-28,-20,-19,-19,-19,-15,-12,-11,-13,-11,-11,-15,-17,-17,-14,-17,-18,-21,-19,-13,-15,-12,-18,-19,-15,-16,-14,-17,-13,-11,-10,-9,-7,-3,-3,-3,-4,-6,-6,-6,-9,-8,-4,-4,-3,-3,-5,-5,-2,-1,-1,-2,-2,-2,-3,-7,-6,-8,-11,-16,-18,-27,-23,-14,-8,0,0,-7,-11,-10,-11,-10
2019-06-03,11:07:49.614,17,14,-18,-246,-444,67,909,1043,800,527,350,198,82,27,12,0,-8,-16,-18,-26,-33,-37,-39,-44,-46,-52,-61,-67,-75,-86,-101,-104,-110,-118,-123,-125,-116,-107,-97,-79,-64,-50,-45,-40,-32,-29,-27,-23,-24,-25,-26,-24,-23,-28,-24,-25,-28,-30,-29,-31,-27,-26,-27,-28,-24,-24,-21,-23,-23,-23,-25,-31,-33,-26,-27,-26,-24,-23,-25,-21,-22,-22,-22,-25,-23,-22,-19,-23,-23,-24,-25,-31,-34,-33,-35,-33,-24,-18,-10,-12,-15,-21,-16,-14,-11,-10,-11,-95,-347,-392,364,975,864,632,404,258,122,29,-7,-22,-30,-37,-42,-43,-45,-48,-52,-53
2019-06-03,11:07:50.639,-35,-40,-50,-56,-60,-70,-77,-84,-91,-98,-100,-99,-104,-95,-89,-73,-58,-45,-37,-34,-33,-27,-23,-21,-23,-16,-17,-17,-18,-18,-19,-24,-27,-24,-29,-29,-25,-24,-23,-21,-23,-22,-20,-16,-17,-16,-9,-12,-10,-5,-7,-3,-4,-5,-7,-6,-7,-9,-4,-4,-4,-5,-4,-3,-7,-10,-9,-4,-1,-5,-6,0,-1,-7,-12,-18,-18,-19,-20,-9,-6,2,6,1,-1,0,0,1,3,5,-43,-301,-482,182,1013,1128,851,553,353,185,63,9,-13,-23,-31,-38,-39,-47,-48,-50,-52,-58,-66,-70,-78,-87,-89,-103,-118,-132,-141,-148,-151,-152,-151,-143,-127,-103
2019-06-03,11:07:51.663,-66,-52,-38,-32,-21,-16,-11,-13,-10,-5,-3,-2,-4,-5,-11,-9,-10,-12,-13,-14,-20,-20,-23,-22,-18,-19,-23,-18,-14,-11,-9,-6,-5,-5,-6,-6,-6,-8,-5,-5,-5,-7,-8,-7,-10,-5,-2,-3,-8,-9,-9,-11,-13,-10,-11,-10,-13,-8,-11,-12,-12,-13,-17,-22,-22,-23,-27,-12,-4,5,1,-1,-3,0,1,1,2,3,-17,-225,-482,-69,855,1179,939,626,401,223,83,21,3,-9,-16,-23,-32,-35,-40,-43,-44,-49,-53,-62,-70,-80,-93,-105,-116,-128,-136,-143,-148,-154,-154,-149,-138,-115,-91,-66,-53,-42,-36,-27,-20,-19,-20,-22,-21,-17
2019-06-03,11:07:52.688,-10,-10,-11,-12,-10,-10,-9,-10,-15,-13,-10,-13,-13,-8,-7,-5,-4,-7,-7,-7,-6,-3,-4,-4,-6,-5,-2,-4,-4,-6,-1,-2,-2,-5,-7,-8,-11,-6,-9,-9,-7,-8,-5,-7,-9,-10,-11,-19,-24,-18,-24,-25,-14,-12,-2,0,-4,-10,-6,-4,-2,0,-1,-24,-220,-433,-75,796,1007,776,518,341,189,71,10,-5,-20,-21,-30,-41,-42,-43,-45,-47,-52,-55,-68,-70,-76,-85,-94,-101,-106,-114,-120,-120,-125,-119,-107,-92,-79,-66,-59,-53,-43,-40,-37,-32,-29,-26,-26,-25,-24,-27,-28,-25,-26,-31,-31,-28,-28,-26,-29,-26,-25,-19,-18,-15
2019-06-03,11:07:53.713,-20,-20,-21,-21,-21,-18,-21,-17,-18,-19,-20,-21,-14,-15,-17,-13,-9,-8,-11,-12,-16,-10,-10,-13,-12,-15,-16,-21,-23,-31,-38,-28,-17,-12,-10,-9,-14,-8,-9,-8,-8,-2,-4,-112,-370,-347,492,1044,887,638,407,259,122,34,8,-6,-18,-25,-29,-28,-34,-36,-40,-43,-50,-56,-65,-69,-75,-86,-98,-109,-118,-129,-134,-133,-133,-128,-117,-99,-80,-67,-56,-42,-32,-27,-23,-19,-14,-15,-14,-18,-21,-19,-19,-18,-20,-22,-23,-22,-20,-21,-22,-19,-23,-22,-21,-14,-12,-13,-12,-16,-15,-15,-14,-16,-14,-13,-12,-11,-8,-9,-10,-11,-10,-5,-6,-8
2019-06-03,11:07:54.737,-13,-8,-7,-6,-8,-8,-12,-12,-6,-6,-9,-8,-12,-16,-24,-21,-23,-28,-18,-11,-4,2,1,-9,-10,-8,-6,0,1,-6,-142,-430,-304,618,1174,1002,708,452,270,114,27,0,-18,-26,-34,-40,-45,-47,-50,-54,-58,-64,-71,-78,-90,-98,-106,-116,-130,-146,-159,-159,-162,-161,-155,-142,-125,-101,-76,-60,-44,-33,-28,-26,-27,-20,-18,-19,-16,-16,-19,-19,-17,-20,-22,-21,-20,-23,-24,-23,-17,-13,-13,-11,-11,-6,-5,-7,-7,-4,-3,-6,-5,0,0,0,2,0,-4,-2,-2,-2,-4,0,-2,-9,-6,-4,-4,0,-7,-6,-5,-5,0,1,1,0
2019-06-03,11:07:55.762,0,-6,-10,-14,-18,-2,4,12,12,8,4,4,7,13,13,13,-6,-212,-467,-123,812,1136,922,618,392,226,94,26,1,-14,-29,-34,-44,-47,-48,-54,-49,-55,-60,-67,-77,-84,-92,-97,-104,-114,-119,-123,-124,-125,-119,-111,-95,-77,-62,-53,-43,-33,-27,-28,-26,-23,-26,-24,-28,-28,-32,-35,-39,-41,-43,-42,-43,-40,-42,-44,-39,-38,-38,-38,-32,-29,-26,-24,-27,-26,-23,-26,-25,-23,-17,-22,-23,-21,-21,-20,-21,-20,-22,-23,-33,-35,-35,-37,-28,-18,-14,-5,0,-9,-18,-18,-15,-13,-15,-13,-66,-295,-396,161,785,702,560,362,243,130,40,-2
2019-06-03,11:07:56.787,-9,-22,-22,-28,-28,-29,-30,-32,-33,-35,-37,-43,-49,-49,-57,-59,-63,-69,-72,-74,-70,-67,-59,-49,-42,-33,-31,-31,-27,-27,-26,-26,-25,-23,-26,-25,-23,-26,-26,-25,-29,-28,-25,-23,-24,-22,-22,-26,-27,-20,-15,-21,-19,-22,-23,-20,-18,-15,-18,-15,-13,-13,-11,-14,-13,-11,-9,-7,-5,-5,-11,-16,-15,-23,-21,-3,-2,-1,5,0,-9,-6,-4,-4,-7,-7,-45,-266,-483,-4,866,1037,809,537,344,186,62,6,-11,-26,-32,-37,-41,-46,-48,-51,-55,-57,-61,-70,-79,-84,-93,-101,-111,-121,-129,-131,-133,-130,-133,-125,-113,-95,-75,-63,-55,-45
2019-06-03,11:07:57.811,-26,-22,-21,-20,-20,-21,-22,-19,-20,-21,-26,-27,-28,-30,-28,-24,-24,-22,-22,-20,-20,-20,-19,-15,-15,-15,-12,-7,-7,-7,-4,0,0,-1,2,0,0,1,2,5,6,5,3,2,-3,-2,-12,-16,-14,-17,-7,0,10,9,10,4,5,4,2,5,5,-6,-174,-448,-217,738,1166,949,666,424,248,104,28,3,-12,-26,-36,-39,-41,-41,-41,-47,-55,-62,-66,-69,-79,-89,-99,-104,-118,-125,-128,-129,-127,-123,-119,-105,-91,-72,-59,-52,-46,-38,-33,-28,-22,-21,-19,-20,-17,-19,-20,-21,-24,-23,-26,-32,-33,-33,-32,-34,-29,-29,-28,-28,-30,-25
2019-06-03,11:07:58.836,-27,-28,-27,-24,-21,-22,-27,-27,-22,-22,-21,-18,-21,-19,-19,-20,-22,-28,-23,-27,-33,-24,-18,-7,0,-2,-15,-16,-7,-7,-3,0,-1,-78,-326,-418,282,949,849,650,422,279,154,54,14,-2,-10,-16,-19,-25,-32,-32,-30,-32,-34,-41,-44,-49,-54,-63,-71,-77,-83,-90,-91,-90,-85,-80,-68,-51,-39,-27,-23,-20,-14,-9,-2,0,2,5,3,3,8,6,2,5,3,-1,-1,0,-2,-2,-3,0,1,5,3,9,11,13,11,16,14,16,20,19,21,18,19,21,20,19,19,21,18,20,25,25,22,21,22,20,16,12,11,9,22,32
2019-06-03,11:07:59.861,-25,-18,-17,-26,-29,-31,-28,-25,-21,-16,-105,-401,-465,388,1128,1072,788,502,303,136,32,1,-18,-30,-37,-47,-45,-47,-50,-58,-67,-70,-72,-75,-86,-99,-111,-127,-144,-152,-159,-164,-170,-167,-166,-148,-131,-104,-83,-64,-54,-46,-43,-40,-36,-34,-27,-22,-22,-19,-18,-18,-21,-24,-23,-24,-27,-28,-29,-31,-30,-31,-32,-32,-29,-33,-33,-31,-31,-30,-29,-26,-24,-22,-19,-23,-22,-20,-19,-24,-21,-20,-19,-21,-20,-20,-14,-15,-13,-18,-18,-15,-17,-15,-22,-23,-27,-33,-23,-12,-9,-5,-4,-9,-9,-6,-7,-4,-1,-7,-115,-433,-400,582,1374,1215,816,519
2019-06-03,11:08:00.886,335,160,54,13,-4,-21,-31,-37,-43,-44,-47,-53,-54,-57,-62,-70,-81,-96,-110,-123,-138,-148,-161,-167,-169,-171,-170,-165,-148,-125,-99,-80,-60,-45,-38,-33,-30,-25,-19,-19,-14,-15,-13,-13,-18,-18,-20,-19,-21,-23,-31,-32,-30,-30,-26,-27,-30,-30,-28,-26,-22,-20,-17,-14,-12,-14,-16,-17,-18,-16,-14,-16,-12,-10,-13,-10,-10,-14,-15,-15,-12,-10,-9,-16,-19,-20,-27,-17,-10,-4,-1,-3,-10,-9,-9,-9,-11,-10,-9,-84,-346,-432,322,1003,900,673,423,276,141,39,5,-10,-24,-31,-35,-35,-37,-38,-39,-44,-52,-56,-59,-67,-70,-76,-85,-99
2019-06-03,11:08:01.910,-79,-85,-88,-86,-84,-81,-72,-57,-41,-27,-17,-9,-4,1,2,1,2,4,5,2,0,1,-3,-6,-1,-4,-6,-7,-6,-2,0,2,-1,-1,0,-3,-2,0,-5,-4,-5,-1,-3,-5,-5,-4,-6,-5,-2,-2,-4,-3,-1,-2,1,5,4,1,4,9,9,8,11,8,5,5,4,-5,-8,-10,-17,-10,0,4,8,11,7,4,5,7,6,7,4,-75,-360,-447,389,1145,1102,804,513,323,156,49,14,-3,-22,-28,-32,-37,-42,-47,-51,-55,-62,-64,-71,-80,-89,-100,-113,-126,-141,-149,-161,-169,-174,-171,-161,-137,-114,-87,-65,-53,-40,-31,-28,-23
2019-06-03,11:08:02.935,-22,-19,-16,-21,-22,-21,-21,-19,-19,-20,-24,-25,-24,-20,-18,-21,-19,-21,-23,-17,-12,-10,-9,-8,-13,-12,-11,-13,-11,-11,-11,-10,-11,-5,-8,-6,-9,-11,-11,-8,-8,-6,-10,-13,-11,-13,-9,-5,-5,-4,-6,-6,-8,-10,-10,-14,-17,-21,-27,-29,-33,-29,-17,-11,-4,-1,-2,-8,-6,-4,-2,2,1,-17,-213,-497,-142,825,1228,986,670,422,238,96,28,0,-17,-24,-34,-38,-41,-50,-53,-55,-62,-69,-75,-80,-91,-103,-112,-128,-142,-158,-166,-174,-175,-178,-175,-155,-132,-108,-79,-56,-37,-27,-22,-21,-16,-15,-15,-10,-11,-12,-14,-15,-15,-19
2019-06-03,11:08:03.960,-7,-12,-9,-9,-11,-9,-9,-10,-10,-16,-20,-21,-15,-14,-13,-10,-8,-10,-10,-9,-11,-13,-10,-11,-10,-8,-9,-8,-6,-6,-6,-11,-8,-9,-6,-8,-5,-9,-9,-8,-9,-6,-2,-2,-3,-16,-17,-19,-23,-18,-10,-5,0,1,-6,-5,-5,0,5,1,-4,-126,-399,-353,534,1067,898,656,420,258,118,31,1,-17,-25,-31,-34,-42,-42,-40,-51,-51,-54,-57,-59,-62,-70,-77,-90,-102,-111,-115,-124,-126,-131,-121,-114,-100,-74,-58,-48,-43,-37,-29,-32,-29,-29,-33,-32,-32,-36,-39,-39,-40,-37,-34,-30,-33,-32,-33,-36,-36,-35,-32,-33,-30,-27,-25
2019-06-03,11:08:04.984,-20,-17,-16,-14,-13,-8,-9,-9,-11,-16,-11,-13,-11,-9,-8,-10,-11,-9,-9,-10,-14,-21,-26,-30,-29,-16,-9,1,6,7,-1,2,2,3,7,9,-3,-167,-411,-206,693,1027,813,571,371,225,93,27,6,-6,-16,-22,-29,-35,-43,-48,-45,-53,-63,-64,-72,-78,-87,-100,-110,-120,-129,-136,-143,-146,-144,-142,-126,-106,-82,-61,-45,-41,-32,-30,-23,-20,-20,-19,-21,-16,-17,-24,-25,-31,-28,-31,-33,-35,-32,-36,-35,-32,-31,-33,-32,-27,-22,-21,-21,-21,-21,-19,-17,-14,-15,-12,-11,-10,-9,-6,-6,-6,-10,-10,-9,-12,-14,-20,-27,-29,-28,-24
2019-06-03,11:08:06.009,-6,-3,7,6,3,-3,-5,-3,0,0,2,-51,-319,-489,209,1030,1125,876,570,356,183,64,20,0,-14,-23,-30,-30,-37,-42,-40,-46,-50,-52,-58,-65,-76,-90,-100,-112,-126,-133,-139,-146,-144,-142,-133,-116,-94,-74,-60,-45,-33,-28,-24,-24,-29,-31,-25,-22,-17,-18,-23,-30,-32,-31,-32,-30,-32,-30,-32,-29,-27,-29,-32,-29,-32,-30,-28,-23,-22,-21,-18,-21,-19,-17,-17,-17,-20,-14,-12,-16,-19,-24,-25,-26,-31,-21,-12,-6,-2,-4,-13,-10,-11,-13,-6,-5,-8,-100,-358,-398,395,997,879,653,415,263,123,28,-3,-20,-32,-35,-35,-38,-42,-44
2019-06-03,11:08:07.034,-44,-51,-52,-57,-63,-68,-69,-80,-91,-97,-107,-110,-110,-112,-109,-104,-92,-82,-68,-54,-53,-42,-35,-33,-29,-30,-28,-24,-26,-25,-29,-28,-29,-32,-33,-27,-26,-27,-27,-27,-27,-26,-23,-26,-27,-28,-26,-27,-24,-26,-20,-21,-22,-22,-23,-23,-19,-18,-17,-18,-20,-18,-26,-30,-30,-32,-21,-17,-13,-7,-6,-8,-7,-6,-8,-6,-7,-18,-171,-420,-236,672,1037,815,570,370,218,86,19,1,-10,-18,-23,-30,-33,-33,-40,-44,-43,-49,-55,-65,-65,-71,-81,-89,-101,-109,-116,-120,-126,-127,-120,-108,-89,-73,-59,-48,-40,-31,-25,-28,-26,-23,-25,-30,-29,-27
2019-06-03,11:08:08.058,-26,-23,-22,-23,-23,-24,-23,-30,-25,-26,-23,-24,-23,-26,-23,-17,-18,-19,-18,-20,-19,-17,-16,-14,-14,-8,-7,-13,-11,-5,-4,-5,-8,-2,-5,-11,-10,-15,-16,-3,0,12,16,17,11,13,17,19,17,13,0,-166,-446,-197,748,1178,996,692,449,265,116,47,27,11,0,-6,-9,-12,-12,-14,-18,-24,-33,-41,-46,-60,-69,-76,-91,-105,-113,-115,-121,-121,-117,-116,-105,-80,-62,-46,-30,-15,-4,3,7,11,11,19,20,16,18,19,15,14,17,15,12,7,8,12,11,13,15,16,12,17,22,19,21,22,26,30,31,28,29,27,25,29
2019-06-03,11:08:09.083,-18,-18,-14,-15,-17,-19,-17,-15,-17,-24,-28,-27,-33,-32,-22,-16,-4,-5,-4,-15,-11,-10,-5,-7,-7,-54,-306,-493,133,983,1102,851,548,351,178,54,9,-15,-26,-35,-41,-46,-46,-52,-52,-53,-57,-68,-74,-82,-93,-99,-104,-114,-122,-130,-131,-138,-136,-131,-124,-110,-91,-77,-67,-55,-43,-38,-40,-39,-37,-36,-37,-37,-36,-35,-36,-37,-38,-40,-38,-38,-39,-35,-36,-33,-32,-29,-30,-36,-33,-35,-33,-30,-27,-25,-28,-30,-24,-21,-22,-26,-27,-29,-28,-27,-26,-28,-34,-37,-41,-44,-34,-24,-13,-8,-11,-19,-18,-17,-15,-13,-10,-17,-159,-402,-285,592
2019-06-03,11:08:10.108,996,805,571,376,230,100,24,1,-10,-18,-25,-28,-32,-40,-42,-44,-47,-47,-54,-59,-61,-67,-73,-83,-94,-98,-100,-102,-105,-102,-90,-79,-68,-57,-53,-51,-45,-35,-32,-32,-31,-26,-26,-32,-25,-27,-29,-30,-30,-30,-29,-28,-26,-24,-21,-21,-23,-22,-20,-21,-21,-20,-17,-14,-13,-12,-14,-15,-14,-16,-15,-14,-9,-8,-11,-14,-18,-25,-24,-29,-25,-12,-4,-1,-2,-4,-9,-3,-4,-3,-6,-3,-46,-296,-482,135,967,1089,840,547,351,179,51,14,-2,-16,-24,-26,-25,-28,-31,-40,-48,-51,-57,-62,-70,-77,-89,-102,-108,-118,-125,-129,-131,-131,-128,-116
2019-06-03,11:08:11.132,-35,-16,-2,4,11,22,30,38,40,43,40,43,48,49,44,39,40,38,33,31,29,27,31,37,39,35,40,44,41,42,42,46,44,46,48,47,49,51,49,49,50,47,43,39,34,30,26,23,34,38,45,52,49,42,35,36,35,39,40,34,-80,-359,-341,540,1120,1001,734,482,307,155,65,37,23,8,5,1,-5,-9,-10,-15,-21,-22,-30,-39,-45,-54,-62,-69,-78,-88,-94,-93,-93,-96,-94,-82,-66,-54,-47,-40,-31,-25,-20,-19,-14,-12,-10,-10,-14,-9,-9,-12,-15,-13,-13,-18,-19,-18,-18,-20,-19,-17,-16,-12,-15,-12,-14,-10
2019-06-03,11:08:12.157,-31,-26,-30,-28,-31,-29,-29,-35,-38,-40,-43,-50,-43,-32,-26,-17,-16,-16,-14,-13,-15,-16,-11,-9,-44,-280,-492,12,893,1097,885,576,368,188,62,10,-7,-24,-32,-38,-41,-44,-46,-51,-54,-61,-63,-73,-80,-88,-94,-106,-117,-124,-129,-133,-130,-129,-126,-119,-105,-91,-80,-69,-62,-55,-51,-45,-42,-43,-38,-28,-29,-28,-29,-28,-32,-32,-32,-33,-31,-33,-34,-31,-30,-28,-25,-25,-23,-24,-23,-21,-20,-21,-21,-18,-21,-22,-19,-17,-18,-18,-16,-17,-18,-21,-17,-23,-32,-35,-33,-37,-29,-17,-14,-6,-6,-5,-6,-7,-7,-7,-8,-6,-56,-312,-498,134
2019-06-03,11:08:13.182,996,1124,887,579,366,184,62,23,2,-12,-17,-24,-26,-33,-33,-41,-39,-43,-47,-51,-56,-63,-73,-85,-96,-105,-113,-116,-119,-118,-115,-107,-93,-80,-70,-65,-57,-46,-35,-32,-32,-31,-27,-30,-29,-27,-27,-29,-29,-32,-33,-39,-36,-36,-39,-37,-33,-34,-35,-34,-32,-28,-25,-26,-24,-27,-24,-22,-23,-25,-23,-25,-25,-24,-23,-21,-21,-26,-29,-28,-21,-34,-31,-24,-13,-8,-10,-15,-12,-13,-11,-9,-9,-18,-163,-404,-280,613,1005,818,574,373,223,91,19,-4,-18,-26,-28,-33,-34,-38,-37,-44,-49,-54,-57,-61,-64,-72,-81,-93,-103,-106,-108,-103,-101,-100
2019-06-03,11:08:14.206,-30,-19,-6,0,6,9,20,26,26,29,34,35,33,35,35,33,29,28,20,22,24,23,26,32,30,31,31,34,32,35,37,39,37,34,35,35,36,39,36,38,38,36,36,38,38,34,35,37,35,32,33,26,20,19,15,17,22,32,39,35,28,27,28,32,31,32,30,-50,-324,-389,427,1103,1033,764,499,325,161,66,34,16,2,-4,-7,-18,-20,-26,-28,-30,-34,-38,-47,-57,-68,-80,-91,-109,-117,-122,-125,-125,-131,-127,-115,-96,-80,-68,-59,-47,-36,-30,-28,-26,-20,-14,-15,-19,-22,-19,-23,-29,-27,-32,-30,-30,-29,-25,-20,-22
2019-06-03,11:08:15.231,-41,-43,-42,-41,-39,-38,-36,-36,-38,-39,-32,-30,-26,-23,-20,-19,-17,-19,-17,-16,-18,-20,-18,-17,-15,-18,-16,-18,-18,-21,-21,-32,-31,-33,-35,-29,-21,-9,-6,-10,-17,-11,-9,-6,-4,0,-42,-301,-497,157,1013,1149,893,575,363,181,62,22,-3,-19,-29,-38,-43,-47,-50,-53,-54,-59,-62,-70,-77,-82,-90,-102,-118,-132,-141,-143,-148,-148,-144,-131,-115,-96,-77,-64,-46,-37,-30,-23,-20,-16,-13,-8,-8,-6,-8,-8,-10,-9,-15,-18,-20,-23,-22,-20,-21,-22,-24,-22,-23,-18,-10,-13,-12,-11,-9,-10,-11,-5,-9,-9,-7,-10,-15,-12,-13,-13
2019-06-03,11:08:16.256,-14,-13,-18,-12,-16,-17,-16,-12,-11,-14,-20,-26,-27,-26,-36,-36,-31,-19,-16,-13,-19,-16,-10,-4,1,-2,-6,-126,-396,-348,532,1061,903,648,413,254,114,29,0,-15,-24,-29,-36,-35,-39,-44,-47,-54,-57,-61,-66,-74,-85,-90,-96,-109,-114,-119,-120,-121,-119,-115,-109,-92,-78,-70,-60,-53,-45,-38,-32,-28,-29,-28,-26,-28,-26,-24,-30,-34,-31,-30,-29,-28,-25,-27,-28,-26,-25,-25,-24,-23,-18,-17,-16,-19,-18,-17,-18,-21,-21,-13,-12,-12,-11,-11,-13,-11,-12,-11,-14,-9,-14,-17,-22,-24,-24,-28,-23,-17,-3,-2,-4,-9,-9,-7,0,-1
2019-06-03,11:08:17.280,-13,-25,-190,-437,-204,701,1048,826,564,363,208,80,10,-9,-20,-26,-34,-38,-43,-47,-49,-53,-61,-64,-68,-74,-80,-86,-94,-109,-118,-125,-135,-135,-136,-130,-123,-110,-90,-70,-60,-51,-46,-41,-34,-30,-23,-23,-25,-24,-26,-26,-27,-28,-30,-31,-28,-28,-29,-30,-29,-29,-27,-26,-21,-18,-20,-18,-20,-23,-17,-12,-11,-10,-11,-10,-10,-13,-11,-10,-12,-11,-10,-7,-10,-12,-14,-15,-18,-22,-19,-16,-13,-13,-16,-20,-21,-14,-11,-14,-21,-29,-26,-31,-28,-23,-14,-6,-1,-10,-11,-9,-7,-4,-2,-16,-183,-471,-222,738,1211,999,687,433,249,94,25,2
2019-06-03,11:08:18.305,-11,-25,-35,-40,-44,-45,-52,-57,-62,-70,-72,-79,-89,-99,-106,-119,-134,-144,-160,-169,-170,-169,-157,-144,-122,-98,-78,-63,-48,-36,-30,-26,-24,-19,-19,-17,-18,-17,-20,-19,-23,-27,-28,-27,-23,-23,-24,-27,-25,-25,-25,-24,-24,-22,-23,-16,-16,-15,-11,-11,-7,-8,-11,-12,-14,-11,-12,-14,-13,-17,-17,-20,-12,-15,-16,-13,-16,-15,-11,-10,-5,-6,-6,-6,-6,-7,-7,-11,-12,-12,-11,-11,-15,-20,-21,-26,-25,-17,-6,3,2,-2,-7,-6,-4,-5,-2,0,-125,-423,-347,574,1176,1044,747,472,283,122,34,4,-12,-21,-28,-33,-41,-40,-46,-49
2019-06-03,11:08:19.330,-51,-56,-64,-73,-79,-87,-98,-113,-128,-137,-146,-150,-148,-145,-143,-135,-113,-89,-73,-55,-43,-33,-27,-24,-24,-19,-14,-14,-16,-16,-17,-22,-22,-21,-24,-29,-28,-29,-30,-27,-28,-29,-23,-18,-15,-15,-17,-15,-14,-14,-14,-11,-6,-9,-11,-12,-12,-9,-12,-10,-11,-14,-17,-19,-13,-16,-16,-17,-19,-19,-16,-15,-15,-17,-16,-28,-26,-27,-32,-31,-23,-7,-1,-4,-9,-8,-9,-11,-7,-4,-68,-314,-423,269,970,913,687,443,287,141,39,3,-14,-23,-33,-36,-41,-43,-47,-47,-52,-54,-55,-62,-69,-76,-83,-87,-96,-100,-110,-116,-112,-111,-106,-100,-85,-68
2019-06-03,11:08:20.354,-72,-69,-64,-56,-50,-48,-41,-46,-47,-44,-45,-44,-49,-48,-49,-46,-47,-49,-50,-45,-49,-46,-42,-41,-39,-37,-34,-36,-40,-43,-40,-35,-33,-37,-36,-37,-33,-36,-34,-31,-32,-30,-31,-29,-29,-27,-32,-35,-31,-36,-32,-26,-14,-7,-3,-13,-8,-7,-4,-4,-3,-10,-146,-393,-283,593,1041,846,595,380,227,97,22,0,-13,-22,-24,-25,-31,-36,-39,-46,-53,-57,-62,-67,-74,-79,-84,-90,-101,-110,-115,-118,-118,-118,-114,-97,-80,-63,-56,-49,-45,-38,-27,-25,-22,-22,-18,-22,-26,-18,-21,-19,-24,-25,-25,-25,-26,-23,-26,-26,-26,-20,-23,-22,-20,-26
2019-06-03,11:08:21.379,-35,-33,-33,-37,-36,-31,-29,-25,-21,-25,-25,-25,-25,-27,-27,-30,-30,-29,-26,-20,-20,-16,-16,-15,-15,-22,-29,-34,-37,-31,-21,-17,-8,-3,-10,-16,-15,-12,-6,-5,-5,-45,-289,-515,74,971,1177,914,596,375,191,58,8,-14,-27,-35,-39,-43,-45,-48,-55,-62,-62,-70,-76,-80,-90,-97,-113,-123,-132,-142,-150,-149,-142,-140,-131,-111,-94,-79,-68,-53,-39,-33,-29,-27,-23,-23,-18,-23,-23,-24,-24,-30,-29,-30,-35,-27,-25,-32,-26,-28,-26,-25,-23,-20,-21,-21,-18,-16,-14,-18,-17,-14,-14,-13,-10,-11,-14,-16,-13,-13,-17,-11,-8,-4,-10,-11
2019-06-03,11:08:22.404,-3,-2,0,0,0,1,0,-1,1,0,-3,-2,-1,-5,-9,-5,-8,-3,6,15,21,22,18,9,15,18,17,18,20,-28,-286,-477,180,1041,1164,907,597,384,210,85,38,19,3,-1,-9,-14,-16,-15,-17,-24,-28,-32,-36,-42,-51,-58,-67,-79,-88,-95,-93,-91,-91,-90,-81,-67,-51,-34,-25,-19,-11,-2,5,7,9,12,13,18,23,19,20,19,21,21,15,23,20,19,20,19,17,21,27,27,26,23,27,32,35,36,37,40,44,46,45,46,47,50,50,45,49,50,47,50,46,46,49,46,50,50,52,53,54,54,51,44,43,40
2019-06-03,11:08:23.428,-56,-47,-38,-28,-27,-29,-32,-33,-38,-37,-37,-35,-44,-202,-441,-259,636,979,772,531,337,190,67,-1,-21,-35,-45,-52,-56,-59,-61,-61,-62,-63,-67,-75,-82,-86,-93,-101,-107,-114,-120,-118,-121,-119,-112,-101,-86,-71,-63,-61,-56,-55,-50,-50,-48,-45,-47,-47,-45,-46,-51,-51,-47,-50,-52,-54,-51,-49,-48,-46,-45,-51,-50,-47,-48,-52,-50,-47,-46,-45,-48,-50,-45,-43,-45,-46,-41,-44,-43,-40,-42,-44,-43,-40,-44,-39,-37,-37,-39,-42,-38,-37,-37,-37,-47,-46,-49,-55,-54,-45,-37,-32,-31,-36,-40,-37,-32,-30,-30,-29,-118,-401,-447,398,1065,964
2019-06-03,11:08:24.453,722,467,300,149,51,21,2,-10,-18,-22,-27,-28,-31,-38,-39,-44,-51,-56,-62,-69,-78,-95,-109,-118,-127,-127,-126,-125,-118,-101,-84,-65,-46,-39,-33,-23,-20,-14,-14,-6,-5,-6,-8,-8,-11,-13,-16,-17,-19,-18,-20,-24,-22,-21,-18,-19,-17,-18,-17,-12,-12,-14,-11,-11,-10,-10,-11,-10,-12,-7,-8,-6,-7,-3,0,1,0,0,0,0,0,-2,-4,-2,0,-4,-2,0,-1,-3,-4,-4,-5,-4,-2,-5,-8,-6,-10,-9,-11,-16,-18,-18,-11,-12,-11,-10,-12,-19,-22,-28,-31,-26,-18,-12,-3,0,-3,-5,-4,-7,-3,1,0,-50,-312,-504
2019-06-03,11:08:25.478,254,1122,1244,951,640,421,243,121,73,47,32,22,16,14,11,9,4,3,-4,-20,-25,-30,-38,-51,-61,-73,-93,-102,-109,-114,-113,-115,-106,-85,-61,-36,-18,-8,4,12,17,18,21,26,28,31,29,26,26,31,28,27,23,21,16,16,16,16,11,13,10,8,10,15,14,13,14,17,15,17,17,15,13,17,16,17,16,13,19,20,17,16,13,14,14,13,15,14,11,9,12,11,8,10,10,11,12,7,11,12,9,11,12,7,5,5,11,9,7,8,5,6,4,2,4,0,-5,0,-2,-3,-2,-4,-2,-4,-1,-5,-2,-7
2019-06-03,11:08:26.502,13,12,10,5,1,0,-1,0,10,15,23,27,22,16,17,17,18,21,23,-29,-293,-469,208,1055,1119,844,553,359,202,79,34,11,-2,-12,-21,-26,-32,-35,-41,-46,-47,-49,-53,-64,-77,-87,-95,-110,-122,-133,-138,-142,-144,-143,-135,-125,-103,-77,-56,-44,-31,-21,-16,-16,-17,-11,-7,-9,-7,-9,-7,-9,-8,-11,-9,-6,-11,-11,-13,-10,-10,-12,-14,-15,-15,-13,-12,-10,-14,-14,-12,-11,-12,-4,-6,-5,-5,-7,-4,-3,-2,-3,-2,2,0,0,-1,0,0,0,0,-2,0,-1,-6,-12,-11,-12,-9,-7,-9,-10,-9,-3,-4,0,-6,-4
2019-06-03,11:08:27.527,0,0,-3,-4,-2,-3,-4,0,-3,-6,-11,-16,-16,-17,-10,-6,1,0,-3,-3,-1,0,2,3,3,-20,-218,-450,-106,786,1019,774,526,343,202,82,19,-1,-20,-29,-30,-35,-35,-38,-41,-46,-51,-52,-57,-61,-66,-75,-88,-102,-116,-130,-138,-142,-143,-136,-131,-116,-93,-67,-43,-33,-30,-20,-18,-18,-15,-9,-8,-8,-4,-6,-6,-7,-8,-14,-17,-13,-11,-14,-13,-13,-14,-15,-14,-12,-13,-15,-16,-12,-12,-11,-11,-10,-10,-8,-9,-11,-11,-12,-13,-13,-12,-11,-10,-13,-12,-16,-9,-10,-9,-7,-8,-8,-9,-8,-6,-8,-7,-8,-9,-10,-7,-11
2019-06-03,11:08:28.552,10,7,8,8,8,9,5,6,11,8,3,4,6,6,7,6,4,3,1,-1,1,0,-3,-9,-12,-18,-11,-1,5,10,13,1,2,4,7,6,6,-5,-176,-488,-216,848,1441,1116,717,465,283,121,34,6,-15,-31,-41,-45,-51,-54,-58,-62,-69,-71,-76,-83,-94,-107,-122,-140,-157,-174,-189,-199,-202,-207,-209,-199,-181,-150,-116,-87,-66,-54,-38,-27,-23,-25,-18,-13,-7,-5,-4,-1,-1,0,-5,-13,-13,-13,-15,-14,-16,-15,-20,-22,-24,-20,-22,-22,-20,-16,-16,-13,-15,-16,-12,-11,-10,-6,-4,-4,-4,-7,-4,-4,-5,-8,-8,-6,-7,-11
2019-06-03,11:08:29.576,9,11,6,0,6,6,1,3,4,5,4,5,4,5,5,5,5,2,4,8,4,3,2,3,2,0,-6,-4,-11,-13,1,8,15,19,15,5,2,3,2,5,11,-14,-239,-488,-20,920,1182,916,616,394,226,91,25,0,-21,-26,-33,-41,-46,-48,-49,-56,-56,-61,-68,-76,-83,-92,-101,-115,-131,-143,-154,-158,-159,-155,-146,-137,-116,-87,-67,-55,-46,-35,-33,-32,-29,-24,-19,-22,-24,-24,-22,-22,-20,-24,-23,-23,-26,-28,-27,-28,-29,-29,-28,-27,-25,-22,-25,-24,-21,-22,-20,-18,-17,-14,-17,-16,-15,-16,-12,-8,-11,-13,-11,-10,-10,-13
2019-06-03,11:08:30.601,0,-2,-3,1,2,1,2,0,-2,-3,-3,-10,-15,-19,-22,-12,-7,5,6,0,-6,-1,0,-2,-2,0,-23,-215,-432,-119,762,989,757,519,341,203,81,16,-2,-13,-25,-27,-28,-34,-34,-36,-39,-43,-47,-53,-57,-65,-71,-77,-89,-96,-104,-110,-111,-112,-108,-102,-89,-69,-49,-34,-27,-25,-25,-27,-27,-21,-19,-13,-13,-14,-15,-19,-19,-20,-25,-29,-26,-27,-23,-22,-23,-21,-22,-17,-17,-20,-19,-19,-13,-12,-9,-12,-13,-14,-11,-8,-7,-5,0,-3,0,-3,-5,-5,-6,-5,-4,-3,-3,2,0,4,-2,-1,-4,-2,-5,-7,-10,-12,-12,-16
2019-06-03,11:08:31.626,-6,-10,-1,9,12,22,20,12,7,10,8,8,9,5,-112,-418,-378,544,1217,1097,791,505,312,149,50,12,-4,-18,-27,-34,-34,-37,-41,-44,-51,-59,-61,-68,-79,-90,-99,-112,-127,-141,-148,-156,-158,-153,-148,-134,-115,-87,-60,-41,-26,-23,-19,-16,-12,-9,-4,0,-1,0,0,-2,-4,-5,-7,-6,-9,-8,-8,-9,-8,-8,-6,-6,-2,0,2,4,4,3,7,6,7,2,7,8,7,12,10,12,10,14,16,19,18,16,20,20,20,21,18,19,21,24,25,24,26,21,19,22,24,23,20,21,19,21,25,18,10,5,1,3,19,28
2019-06-03,11:08:32.650,18,22,16,6,4,0,-1,2,8,-17,-236,-489,-36,919,1224,958,648,415,235,91,26,1,-14,-26,-36,-38,-39,-42,-46,-49,-56,-64,-70,-76,-85,-95,-104,-116,-129,-143,-148,-152,-150,-148,-145,-131,-115,-91,-68,-51,-41,-38,-34,-36,-31,-29,-27,-25,-24,-20,-18,-23,-26,-27,-30,-31,-32,-28,-30,-35,-29,-32,-32,-29,-21,-20,-23,-22,-25,-23,-20,-19,-17,-20,-18,-19,-24,-19,-19,-22,-21,-22,-23,-25,-21,-16,-17,-11,-18,-17,-19,-17,-17,-19,-24,-29,-34,-40,-28,-22,-15,-9,-11,-17,-13,-13,-12,-8,-6,-8,-135,-393,-335,537,1026,831,595,376
2019-06-03,11:08:33.675,253,125,39,14,1,-12,-17,-19,-28,-28,-28,-34,-36,-40,-46,-54,-57,-58,-62,-69,-85,-90,-93,-93,-89,-90,-86,-72,-53,-39,-29,-24,-22,-25,-22,-23,-19,-16,-14,-17,-22,-17,-14,-23,-23,-20,-21,-20,-23,-24,-24,-24,-23,-25,-24,-23,-22,-16,-13,-7,-9,-10,-10,-11,-17,-15,-17,-15,-18,-16,-15,-8,-10,-15,-13,-11,-14,-16,-13,-13,-12,-14,-9,-9,-6,-8,-12,-14,-15,-21,-22,-25,-32,-17,-11,1,3,-3,-10,-9,-3,-1,-3,-3,-25,-230,-468,-66,852,1108,835,555,356,205,76,10,-11,-22,-30,-38,-42,-49,-55,-59,-62,-68,-73,-74
