2019-06-04,11:00:46.488,141,137,134,132,128,122,119,122,107,104,95,95,99,107,112,114,112,102,94,92,94,91,89,87,55,-183,-478,-36,998,1402,1108,797,538,343,185,96,64,43,23,15,5,-1,-6,-13,-16,-20,-30,-34,-42,-50,-61,-74,-85,-98,-115,-129,-142,-147,-153,-149,-145,-139,-125,-99,-76,-59,-46,-37,-29,-20,-21,-20,-18,-14,-12,-8,-7,-4,-7,-8,-12,-15,-16,-20,-20,-20,-25,-26,-24,-21,-16,-15,-18,-17,-14,-11,-10,-12,-13,-10,-12,-10,-8,-9,-10,-7,-10,-10,-7,-9,-10,-10,-9,-8,-6,-9,-12,-9,-6,-6,-3,-1,-5,-9,-6,-6,-5,-6
2019-06-04,11:00:47.513,101,95,91,88,88,83,77,78,74,67,72,78,82,87,84,76,75,74,76,69,68,64,-2,-273,-419,224,1039,1053,827,577,407,259,135,67,45,28,14,9,5,0,-5,-11,-13,-25,-30,-33,-40,-44,-51,-62,-74,-85,-95,-107,-113,-116,-115,-113,-107,-93,-77,-61,-45,-35,-30,-25,-24,-28,-26,-22,-19,-16,-16,-12,-11,-14,-13,-14,-15,-18,-17,-18,-15,-14,-16,-12,-18,-17,-14,-14,-10,-12,-9,-8,-7,-9,-5,-7,-6,-3,0,-4,-7,-5,-6,-6,-7,-7,-10,-5,-4,-10,-9,-7,-5,-9,-8,-7,-8,-9,-7,-8,-9,-5,-10,-9,-8,-7
2019-06-04,11:00:48.538,82,80,75,72,71,67,65,65,61,57,60,70,79,78,81,71,71,67,69,67,69,66,0,-289,-485,219,1148,1284,983,682,459,279,139,72,45,24,9,1,-4,-16,-18,-23,-29,-30,-40,-45,-51,-58,-67,-86,-104,-116,-131,-143,-156,-160,-160,-152,-142,-135,-119,-95,-78,-65,-54,-44,-41,-40,-37,-32,-26,-22,-19,-18,-16,-15,-16,-23,-24,-27,-32,-29,-29,-32,-35,-34,-33,-32,-28,-26,-26,-27,-22,-19,-21,-22,-18,-18,-16,-16,-10,-11,-12,-14,-21,-10,-3,-3,0,-4,-4,-4,0,-1,-3,0,1,-4,-2,0,1,0,0,2,1,4,1,-1
2019-06-04,11:00:49.562,73,74,68,56,49,48,46,45,55,60,68,67,61,56,56,59,57,56,56,38,-144,-433,-201,756,1224,994,726,489,321,165,69,48,26,10,-5,-4,-17,-22,-13,-27,-45,-36,-41,-53,-63,-48,-71,-88,-93,-102,-114,-129,-130,-138,-146,-140,-128,-113,-97,-74,-58,-47,-39,-31,-28,-24,-3,1,6,10,12,13,13,12,8,7,5,5,3,-2,1,0,3,3,6,9,7,12,12,11,14,14,15,16,19,19,19,20,18,14,16,19,16,16,16,15,13,11,13,19,16,17,14,13,12,7,4,8,7,8,6,6,2,0,-1,-10,-16,-19
2019-06-04,11:00:50.587,29,33,38,45,52,50,42,40,35,31,33,28,25,9,-177,-441,-265,649,1102,921,676,436,276,137,43,10,-9,-23,-32,-38,-41,-41,-45,-52,-49,-52,-53,-60,-64,-67,-79,-90,-98,-105,-117,-124,-124,-121,-120,-117,-109,-97,-82,-67,-56,-49,-43,-36,-34,-32,-29,-23,-19,-13,-5,-4,-7,-6,-8,-9,-10,-9,-13,-11,-9,-11,-12,-11,-11,-6,-6,-9,-7,-8,-7,-6,-5,-8,-9,-4,-6,-7,-9,-4,-9,-11,-4,-3,-3,-9,-9,-5,-5,-3,-3,-7,-9,-10,-12,-13,-12,-15,-20,-24,-25,-28,-25,-15,-11,-8,-1,-4,-9,-9,-6,-5,-5,0
2019-06-04,11:00:51.612,35,-108,-405,-330,581,1188,1054,790,531,346,184,79,38,17,0,-9,-12,-18,-21,-21,-21,-26,-32,-37,-44,-47,-58,-66,-80,-96,-109,-121,-131,-139,-136,-131,-124,-119,-109,-90,-72,-56,-47,-38,-26,-22,-17,-14,-10,-1,1,4,9,10,9,8,6,-1,-2,-3,-5,-6,-8,-6,-4,-4,-4,-5,-4,-5,-3,2,0,0,6,7,8,9,11,11,12,15,14,14,15,16,18,15,15,18,19,14,16,15,15,14,13,14,17,20,18,16,21,20,19,18,14,16,18,17,18,14,14,13,7,5,5,4,4,1,-1,-10,-16,-19,-25,-27,-15,-9
2019-06-04,11:00:52.636,39,37,32,29,28,29,27,27,28,16,-120,-403,-354,523,1125,985,739,489,316,163,56,16,-6,-24,-31,-38,-39,-46,-47,-49,-52,-54,-57,-60,-67,-73,-79,-91,-106,-117,-132,-137,-145,-150,-149,-144,-141,-131,-120,-99,-78,-63,-49,-41,-37,-34,-31,-29,-26,-25,-25,-19,-19,-18,-14,-17,-21,-22,-26,-27,-27,-25,-28,-29,-25,-18,-20,-22,-25,-21,-15,-15,-14,-15,-14,-15,-14,-16,-13,-13,-13,-11,-6,-8,-7,-12,-8,-10,-10,-10,-9,-6,-8,-8,-6,-2,-5,-7,-9,-10,-9,-11,-13,-10,-8,-8,-12,-15,-11,-14,-24,-24,-21,-24,-15,-7,0,2
2019-06-04,11:00:53.661,22,15,18,20,22,21,24,25,-38,-307,-473,152,954,1053,827,571,385,228,100,41,18,2,-4,-15,-19,-21,-26,-28,-30,-35,-40,-43,-47,-55,-67,-73,-86,-103,-113,-124,-136,-141,-144,-142,-137,-128,-109,-88,-62,-43,-31,-20,-13,-5,0,6,9,12,15,17,22,22,25,22,23,22,20,20,15,17,14,14,12,16,17,19,18,19,22,23,23,23,25,26,29,37,34,40,42,41,44,42,44,44,48,47,49,48,49,45,44,48,50,47,49,52,52,53,54,52,54,55,53,49,48,49,50,49,43,38,35,31,32,44,48,54,53,48
2019-06-04,11:00:54.686,-9,-5,-6,0,0,-2,-7,-150,-473,-385,542,1223,1129,844,550,343,166,50,13,-8,-26,-38,-41,-45,-49,-54,-59,-57,-62,-67,-73,-79,-97,-110,-121,-136,-149,-167,-176,-182,-189,-193,-192,-188,-180,-160,-138,-121,-96,-78,-65,-54,-45,-38,-32,-24,-17,-14,-11,-13,-13,-10,-11,-16,-18,-23,-28,-28,-32,-35,-38,-39,-36,-40,-37,-35,-28,-29,-30,-27,-21,-19,-18,-17,-20,-20,-17,-16,-20,-21,-22,-25,-27,-29,-30,-31,-29,-26,-24,-22,-19,-17,-13,-18,-16,-18,-21,-29,-34,-32,-39,-34,-29,-21,-11,-14,-16,-18,-20,-17,-13,-13,-12,-40,-239,-457,-196,665
2019-06-04,11:00:55.710,908,734,533,346,204,76,-5,-36,-52,-62,-74,-77,-76,-79,-81,-79,-76,-77,-81,-81,-87,-93,-99,-100,-112,-122,-126,-127,-131,-127,-127,-121,-111,-97,-84,-73,-66,-61,-59,-62,-57,-53,-52,-51,-45,-42,-41,-40,-39,-41,-42,-38,-40,-38,-33,-35,-31,-28,-26,-27,-26,-26,-24,-24,-20,-18,-19,-17,-17,-14,-18,-15,-15,-16,-12,-11,-10,-10,-9,-13,-17,-20,-23,-23,-27,-20,-13,-6,2,3,0,-4,0,0,-4,-5,-8,-13,-163,-435,-358,525,1039,899,688,450,292,146,40,5,-13,-26,-36,-41,-38,-42,-45,-47,-52,-54,-57,-59,-68,-73,-80,-93,-103,-115
2019-06-04,11:00:56.735,-112,-122,-131,-128,-127,-119,-104,-88,-73,-59,-45,-38,-31,-23,-20,-12,-7,0,1,6,13,6,9,8,7,5,4,2,2,2,4,4,5,7,9,10,12,11,9,13,16,14,17,19,16,16,19,20,24,25,23,21,20,20,18,20,21,19,24,19,21,21,21,16,8,9,5,2,7,16,25,29,26,21,16,16,15,19,19,19,-13,-244,-492,-74,852,1191,976,696,456,276,127,43,16,-6,-16,-23,-27,-35,-38,-43,-46,-49,-48,-48,-54,-60,-67,-78,-88,-98,-106,-117,-122,-131,-135,-129,-126,-120,-106,-91,-75,-63,-52,-47,-44,-40,-37,-33
2019-06-04,11:00:57.760,-108,-106,-105,-100,-97,-98,-100,-104,-107,-107,-106,-100,-99,-97,-97,-97,-99,-98,-93,-92,-89,-82,-78,-74,-71,-64,-69,-71,-67,-64,-58,-58,-54,-54,-51,-54,-58,-56,-62,-55,-48,-38,-27,-26,-30,-27,-24,-18,-15,-8,-6,-28,-213,-428,-201,646,912,712,527,350,223,103,24,-1,-21,-30,-36,-41,-45,-44,-46,-46,-48,-49,-50,-53,-58,-64,-72,-80,-89,-99,-107,-110,-110,-110,-107,-96,-88,-77,-62,-49,-45,-38,-39,-36,-35,-27,-21,-20,-19,-17,-15,-18,-16,-16,-18,-17,-22,-21,-21,-20,-19,-18,-16,-15,-15,-13,-15,-10,-8,-7,-8,-9,-6,-3,0,0
2019-06-04,11:00:58.784,-53,-56,-53,-50,-53,-50,-46,-47,-49,-53,-49,-48,-51,-54,-57,-57,-62,-60,-60,-49,-42,-40,-39,-48,-43,-39,-35,-33,-30,-46,-228,-493,-259,639,1080,878,629,400,235,93,11,-14,-30,-38,-44,-49,-56,-61,-61,-62,-64,-65,-69,-73,-82,-92,-102,-111,-122,-134,-141,-153,-158,-158,-157,-147,-143,-126,-104,-82,-67,-55,-44,-38,-30,-23,-20,-13,-12,-8,-1,-3,-2,0,-2,-3,-6,-7,-8,-9,-10,-13,-12,-15,-15,-14,-7,-9,-11,-8,-10,-11,-9,-4,-1,-2,-3,0,1,0,-2,-1,-4,3,6,5,4,10,6,7,0,2,3,2,0,2,-1,0
2019-06-04,11:00:59.809,-37,-36,-37,-38,-40,-40,-37,-45,-42,-39,-28,-17,-13,-22,-21,-22,-17,-15,-14,-13,-82,-367,-519,211,1024,1113,845,565,362,191,56,4,-17,-32,-42,-54,-58,-64,-67,-72,-73,-76,-82,-87,-92,-100,-107,-121,-134,-146,-157,-170,-179,-184,-180,-180,-176,-163,-145,-125,-104,-93,-81,-71,-57,-55,-46,-40,-35,-30,-24,-21,-22,-20,-19,-17,-18,-18,-19,-22,-23,-25,-23,-20,-22,-18,-17,-19,-18,-14,-12,-9,-8,-2,0,3,2,2,4,5,2,5,8,6,5,6,4,3,-1,0,0,-2,0,-4,-2,-1,-4,-8,-6,-2,-8,-16,-15,-14,-20,-15,-8,8
2019-06-04,11:01:00.834,-27,-29,-33,-25,-21,-20,-19,-17,-28,-183,-482,-376,548,1143,1027,770,495,302,134,28,-7,-28,-45,-53,-62,-67,-70,-70,-71,-74,-78,-85,-87,-92,-103,-109,-118,-128,-144,-154,-162,-169,-168,-165,-162,-156,-146,-125,-105,-94,-83,-71,-61,-55,-52,-43,-39,-30,-28,-23,-19,-20,-21,-19,-22,-23,-29,-28,-32,-36,-37,-35,-34,-31,-34,-31,-29,-26,-26,-28,-23,-25,-23,-22,-20,-20,-20,-17,-18,-17,-13,-12,-18,-13,-12,-16,-19,-16,-11,-9,-14,-20,-23,-31,-35,-33,-29,-16,-12,-10,-18,-13,-11,-9,-9,-6,-10,-103,-364,-425,266,888,814,663,436,299,160,52
2019-06-04,11:01:01.858,-40,-60,-71,-77,-77,-77,-84,-84,-82,-83,-81,-82,-87,-87,-91,-96,-103,-115,-119,-126,-129,-132,-130,-126,-119,-117,-104,-90,-80,-76,-74,-75,-72,-72,-73,-68,-62,-63,-60,-57,-58,-55,-52,-56,-56,-53,-52,-53,-47,-40,-43,-41,-38,-39,-36,-32,-31,-30,-30,-32,-29,-27,-22,-22,-19,-18,-16,-18,-19,-17,-18,-20,-20,-30,-26,-27,-31,-24,-23,-9,-2,-3,-10,-8,-5,-4,-2,5,5,-73,-340,-470,225,982,1001,785,528,353,198,73,23,0,-15,-21,-27,-28,-37,-40,-41,-43,-44,-50,-52,-60,-64,-73,-84,-96,-108,-118,-124,-130,-133,-133,-128,-120,-115,-101
2019-06-04,11:01:02.883,-145,-135,-122,-117,-107,-100,-98,-94,-88,-79,-74,-73,-71,-70,-71,-71,-72,-73,-77,-78,-71,-74,-72,-71,-67,-62,-65,-59,-61,-58,-52,-45,-40,-39,-35,-39,-39,-37,-33,-30,-28,-28,-26,-22,-23,-21,-22,-22,-20,-18,-18,-18,-21,-15,-15,-18,-23,-24,-28,-30,-28,-20,-6,-4,-4,-8,-1,-4,-4,-1,-3,-14,-173,-468,-328,604,1168,1022,757,495,310,147,47,12,-5,-21,-27,-35,-45,-42,-43,-44,-49,-53,-63,-71,-75,-85,-97,-104,-115,-126,-136,-145,-152,-155,-152,-149,-143,-126,-113,-94,-77,-65,-51,-40,-32,-26,-20,-18,-12,-8,-6,-3,-4,-4,-8,-7
2019-06-04,11:01:03.908,-75,-80,-85,-85,-85,-83,-81,-79,-78,-74,-79,-77,-76,-73,-70,-69,-64,-62,-61,-55,-58,-58,-53,-53,-50,-48,-51,-48,-46,-42,-46,-40,-43,-41,-42,-36,-39,-40,-39,-41,-38,-35,-37,-34,-33,-33,-39,-41,-43,-44,-45,-38,-33,-17,-13,-10,-17,-17,-16,-11,-8,-7,-13,-156,-429,-380,497,1065,924,699,457,294,146,39,0,-18,-29,-41,-49,-56,-58,-57,-58,-60,-64,-66,-68,-74,-79,-84,-96,-103,-117,-132,-134,-139,-141,-139,-133,-127,-119,-106,-89,-76,-66,-56,-54,-52,-44,-37,-31,-27,-21,-20,-19,-25,-22,-23,-25,-22,-23,-27,-25,-26,-25,-25,-19,-20
2019-06-04,11:01:04.932,-75,-73,-74,-71,-69,-67,-70,-63,-56,-57,-57,-52,-50,-51,-48,-46,-45,-40,-41,-40,-34,-32,-32,-34,-38,-43,-44,-50,-47,-41,-26,-20,-14,-24,-21,-18,-17,-15,-17,-12,-64,-312,-478,101,894,979,766,516,340,193,72,14,-12,-25,-38,-44,-47,-47,-49,-55,-58,-60,-67,-67,-71,-78,-84,-94,-108,-120,-125,-134,-140,-142,-141,-138,-133,-125,-109,-93,-78,-67,-64,-56,-47,-40,-34,-23,-22,-17,-18,-14,-16,-19,-17,-14,-19,-19,-19,-20,-21,-22,-21,-14,-11,-6,-1,-2,-5,-9,-8,-6,-5,-4,-10,-6,-7,-5,-3,-2,-3,-4,-1,-4,-4,-2,-1,-1
2019-06-04,11:01:05.957,-47,-46,-48,-47,-41,-43,-46,-43,-45,-47,-48,-41,-41,-36,-37,-39,-37,-41,-37,-42,-46,-45,-51,-48,-45,-31,-25,-25,-27,-24,-24,-23,-22,-21,-20,-97,-390,-518,241,1042,1120,866,575,361,185,60,7,-13,-31,-42,-49,-53,-53,-59,-60,-64,-65,-70,-74,-80,-90,-102,-112,-126,-139,-148,-157,-165,-171,-172,-172,-170,-155,-141,-122,-95,-80,-69,-56,-51,-44,-32,-28,-20,-17,-14,-10,-3,-3,-9,-9,-7,-10,-13,-13,-12,-13,-17,-18,-21,-16,-13,-8,-10,-11,-14,-11,-8,-7,-10,-2,0,0,0,0,2,2,1,7,6,8,7,6,9,8,6,2,7
2019-06-04,11:01:06.982,-43,-40,-41,-42,-41,-45,-49,-49,-48,-50,-47,-46,-49,-48,-58,-58,-55,-42,-28,-27,-31,-36,-32,-33,-31,-35,-33,-58,-271,-502,-178,714,1020,832,587,376,212,82,1,-31,-49,-60,-68,-76,-76,-78,-79,-81,-82,-85,-87,-92,-95,-101,-109,-117,-129,-142,-148,-156,-158,-156,-156,-152,-147,-134,-120,-105,-94,-88,-79,-74,-67,-64,-60,-55,-54,-52,-52,-51,-50,-49,-51,-58,-59,-58,-56,-53,-53,-50,-45,-47,-46,-44,-43,-46,-43,-41,-42,-42,-37,-35,-36,-31,-32,-34,-37,-36,-33,-33,-32,-30,-28,-28,-32,-28,-26,-29,-42,-40,-45,-48,-47,-42,-27,-22,-23,-26
2019-06-04,11:01:08.006,-30,-31,-24,-23,-22,-29,-147,-412,-415,395,979,874,674,442,282,136,31,-9,-26,-38,-45,-52,-57,-58,-61,-63,-67,-68,-67,-73,-80,-88,-100,-104,-113,-120,-126,-131,-136,-137,-136,-132,-126,-112,-98,-85,-71,-63,-59,-52,-46,-44,-36,-32,-27,-25,-25,-23,-23,-21,-23,-21,-18,-23,-20,-21,-24,-22,-16,-15,-18,-15,-13,-15,-12,-14,-12,-12,-12,-7,-2,1,0,1,-1,-2,0,0,1,3,4,5,5,3,0,0,0,-3,-3,1,-3,-1,3,4,2,-2,0,0,-3,-7,-10,-14,-16,-9,-6,9,13,10,4,6,4,7,11,14,10,-91,-394,-443
2019-06-04,11:01:09.031,344,1073,1068,814,528,330,156,36,-9,-34,-46,-53,-60,-69,-71,-69,-70,-76,-80,-82,-84,-91,-106,-109,-123,-132,-143,-157,-167,-172,-178,-178,-176,-170,-161,-148,-129,-109,-97,-81,-69,-58,-54,-44,-39,-34,-26,-22,-18,-17,-15,-16,-19,-18,-22,-29,-29,-28,-24,-24,-25,-25,-27,-24,-27,-27,-23,-22,-24,-22,-19,-16,-16,-15,-15,-17,-16,-15,-12,-16,-15,-16,-17,-11,-12,-13,-11,-14,-12,-12,-13,-15,-18,-20,-13,-12,-13,-13,-12,-13,-19,-23,-25,-32,-33,-25,-22,-6,-2,-2,-9,-6,-4,-1,0,-3,-14,-172,-436,-336,544,1041,892,667,434,271,127,35
2019-06-04,11:01:10.056,-2,-21,-33,-42,-50,-57,-59,-54,-56,-62,-63,-70,-69,-73,-76,-81,-90,-102,-108,-116,-125,-132,-129,-126,-123,-116,-108,-96,-81,-66,-61,-53,-44,-37,-36,-33,-34,-25,-25,-23,-21,-24,-22,-20,-20,-22,-23,-25,-25,-25,-21,-20,-21,-22,-21,-15,-13,-9,-6,-11,-10,-14,-7,-5,-7,-5,0,-1,0,-3,-1,-3,-6,-3,-2,-4,-3,-4,-11,-15,-13,-15,-23,-15,-12,-2,0,0,-6,-3,1,8,8,9,7,-83,-355,-429,300,975,943,750,501,336,185,68,21,1,-14,-24,-27,-27,-33,-36,-35,-39,-45,-51,-53,-56,-63,-71,-83,-96,-106,-115,-127,-129
2019-06-04,11:01:11.080,-176,-172,-165,-160,-152,-141,-126,-114,-102,-96,-93,-87,-80,-73,-63,-54,-54,-55,-54,-55,-52,-53,-53,-51,-43,-50,-51,-46,-44,-44,-41,-39,-37,-35,-36,-33,-31,-30,-30,-27,-30,-28,-27,-27,-20,-19,-20,-22,-24,-22,-19,-18,-20,-20,-19,-17,-17,-16,-17,-17,-18,-15,-14,-19,-24,-24,-27,-34,-29,-17,-6,-1,-1,-6,-3,-5,-2,1,0,-6,-119,-420,-433,423,1102,1058,821,542,342,177,61,21,0,-15,-26,-33,-36,-39,-44,-43,-48,-49,-55,-58,-66,-73,-81,-92,-100,-111,-126,-130,-138,-141,-140,-137,-130,-124,-110,-90,-79,-68,-60,-51,-43,-33,-31,-26
2019-06-04,11:01:12.105,-78,-77,-73,-71,-71,-67,-65,-65,-70,-68,-70,-78,-75,-72,-68,-68,-65,-61,-63,-62,-64,-57,-54,-52,-46,-48,-46,-45,-44,-41,-40,-38,-34,-33,-33,-34,-31,-27,-28,-26,-23,-25,-28,-25,-26,-24,-30,-28,-28,-27,-28,-27,-21,-21,-19,-24,-27,-30,-32,-33,-39,-33,-32,-15,-9,-10,-12,-9,-9,-9,-5,-5,-9,-126,-411,-422,413,1055,972,745,486,315,159,51,6,-8,-24,-34,-40,-42,-48,-51,-50,-57,-59,-63,-66,-71,-74,-79,-88,-100,-110,-114,-127,-128,-132,-132,-131,-122,-111,-101,-83,-74,-63,-60,-53,-46,-39,-33,-31,-29,-25,-21,-22,-25,-24,-21
2019-06-04,11:01:13.130,-89,-86,-86,-85,-85,-84,-85,-83,-81,-77,-72,-72,-70,-69,-69,-66,-65,-60,-59,-58,-59,-56,-54,-55,-48,-50,-50,-49,-47,-43,-45,-42,-40,-39,-39,-46,-49,-47,-53,-49,-45,-29,-18,-19,-25,-22,-21,-20,-17,-16,-14,-72,-329,-479,83,853,943,759,511,337,191,63,7,-10,-21,-32,-36,-44,-47,-50,-47,-51,-54,-54,-56,-60,-69,-76,-86,-94,-102,-111,-121,-127,-125,-122,-120,-113,-101,-89,-78,-71,-62,-59,-52,-46,-39,-33,-33,-27,-26,-20,-21,-16,-14,-18,-24,-22,-20,-33,-32,-31,-23,-18,-10,-7,-15,-7,-19,-24,-13,-19,-21,-22,-25,-14,-25,22
2019-06-04,11:01:14.154,-35,-58,-60,-54,-76,-53,-58,-53,-50,-56,-52,-41,-53,-56,-51,-47,-49,-49,-77,-78,-58,-35,-32,-52,-62,-63,-63,-85,-82,-53,-37,-26,-22,-28,-22,-20,-19,-14,-15,-18,-58,-323,-595,-57,938,1274,1022,701,446,244,92,15,-12,-31,-46,-53,-57,-63,-69,-77,-77,-78,-85,-89,-91,-97,-106,-120,-133,-144,-157,-168,-178,-186,-184,-183,-177,-170,-156,-139,-119,-102,-89,-75,-65,-59,-52,-40,-35,-29,-20,-18,-18,-16,-8,-11,-17,-18,-17,-20,-20,-23,-24,-23,-23,-16,-16,-11,-13,-7,-8,-6,-4,-3,-4,-1,-2,-5,1,1,-1,2,3,6,5,5,8,5
2019-06-04,11:01:15.179,-82,-79,-75,-75,-72,-69,-68,-68,-68,-69,-66,-63,-72,-74,-74,-80,-75,-72,-59,-50,-49,-55,-55,-50,-48,-51,-50,-48,-111,-384,-547,69,905,996,782,516,328,169,42,-16,-39,-54,-64,-73,-75,-77,-79,-80,-81,-85,-91,-85,-88,-95,-100,-107,-119,-124,-133,-143,-145,-142,-139,-133,-124,-114,-106,-93,-80,-71,-66,-66,-58,-52,-50,-47,-43,-41,-37,-37,-35,-34,-35,-33,-29,-26,-28,-26,-26,-24,-20,-21,-18,-16,-18,-12,-9,-7,-6,-3,-4,-6,-5,-5,-2,-1,-1,0,0,-1,0,-2,0,-1,0,3,1,1,-1,-9,-5,-10,-16,-14,-12,2,5,7
2019-06-04,11:01:16.204,-94,-88,-89,-89,-89,-83,-91,-196,-470,-500,294,931,844,652,406,247,101,-6,-56,-72,-82,-93,-96,-98,-101,-103,-99,-98,-105,-107,-113,-114,-120,-124,-133,-143,-151,-158,-166,-167,-163,-161,-156,-148,-134,-115,-103,-97,-89,-84,-74,-71,-65,-65,-53,-48,-42,-41,-40,-43,-42,-40,-42,-47,-44,-45,-42,-41,-38,-29,-25,-26,-21,-22,-24,-20,-15,-16,-19,-18,-16,-13,-13,-10,-9,-6,-3,-2,-1,0,-3,-7,-6,-4,-6,-5,-2,0,-1,1,-1,0,5,2,1,0,-1,0,-1,0,1,4,1,4,1,2,4,6,5,3,-2,-9,-9,-15,-11,-6,3,11
2019-06-04,11:01:17.228,-86,-88,-87,-84,-79,-75,-73,-72,-142,-436,-609,121,999,1135,872,573,346,160,22,-33,-60,-75,-87,-93,-98,-100,-102,-105,-109,-113,-115,-120,-125,-129,-139,-153,-164,-176,-190,-199,-210,-216,-217,-214,-209,-200,-184,-159,-135,-124,-106,-92,-82,-67,-57,-54,-49,-42,-34,-27,-27,-32,-31,-27,-27,-29,-28,-32,-32,-28,-30,-28,-26,-24,-24,-27,-19,-18,-12,-11,-9,-7,-7,-4,-2,0,1,2,5,6,5,4,2,2,4,5,4,5,3,4,7,7,7,5,6,5,7,4,7,6,0,5,4,5,3,2,1,2,0,0,0,4,7,5,4,6,3,1
2019-06-04,11:01:18.253,-102,-98,-103,-108,-99,-98,-84,-74,-76,-79,-77,-73,-68,-66,-65,-75,-227,-502,-406,490,1016,857,629,397,235,94,-4,-41,-60,-73,-83,-89,-89,-92,-94,-87,-92,-98,-98,-100,-106,-111,-117,-129,-138,-149,-158,-166,-172,-173,-174,-171,-163,-154,-138,-118,-99,-83,-74,-65,-57,-52,-50,-48,-48,-45,-38,-34,-35,-36,-35,-34,-34,-31,-32,-31,-33,-30,-26,-26,-26,-23,-22,-19,-18,-16,-13,-12,-10,-15,-8,-9,-8,-6,-3,-1,0,0,-1,-1,0,1,1,2,1,2,0,1,0,2,2,-1,-1,2,4,6,4,2,1,-1,-2,4,2,0,1,2,1,0
2019-06-04,11:01:19.278,-86,-86,-80,-80,-85,-91,-92,-92,-84,-83,-75,-62,-59,-58,-61,-58,-57,-54,-49,-50,-84,-329,-573,-75,854,1144,894,612,383,204,57,-13,-36,-51,-63,-73,-78,-82,-83,-87,-92,-89,-92,-94,-99,-108,-117,-128,-140,-153,-167,-180,-190,-198,-201,-198,-196,-188,-176,-157,-131,-110,-92,-78,-63,-57,-54,-47,-38,-31,-28,-25,-26,-23,-26,-24,-24,-24,-28,-28,-29,-28,-26,-25,-21,-18,-15,-17,-18,-17,-13,-12,-10,-7,-4,-3,-7,-7,-4,-3,-1,0,0,0,0,-1,0,-2,0,-1,1,0,-2,-2,-2,0,0,0,-1,1,2,3,1,-2,0,4,1,1
2019-06-04,11:01:20.302,-74,-73,-69,-69,-69,-65,-63,-62,-64,-58,-59,-63,-58,-59,-58,-61,-59,-58,-58,-61,-69,-65,-65,-65,-61,-53,-40,-36,-40,-45,-36,-38,-38,-35,-31,-64,-304,-560,-91,862,1202,956,666,422,239,89,12,-13,-37,-51,-57,-59,-64,-64,-67,-67,-68,-74,-80,-84,-92,-101,-112,-128,-139,-153,-167,-178,-187,-194,-193,-190,-185,-178,-159,-132,-108,-90,-76,-64,-51,-43,-37,-30,-27,-20,-15,-11,-6,-8,-8,-7,-9,-12,-13,-12,-14,-12,-11,-10,-10,-10,-9,-12,-10,-8,-6,-2,-5,-3,-2,2,4,-1,0,1,2,2,1,4,4,4,2,3,4,7,4,5
2019-06-04,11:01:21.327,-68,-67,-70,-70,-66,-65,-64,-65,-64,-62,-61,-60,-57,-58,-59,-56,-52,-52,-57,-53,-51,-53,-53,-61,-58,-62,-64,-54,-48,-38,-36,-35,-39,-37,-34,-32,-29,-29,-30,-82,-338,-511,28,874,998,792,535,352,195,70,2,-21,-40,-47,-57,-62,-65,-61,-65,-66,-71,-73,-78,-79,-88,-92,-98,-106,-115,-123,-133,-142,-147,-147,-143,-137,-132,-123,-104,-88,-71,-62,-57,-51,-44,-39,-36,-33,-27,-26,-27,-24,-24,-20,-21,-22,-22,-26,-23,-21,-20,-17,-19,-16,-19,-18,-14,-11,-8,-8,-8,-10,-7,-6,-8,-8,-7,-4,0,-1,-1,0,0,-1,-4,-2,1,-1
2019-06-04,11:01:22.352,-70,-69,-67,-66,-68,-64,-62,-62,-59,-60,-59,-55,-55,-51,-51,-50,-51,-53,-56,-59,-55,-60,-57,-47,-41,-32,-29,-33,-38,-32,-33,-30,-24,-24,-24,-128,-415,-469,340,1027,966,746,485,314,162,46,0,-20,-35,-46,-48,-56,-60,-62,-63,-66,-64,-68,-74,-79,-86,-90,-98,-106,-121,-136,-147,-150,-152,-155,-154,-148,-140,-121,-106,-85,-69,-60,-48,-41,-36,-30,-28,-25,-21,-18,-17,-13,-16,-21,-22,-22,-25,-26,-25,-22,-25,-21,-21,-19,-20,-20,-18,-17,-17,-14,-17,-11,-8,-9,-7,-2,0,-4,-6,-8,-7,-7,-5,-3,0,3,-1,-2,0,-3,0,0
2019-06-04,11:01:23.376,-65,-66,-65,-62,-62,-61,-62,-60,-59,-60,-56,-55,-58,-54,-51,-47,-53,-55,-55,-62,-66,-70,-65,-53,-43,-34,-32,-37,-44,-39,-38,-34,-28,-26,-40,-208,-493,-352,585,1119,957,704,452,278,126,25,-8,-28,-42,-53,-56,-62,-65,-64,-72,-70,-72,-82,-82,-83,-96,-101,-114,-128,-139,-150,-159,-167,-171,-172,-166,-162,-145,-132,-114,-92,-78,-67,-59,-51,-43,-41,-40,-38,-29,-24,-21,-22,-21,-22,-21,-17,-25,-26,-22,-20,-19,-22,-20,-15,-16,-12,-14,-9,-9,-11,-7,-5,-9,-7,-4,-5,-3,1,1,5,6,8,7,5,9,11,10,9,8,9,4,3
2019-06-04,11:01:24.401,-53,-51,-50,-53,-56,-53,-53,-54,-55,-50,-50,-45,-46,-47,-46,-44,-43,-44,-47,-45,-47,-52,-53,-55,-53,-41,-30,-25,-24,-28,-28,-24,-27,-25,-25,-19,-30,-202,-503,-348,619,1198,1037,759,490,298,135,31,-4,-25,-40,-51,-55,-59,-58,-63,-66,-66,-68,-70,-79,-81,-87,-94,-104,-121,-136,-145,-153,-160,-162,-162,-156,-150,-139,-121,-101,-87,-69,-62,-55,-45,-41,-39,-31,-25,-23,-15,-15,-15,-13,-18,-15,-14,-15,-15,-16,-17,-21,-18,-13,-11,-9,-11,-9,-8,-9,-8,-7,-1,-1,0,0,2,-4,-2,1,2,0,1,3,4,4,5,2,2,0,0
2019-06-04,11:01:25.426,-62,-64,-59,-58,-55,-57,-59,-63,-65,-61,-62,-66,-69,-75,-72,-73,-75,-65,-59,-45,-38,-39,-45,-45,-46,-45,-42,-40,-42,-56,-244,-487,-274,618,990,804,581,376,225,97,8,-22,-41,-54,-58,-61,-64,-65,-67,-74,-72,-74,-78,-79,-81,-89,-96,-100,-108,-116,-129,-142,-143,-145,-138,-131,-123,-112,-96,-80,-68,-61,-55,-54,-50,-45,-42,-39,-37,-32,-26,-24,-31,-30,-26,-24,-27,-25,-23,-20,-18,-16,-16,-17,-13,-11,-9,-10,-10,-14,-13,-11,-13,-13,-10,-11,-11,-14,-15,-13,-13,-8,-6,-7,-7,-6,-8,-5,-5,-4,-4,-9,-6,-5,-6,-6,-7,-8
2019-06-04,11:01:26.450,-65,-61,-66,-70,-73,-71,-70,-73,-63,-51,-45,-40,-42,-47,-45,-41,-38,-40,-38,-42,-135,-428,-518,292,1049,1053,799,519,324,158,31,-19,-40,-50,-61,-67,-72,-75,-81,-81,-83,-86,-90,-97,-98,-104,-109,-123,-131,-145,-157,-167,-174,-178,-180,-179,-170,-162,-149,-123,-95,-75,-60,-49,-40,-32,-24,-21,-19,-15,-10,-9,-11,-6,-9,-10,-12,-10,-10,-16,-14,-17,-20,-14,-13,-12,-11,-4,-1,-2,-4,-5,-5,-4,-2,-2,-3,0,0,2,5,4,5,3,6,0,3,4,5,5,2,3,1,2,4,4,6,0,-2,-3,0,4,2,1,2,0,0,-2
2019-06-04,11:01:27.475,-31,-32,-33,-30,-29,-28,-23,-24,-29,-31,-31,-32,-33,-37,-37,-38,-38,-33,-30,-17,-10,-4,-11,-16,-8,-12,-10,-13,-12,-14,-159,-466,-385,550,1192,1057,782,512,322,158,47,9,-14,-25,-38,-44,-49,-55,-56,-59,-63,-66,-71,-76,-82,-86,-96,-109,-119,-131,-148,-156,-163,-167,-171,-169,-166,-157,-145,-121,-98,-82,-65,-55,-48,-42,-38,-31,-27,-24,-20,-14,-11,-10,-14,-13,-14,-12,-14,-18,-21,-20,-18,-19,-21,-21,-21,-24,-19,-19,-20,-17,-14,-15,-14,-11,-11,-9,-9,-10,-6,-8,-10,-10,-9,-8,-11,-11,-11,-11,-8,-13,-10,-11,-11,-14,-14,-12
2019-06-04,11:01:28.500,-37,-39,-42,-43,-43,-43,-41,-40,-37,-39,-39,-41,-39,-36,-39,-35,-37,-42,-46,-41,-48,-47,-37,-25,-19,-15,-22,-26,-20,-23,-25,-22,-19,-20,-104,-371,-462,258,966,932,717,473,309,165,52,3,-19,-29,-36,-46,-51,-53,-57,-59,-62,-65,-70,-74,-74,-80,-85,-94,-103,-115,-126,-133,-141,-145,-139,-141,-139,-128,-114,-99,-85,-67,-55,-53,-44,-38,-38,-39,-33,-29,-25,-22,-20,-20,-19,-21,-21,-22,-24,-19,-17,-14,-17,-12,-10,-12,-10,-11,-10,-2,-1,-4,-4,2,4,1,-1,1,2,1,0,2,2,1,0,1,-1,0,4,3,-1,-1,3,2
2019-06-04,11:01:29.524,-42,-42,-45,-43,-38,-42,-43,-40,-42,-40,-41,-39,-38,-33,-37,-39,-34,-38,-33,-30,-31,-33,-36,-42,-40,-46,-45,-35,-25,-19,-17,-16,-21,-20,-19,-14,-12,-10,-14,-119,-423,-478,371,1114,1082,813,536,339,167,44,-2,-23,-39,-46,-54,-56,-62,-61,-62,-72,-70,-74,-74,-82,-91,-97,-107,-118,-133,-147,-158,-168,-179,-183,-178,-174,-171,-154,-129,-104,-81,-63,-50,-42,-36,-33,-29,-29,-23,-17,-15,-10,-9,-15,-17,-13,-13,-16,-19,-21,-21,-22,-21,-16,-17,-13,-12,-18,-14,-7,-9,-4,0,0,-2,5,8,3,0,-1,1,2,2,6,8,6,6,5
2019-06-04,11:01:30.549,-34,-33,-31,-30,-32,-30,-28,-29,-24,-22,-20,-17,-20,-17,-19,-23,-23,-24,-22,-22,-20,-21,-22,-23,-21,-22,-24,-27,-27,-26,-23,-23,-33,-34,-34,-38,-27,-15,-7,-1,0,-10,-7,-7,-4,-3,-2,2,-39,-281,-525,-28,904,1199,942,655,428,248,103,26,-2,-21,-36,-41,-46,-45,-48,-52,-56,-56,-61,-67,-74,-77,-85,-94,-105,-119,-130,-139,-151,-165,-170,-168,-164,-158,-150,-132,-116,-91,-75,-61,-50,-44,-36,-33,-31,-29,-24,-16,-14,-13,-16,-19,-12,-12,-13,-13,-18,-19,-16,-11,-16,-18,-16,-14,-16,-13,-13,-14,-10,-14,-9,-10,-11,-9,-4,-7
2019-06-04,11:01:31.574,-43,-44,-46,-46,-41,-39,-41,-41,-44,-43,-37,-39,-39,-43,-43,-41,-41,-40,-37,-37,-35,-34,-34,-33,-32,-32,-30,-35,-34,-40,-44,-41,-45,-39,-33,-20,-14,-17,-19,-20,-16,-12,-11,-9,-13,-30,-209,-445,-247,620,983,789,580,382,237,108,20,-8,-28,-40,-47,-53,-54,-59,-60,-60,-63,-62,-68,-70,-70,-76,-80,-87,-95,-113,-124,-131,-137,-135,-137,-132,-125,-117,-98,-82,-67,-57,-47,-40,-36,-38,-35,-32,-31,-29,-22,-22,-21,-19,-15,-14,-16,-13,-18,-16,-12,-8,-11,-11,-9,-5,-5,-8,-3,-5,-3,-2,-4,-3,1,0,1,-1,3,4,4,5
2019-06-04,11:01:32.598,-42,-41,-39,-37,-40,-40,-39,-40,-40,-37,-34,-38,-37,-32,-31,-36,-34,-29,-27,-33,-31,-31,-33,-30,-33,-27,-26,-30,-31,-32,-32,-34,-39,-42,-44,-44,-37,-28,-22,-20,-21,-24,-18,-16,-12,-14,-11,-21,-183,-480,-328,612,1183,1003,733,480,300,141,43,6,-14,-25,-39,-44,-48,-55,-59,-66,-70,-67,-73,-79,-86,-96,-103,-108,-125,-139,-156,-168,-180,-181,-175,-178,-182,-163,-146,-135,-112,-87,-75,-65,-55,-47,-40,-29,-25,-18,-16,-12,-7,-7,-7,-8,-11,-9,-8,-11,-10,-8,-8,-9,-11,-8,-5,-6,-2,-3,-1,0,-3,0,-2,1,4,2,5,3
2019-06-04,11:01:33.623,-27,-24,-26,-27,-26,-26,-27,-23,-24,-22,-23,-28,-24,-23,-23,-22,-21,-22,-23,-22,-24,-19,-13,-14,-16,-18,-16,-16,-15,-16,-17,-19,-24,-24,-31,-36,-27,-20,-14,-5,-2,-9,-11,-6,-5,-4,-4,-3,-19,-224,-508,-252,717,1198,1015,743,479,290,132,38,4,-15,-33,-40,-47,-50,-56,-59,-60,-61,-64,-66,-73,-76,-83,-92,-102,-114,-125,-137,-145,-155,-159,-158,-152,-151,-143,-128,-107,-92,-77,-65,-57,-48,-41,-35,-34,-34,-26,-20,-15,-16,-18,-14,-16,-16,-18,-17,-16,-18,-19,-17,-19,-19,-16,-14,-15,-15,-12,-9,-8,-12,-10,-5,-11,-12,-8,-11
2019-06-04,11:01:34.648,-29,-29,-30,-28,-28,-25,-29,-31,-25,-25,-27,-28,-27,-28,-26,-24,-22,-24,-25,-25,-24,-26,-24,-26,-24,-17,-20,-21,-21,-21,-18,-17,-22,-28,-26,-30,-30,-26,-19,-9,-6,-11,-19,-13,-10,-9,-7,-7,-4,-65,-330,-484,84,885,957,770,521,349,200,78,17,-8,-28,-38,-47,-50,-50,-49,-55,-55,-58,-60,-63,-60,-70,-70,-74,-82,-91,-105,-113,-120,-123,-120,-122,-122,-112,-105,-92,-70,-59,-50,-42,-40,-37,-36,-36,-30,-27,-25,-21,-18,-20,-19,-13,-12,-12,-18,-12,-15,-12,-9,-8,-11,0,-3,-8,0,0,-7,-4,1,5,0,2,-1,-4,-6
2019-06-04,11:01:35.672,-39,-44,-45,-33,-25,-23,-26,-31,-29,-34,-32,-27,-33,-30,-21,-28,-33,-35,-33,-28,-33,-31,-35,-25,-22,-18,-22,-24,-13,-33,-34,-23,-24,-30,-39,-35,-28,-30,-11,-8,-8,-14,-18,-12,-11,-14,-9,-13,-91,-383,-518,209,1020,1083,844,553,352,185,67,16,-13,-35,-40,-49,-54,-64,-60,-58,-62,-75,-68,-78,-89,-90,-100,-115,-128,-118,-143,-152,-161,-165,-169,-163,-166,-162,-148,-132,-118,-91,-80,-75,-61,-52,-56,-53,-46,-45,-40,-39,-37,-36,-38,-38,-27,-27,-26,-25,-24,-22,-21,-21,-18,-16,-15,-10,-9,-7,-5,-3,-3,-2,0,0,1,7,6,9
2019-06-04,11:01:36.697,-37,-37,-38,-41,-43,-43,-37,-35,-38,-40,-37,-32,-31,-35,-36,-33,-31,-27,-23,-22,-24,-23,-23,-25,-24,-22,-29,-35,-35,-34,-41,-36,-27,-20,-11,-6,-9,-13,-10,-11,-16,-18,-4,-22,-212,-494,-268,689,1168,975,711,463,278,131,36,7,-13,-24,-30,-38,-40,-47,-62,-65,-61,-58,-70,-72,-77,-78,-94,-108,-111,-117,-130,-140,-150,-151,-151,-152,-149,-142,-127,-112,-92,-72,-60,-55,-48,-42,-35,-30,-28,-29,-20,-16,-20,-18,-15,-16,-18,-21,-25,-27,-25,-26,-21,-16,-21,-21,-16,-17,-16,-14,-11,-11,-13,-8,-2,-2,-3,-6,-3,-1,-4,-1,0,-3
2019-06-04,11:01:37.721,-53,-50,-51,-48,-44,-48,-48,-43,-38,-37,-36,-36,-39,-37,-40,-41,-35,-34,-36,-35,-33,-36,-38,-41,-42,-44,-43,-50,-42,-35,-17,-15,-17,-21,-22,-21,-19,-17,-14,-20,-48,-276,-504,-99,801,1082,851,597,392,225,97,21,-4,-24,-39,-47,-53,-56,-56,-57,-65,-66,-69,-71,-74,-77,-86,-94,-104,-112,-121,-129,-140,-143,-147,-148,-147,-143,-134,-116,-101,-84,-66,-54,-51,-50,-49,-55,-42,-36,-34,-33,-33,-34,-35,-35,-35,-39,-42,-38,-36,-39,-38,-34,-31,-29,-27,-25,-26,-19,-20,-19,-23,-18,-17,-16,-10,-7,-15,-13,-7,-5,-4,-3,-5,-4,-3,2
2019-06-04,11:01:38.746,-52,-56,-51,-48,-46,-43,-44,-42,-40,-43,-43,-46,-50,-50,-51,-56,-41,-32,-22,-14,-14,-18,-15,-12,-12,-10,-8,-6,-47,-298,-506,-20,878,1079,865,603,398,239,106,38,10,-2,-10,-12,-21,-25,-26,-23,-28,-34,-31,-38,-41,-43,-51,-57,-63,-77,-90,-98,-104,-109,-109,-106,-103,-91,-80,-61,-43,-29,-13,-6,0,5,9,7,12,24,20,25,27,28,31,29,31,26,29,31,32,28,32,35,38,42,45,50,56,55,57,56,59,58,58,57,56,61,67,69,70,68,71,73,74,73,68,72,74,71,70,73,71,71,69,65,59,54,53,54
2019-06-04,11:01:39.771,-93,-88,-80,-67,-62,-62,-66,-65,-63,-64,-62,-57,-54,-110,-385,-588,28,924,1105,862,579,360,185,46,-22,-43,-62,-73,-79,-83,-86,-89,-87,-90,-92,-94,-104,-104,-109,-120,-127,-136,-145,-156,-169,-177,-184,-184,-185,-179,-170,-157,-139,-124,-111,-99,-88,-85,-76,-71,-66,-61,-54,-50,-41,-44,-40,-38,-39,-35,-40,-41,-44,-46,-43,-37,-33,-31,-35,-30,-25,-30,-30,-26,-26,-22,-19,-14,-13,-11,-6,-8,-12,-7,-2,-2,-3,-2,-4,-6,-3,-1,-6,-12,-12,-13,-18,-19,-17,-16,-13,-5,3,8,9,6,4,9,10,7,5,5,-1,-136,-424,-400,489,1110
2019-06-04,11:01:40.795,970,745,481,300,146,32,-6,-25,-44,-54,-62,-69,-76,-73,-74,-79,-78,-79,-83,-90,-96,-102,-109,-120,-126,-134,-146,-144,-152,-151,-147,-142,-131,-119,-108,-97,-84,-82,-79,-72,-70,-66,-64,-59,-52,-52,-45,-47,-48,-48,-50,-50,-51,-50,-49,-48,-45,-41,-46,-43,-39,-36,-35,-34,-35,-29,-29,-30,-28,-22,-24,-25,-20,-19,-21,-18,-19,-23,-25,-26,-28,-26,-18,-13,-5,0,-3,-6,-4,-2,-4,-2,-3,-9,-136,-403,-396,405,963,836,673,445,297,156,53,11,-9,-22,-30,-35,-39,-45,-43,-45,-47,-49,-56,-58,-58,-58,-61,-67,-74,-81,-93,-98,-98,-99
2019-06-04,11:01:41.820,-61,-55,-48,-39,-25,-10,-1,-2,-7,-7,-7,-9,-6,-4,2,6,6,5,4,7,10,11,10,13,16,16,16,15,17,19,17,19,17,18,16,15,19,23,21,22,19,17,15,12,14,13,9,1,-1,-4,-6,5,10,13,18,18,11,14,17,18,15,20,16,-16,-243,-495,-96,844,1150,924,660,435,261,114,35,9,-8,-23,-28,-32,-41,-46,-47,-54,-59,-64,-70,-76,-82,-90,-97,-104,-115,-128,-142,-146,-150,-151,-147,-143,-136,-125,-110,-93,-83,-76,-72,-68,-65,-61,-57,-54,-50,-46,-44,-44,-40,-43,-41,-40,-41,-41,-43,-47,-46,-46,-44,-48
2019-06-04,11:01:42.845,-59,-55,-51,-49,-54,-47,-47,-45,-44,-41,-43,-40,-36,-42,-53,-50,-52,-51,-45,-31,-20,-21,-22,-28,-26,-20,-15,-13,-14,-14,-100,-398,-523,252,1049,1088,863,571,360,189,60,8,-15,-30,-38,-49,-53,-58,-58,-62,-60,-65,-68,-73,-81,-88,-90,-101,-111,-117,-125,-128,-130,-134,-132,-129,-119,-112,-99,-86,-81,-74,-67,-65,-55,-54,-54,-49,-37,-30,-35,-30,-28,-35,-33,-30,-30,-30,-33,-32,-34,-35,-36,-38,-32,-25,-25,-25,-20,-22,-20,-18,-16,-19,-15,-14,-15,-18,-19,-22,-25,-23,-27,-33,-32,-20,-11,-10,-12,-14,-9,-12,-8,-9,-9,-7,-107,-402
2019-06-04,11:01:43.869,-511,303,1030,991,774,496,310,149,28,-21,-41,-52,-66,-73,-73,-75,-74,-79,-86,-89,-86,-91,-95,-98,-99,-107,-118,-127,-133,-142,-139,-135,-129,-122,-116,-104,-96,-89,-83,-79,-80,-76,-71,-69,-62,-58,-55,-53,-53,-55,-54,-53,-46,-47,-47,-49,-50,-52,-49,-46,-42,-40,-38,-37,-33,-33,-34,-33,-34,-33,-29,-28,-27,-26,-27,-24,-25,-33,-33,-35,-40,-38,-31,-14,-9,-9,-16,-10,-7,-12,-8,-6,-6,-39,-264,-475,-121,773,989,801,576,380,228,99,24,2,-12,-23,-35,-40,-43,-43,-46,-48,-48,-51,-58,-61,-64,-67,-77,-84,-94,-99,-104,-110,-109,-104
2019-06-04,11:01:44.894,-174,-175,-165,-153,-142,-134,-130,-127,-124,-126,-120,-120,-112,-111,-106,-101,-98,-97,-100,-96,-91,-93,-95,-92,-88,-88,-86,-83,-80,-77,-77,-71,-72,-65,-63,-59,-60,-57,-55,-55,-55,-54,-52,-53,-52,-46,-48,-43,-41,-44,-48,-47,-46,-51,-50,-53,-54,-50,-39,-27,-27,-32,-32,-27,-24,-19,-19,-18,-25,-175,-487,-400,566,1203,1064,788,510,309,142,37,7,-14,-29,-42,-47,-51,-53,-54,-61,-68,-73,-75,-80,-82,-95,-99,-108,-118,-132,-140,-146,-152,-153,-149,-144,-142,-131,-117,-100,-89,-79,-74,-73,-63,-54,-48,-41,-32,-26,-28,-23,-23,-20,-19,-23,-23,-26,-24
2019-06-04,11:01:45.919,-77,-81,-75,-75,-70,-68,-66,-62,-61,-59,-58,-56,-52,-54,-56,-49,-47,-42,-39,-40,-39,-36,-31,-31,-32,-29,-27,-25,-27,-24,-27,-25,-24,-25,-27,-37,-39,-42,-44,-42,-35,-20,-13,-10,-17,-15,-14,-11,-9,-11,-6,-65,-343,-555,89,1008,1192,939,637,408,225,86,17,-6,-20,-34,-39,-46,-48,-55,-55,-60,-65,-66,-68,-75,-82,-89,-93,-105,-115,-124,-131,-135,-136,-134,-132,-129,-120,-108,-95,-81,-74,-68,-66,-58,-55,-50,-45,-39,-33,-30,-21,-26,-21,-27,-28,-31,-31,-32,-29,-33,-38,-35,-34,-30,-25,-26,-23,-22,-16,-12,-14,-9,-8,-8,-8,-6
2019-06-04,11:01:46.943,-47,-47,-47,-45,-42,-49,-48,-44,-43,-39,-39,-40,-38,-37,-39,-36,-38,-48,-55,-47,-55,-52,-50,-38,-27,-28,-29,-25,-25,-23,-22,-22,-21,-39,-234,-476,-243,672,1012,813,590,382,231,100,15,-9,-21,-34,-45,-46,-48,-52,-55,-54,-58,-62,-67,-65,-69,-77,-80,-87,-96,-107,-112,-118,-120,-119,-114,-106,-99,-88,-75,-67,-55,-59,-55,-56,-54,-56,-51,-42,-41,-40,-35,-34,-35,-36,-34,-32,-36,-34,-36,-34,-26,-25,-19,-22,-20,-19,-13,-10,-10,-11,-14,-14,-12,-10,-9,-8,-9,-10,-12,-10,-10,-8,-5,-11,-10,-9,-8,-9,-7,-9,-5,-10,-9,-6
2019-06-04,11:01:47.968,-45,-43,-47,-53,-54,-54,-62,-57,-53,-40,-31,-30,-34,-37,-33,-30,-30,-26,-26,-71,-330,-567,-15,913,1162,911,620,392,224,76,7,-15,-30,-39,-48,-53,-59,-65,-70,-72,-70,-72,-74,-81,-92,-97,-104,-119,-128,-138,-145,-151,-155,-155,-156,-153,-144,-135,-119,-99,-87,-80,-73,-63,-62,-57,-47,-41,-33,-31,-28,-24,-24,-25,-26,-26,-25,-30,-27,-33,-30,-30,-28,-26,-23,-21,-15,-14,-11,-13,-9,-13,-10,-8,-5,-8,-12,-6,-3,-6,-1,-3,-4,-5,-2,0,-1,5,4,0,1,0,-2,-2,0,-1,2,-2,0,-1,3,1,2,6,4,6,2,3
2019-06-04,11:01:48.993,-36,-42,-45,-50,-49,-46,-44,-27,-22,-27,-28,-24,-21,-16,-19,-16,-27,-180,-491,-371,595,1214,1060,777,499,306,140,37,2,-19,-39,-46,-54,-57,-58,-63,-62,-65,-74,-77,-79,-84,-88,-96,-101,-116,-129,-138,-147,-156,-157,-156,-150,-147,-144,-129,-115,-96,-82,-73,-60,-52,-48,-42,-39,-32,-29,-30,-28,-26,-28,-32,-31,-29,-33,-37,-32,-30,-29,-29,-27,-28,-25,-20,-18,-15,-16,-14,-12,-13,-15,-13,-11,-8,-9,-4,-6,-5,-3,-7,-7,-9,-6,-3,-2,-1,0,1,2,-4,-1,-3,-3,-2,0,0,-3,-4,2,1,0,-1,-8,-13,-17,-22,-20,-11
2019-06-04,11:01:50.017,-32,-29,-27,-30,-33,-30,-23,-23,-22,-23,-88,-351,-497,113,899,933,733,482,320,172,59,0,-20,-38,-48,-53,-57,-58,-60,-63,-66,-69,-70,-75,-76,-77,-86,-94,-103,-110,-118,-125,-130,-134,-133,-128,-119,-110,-103,-88,-71,-58,-56,-54,-48,-50,-51,-46,-43,-38,-39,-34,-34,-36,-38,-35,-30,-31,-29,-32,-30,-27,-22,-24,-21,-19,-12,-12,-12,-11,-10,-12,-13,-8,-6,-7,-8,-6,-3,-1,-1,-3,-3,-1,-4,-6,-4,-2,-3,2,2,4,4,1,0,-1,0,4,2,4,2,2,1,-1,-1,-1,0,-2,-4,-2,-3,-4,-6,-11,-13,-21,-17,-11
2019-06-04,11:01:51.042,-23,-9,-6,-17,-18,-15,-13,-11,-13,-13,-45,-296,-535,-26,906,1184,929,642,416,238,91,23,-3,-26,-36,-46,-51,-54,-64,-66,-71,-71,-72,-80,-81,-85,-96,-104,-116,-126,-135,-150,-164,-167,-170,-171,-168,-160,-153,-137,-117,-96,-80,-68,-57,-52,-49,-46,-41,-38,-32,-28,-26,-23,-20,-19,-19,-26,-28,-25,-26,-24,-26,-25,-20,-19,-19,-22,-18,-17,-16,-11,-8,-9,-4,-2,-3,-7,-2,2,0,0,-2,1,3,4,2,3,3,4,2,1,1,0,1,3,2,3,2,1,2,-1,-1,0,5,8,7,6,8,2,4,1,0,-2,-1,-5,-10,-14
2019-06-04,11:01:52.067,-25,-29,-25,-20,-6,2,1,-2,-8,-6,-5,1,1,1,-44,-304,-539,14,952,1210,956,660,425,244,101,30,-3,-19,-29,-39,-41,-48,-50,-50,-51,-52,-58,-65,-71,-77,-87,-99,-109,-119,-132,-146,-159,-166,-170,-168,-166,-160,-147,-131,-110,-89,-73,-65,-53,-43,-38,-36,-32,-29,-26,-25,-22,-18,-14,-17,-19,-23,-22,-23,-21,-16,-15,-18,-19,-17,-19,-15,-14,-11,-12,-10,-5,-3,0,-1,1,2,2,1,1,0,1,4,7,6,8,3,1,-2,3,5,4,1,3,5,0,-1,0,-1,0,0,0,1,0,-1,-5,-10,-13,-16,-20,-15,-8,2
2019-06-04,11:01:53.091,-11,-16,-22,-19,-18,-17,-11,-11,-12,-38,-239,-474,-207,700,1011,813,583,383,227,101,21,-4,-22,-37,-42,-42,-48,-51,-52,-56,-56,-58,-63,-64,-64,-72,-81,-86,-92,-103,-113,-119,-121,-121,-127,-117,-109,-102,-88,-78,-64,-55,-54,-48,-48,-49,-47,-45,-44,-42,-40,-36,-34,-35,-38,-35,-32,-33,-30,-27,-26,-23,-23,-24,-21,-23,-16,-17,-14,-14,-16,-17,-16,-19,-15,-11,-14,-15,-17,-16,-14,-11,-9,-7,-8,-8,-5,-7,-9,-12,-15,-24,-21,-24,-24,-15,-12,1,6,2,-2,-1,0,1,3,5,1,-79,-358,-471,244,999,993,774,520,343,185,67
2019-06-04,11:01:54.116,11,-7,-23,-34,-40,-45,-46,-47,-50,-50,-51,-58,-65,-68,-75,-82,-88,-100,-112,-119,-125,-131,-134,-133,-127,-124,-115,-99,-85,-80,-72,-65,-57,-53,-50,-49,-48,-43,-38,-36,-33,-32,-29,-28,-29,-30,-30,-28,-28,-26,-24,-27,-25,-25,-19,-15,-16,-18,-16,-16,-13,-9,-12,-16,-11,-12,-13,-14,-11,-14,-16,-11,-9,-4,-10,-8,-7,-7,-8,-4,-6,-5,-2,-10,-10,-11,-11,-10,-14,-19,-24,-32,-22,-13,-4,0,2,-5,-5,-1,0,-1,1,4,-22,-243,-514,-168,798,1208,992,707,459,274,119,35,6,-10,-26,-35,-41,-48,-49,-49,-53,-54,-56,-59
2019-06-04,11:01:55.141,-56,-60,-66,-77,-90,-101,-115,-126,-132,-138,-140,-140,-135,-131,-129,-110,-92,-78,-70,-62,-57,-50,-44,-38,-31,-28,-23,-16,-19,-19,-18,-13,-18,-20,-20,-27,-20,-21,-22,-23,-23,-21,-15,-12,-16,-20,-20,-16,-13,-13,-15,-9,-11,-6,-7,-7,-5,-2,-1,-3,-3,-3,-1,0,2,0,-1,0,-1,-3,-3,-6,-8,-10,-10,-8,-4,-4,-6,-4,-1,-4,-3,-8,-11,-14,-18,-23,-26,-14,-8,2,4,1,-5,-4,-2,-3,-2,-1,0,-43,-295,-510,0,912,1121,883,606,395,226,93,21,-6,-23,-33,-45,-53,-54,-51,-53,-56,-59,-61,-66,-68,-75,-83
2019-06-04,11:01:56.165,-91,-96,-108,-119,-126,-134,-135,-133,-130,-125,-123,-111,-99,-84,-69,-61,-54,-54,-50,-45,-41,-36,-34,-33,-28,-29,-32,-32,-28,-32,-29,-31,-25,-21,-22,-22,-24,-24,-19,-17,-19,-19,-18,-15,-16,-14,-12,-11,-13,-11,-7,-7,-7,-9,-8,-9,-5,-7,-6,-4,-3,-5,-3,-9,-11,-13,-20,-19,-20,-25,-17,-11,-3,-1,1,-4,-2,0,-8,-9,-4,-3,-22,-206,-451,-245,656,1023,836,614,407,252,119,32,0,-18,-24,-32,-37,-40,-46,-49,-51,-53,-56,-58,-63,-68,-69,-76,-87,-92,-102,-113,-112,-116,-118,-117,-115,-107,-95,-83,-74,-69,-59,-56,-55,-55
2019-06-04,11:01:57.190,-53,-49,-45,-40,-37,-36,-36,-33,-31,-34,-29,-32,-35,-34,-26,-28,-23,-22,-24,-20,-13,-13,-17,-16,-11,-12,-13,-10,-6,-5,-6,-4,-6,-5,-2,0,1,-5,-5,-7,-7,-4,-2,-2,-4,-6,-8,-6,-3,-9,-7,-6,-7,-6,-6,-2,0,-6,-11,-14,-17,-21,-26,-27,-11,-3,0,6,5,0,0,-1,-1,-3,1,0,-67,-359,-537,173,1045,1175,915,617,391,208,72,13,-9,-27,-38,-46,-48,-50,-55,-59,-62,-66,-71,-77,-81,-85,-96,-103,-114,-127,-142,-151,-159,-161,-162,-161,-156,-145,-134,-120,-101,-85,-77,-68,-57,-50,-47,-44,-38,-33,-29,-24
2019-06-04,11:01:58.215,-12,-13,-13,-15,-14,-17,-14,-15,-15,-20,-19,-22,-21,-16,-15,-15,-12,-8,-7,-9,-5,-3,-4,-1,-5,-2,-3,-5,-4,-5,-2,0,0,3,2,0,-2,-1,-4,-3,0,0,-1,-3,-2,-1,-2,-2,-1,0,-1,-2,-3,-10,-18,-13,-18,-20,-11,-9,0,2,0,-5,0,0,2,1,9,6,-78,-378,-513,258,1089,1154,899,601,388,209,80,23,1,-13,-27,-35,-42,-47,-47,-51,-59,-65,-61,-63,-77,-81,-89,-103,-107,-113,-123,-134,-140,-142,-144,-140,-136,-132,-118,-103,-91,-81,-70,-68,-61,-51,-46,-39,-34,-33,-30,-28,-24,-25,-27,-27,-26,-32
2019-06-04,11:01:59.239,-26,-28,-25,-27,-23,-17,-18,-16,-15,-13,-15,-14,-11,-9,-9,-6,-1,0,-3,-3,-5,-5,-4,-7,-8,-6,-4,-1,-5,-2,-5,0,0,-2,0,-1,-2,-3,-5,-6,-11,-16,-18,-19,-17,-11,-4,1,1,-5,-5,-1,0,0,0,2,0,-112,-384,-422,353,973,868,687,454,301,161,57,11,-12,-23,-33,-39,-42,-41,-42,-45,-45,-47,-54,-59,-57,-63,-67,-70,-80,-87,-94,-101,-100,-103,-102,-96,-89,-83,-71,-55,-45,-46,-44,-46,-45,-48,-51,-48,-46,-44,-42,-40,-34,-35,-34,-34,-35,-29,-32,-32,-27,-22,-25,-23,-23,-19,-17,-16,-16,-16,-17
2019-06-04,11:02:00.264,-18,-16,-17,-21,-17,-12,-8,-11,-13,-15,-13,-14,-15,-14,-13,-10,-11,-6,-8,-10,-19,-24,-22,-25,-21,-16,-7,3,5,5,0,1,1,5,5,4,5,-50,-330,-523,106,981,1139,901,616,401,229,89,28,9,-7,-21,-24,-27,-33,-41,-48,-49,-52,-56,-62,-70,-76,-80,-95,-104,-116,-123,-133,-135,-136,-134,-132,-124,-115,-105,-88,-78,-68,-65,-56,-50,-49,-42,-37,-31,-32,-27,-22,-24,-25,-20,-20,-22,-24,-27,-26,-29,-34,-28,-24,-20,-18,-16,-15,-13,-11,-9,-7,-7,-10,-10,-5,-9,-7,-10,-8,-7,-6,0,-3,-1,0,0,1,4,2,-4
2019-06-04,11:02:01.289,2,3,5,6,4,0,4,6,8,2,2,-1,-4,-5,0,0,3,3,0,-9,-10,-15,-23,-22,-9,-6,5,11,10,5,7,9,8,9,11,0,-127,-443,-442,473,1197,1135,857,566,356,183,63,22,0,-14,-27,-35,-38,-44,-44,-45,-53,-56,-57,-63,-73,-78,-85,-98,-112,-124,-133,-144,-151,-158,-159,-160,-153,-142,-130,-110,-93,-78,-66,-57,-53,-48,-39,-33,-32,-22,-17,-14,-14,-12,-13,-13,-17,-20,-20,-23,-22,-24,-23,-25,-22,-23,-20,-15,-15,-16,-15,-14,-15,-12,-10,-10,-8,-4,-6,-8,-7,-9,-9,-13,-11,-4,-5,-5,-6,-4,-2,-1
2019-06-04,11:02:02.313,4,2,4,2,3,5,7,5,4,5,10,11,3,0,0,-2,1,0,-3,-2,-3,-1,0,-2,-9,-12,-14,-19,-11,0,11,14,11,6,8,7,9,7,5,5,-55,-327,-499,102,931,1018,804,543,358,203,86,23,-1,-16,-26,-35,-37,-41,-45,-45,-47,-47,-53,-60,-63,-68,-71,-79,-91,-97,-105,-114,-125,-132,-134,-130,-129,-121,-113,-96,-79,-64,-55,-49,-43,-40,-36,-39,-39,-37,-34,-30,-29,-23,-24,-21,-21,-20,-19,-19,-21,-20,-22,-20,-17,-14,-12,-11,-6,-5,-3,-3,-3,-6,-3,-4,-3,-1,-2,-4,-2,4,5,4,1,-3,4,4
2019-06-04,11:02:03.338,8,9,9,6,7,11,3,3,0,0,3,4,5,3,-3,-4,-6,-11,-10,-1,4,8,15,8,5,8,10,8,8,15,-7,-203,-475,-232,712,1139,931,675,439,271,127,38,9,-10,-23,-34,-39,-46,-52,-52,-55,-53,-57,-63,-71,-76,-81,-90,-98,-109,-122,-135,-151,-158,-158,-156,-150,-147,-139,-121,-101,-81,-68,-56,-54,-56,-51,-44,-48,-32,-15,-16,-5,-13,-12,-17,-19,-21,-18,-21,-17,-19,-16,-14,-12,-12,-12,-13,-7,0,-8,0,0,-2,3,1,0,-1,0,2,3,6,5,4,2,1,3,5,7,8,1,0,2,0,1,-2,-2,-1
2019-06-04,11:02:04.363,4,10,12,9,6,-1,-11,-9,-12,-6,-4,5,11,12,9,1,0,-2,2,-1,0,-4,-171,-487,-413,577,1225,1085,801,513,319,156,45,7,-16,-30,-41,-50,-57,-59,-62,-65,-70,-80,-83,-87,-94,-98,-107,-113,-125,-138,-148,-155,-161,-178,-169,-161,-168,-158,-118,-97,-80,-65,-58,-45,-31,-24,-27,-25,-20,-18,-19,-22,-20,-18,-23,-17,-9,-15,-17,-20,-23,-16,-19,-19,-11,-1,-8,-8,-10,-8,-5,-5,-5,-1,0,2,3,1,-2,-1,3,1,-2,-3,-1,0,-1,4,0,-1,4,1,1,-5,-12,-10,-12,-8,2,14,21,14,9,11,9,9
2019-06-04,11:02:05.388,19,25,23,-8,-269,-553,-48,967,1324,1079,756,492,295,128,49,17,-5,-19,-24,-24,-32,-38,-43,-46,-49,-54,-59,-71,-87,-98,-105,-113,-127,-141,-146,-166,-178,-167,-163,-158,-159,-145,-115,-103,-95,-84,-76,-71,-68,-63,-56,-43,-35,-29,-28,-19,-16,-23,-17,-24,-33,-27,-26,-29,-24,-16,-17,-23,-14,-16,-17,-20,-14,-16,-20,-21,-14,-18,-21,-27,-25,-28,-24,-24,-28,-25,-24,-20,-23,-18,-13,-15,-11,-13,-20,-8,-13,-16,-18,-26,-24,-21,-30,-30,-18,-15,-3,-4,-14,-16,-18,-13,-17,-7,-12,-19,-110,-415,-514,308,1079,1082,839,541,339,170,50,2
2019-06-04,11:02:06.412,1,-16,-24,-32,-31,-36,-38,-42,-48,-53,-56,-62,-62,-74,-78,-78,-92,-100,-115,-127,-127,-130,-128,-126,-120,-110,-94,-80,-63,-46,-46,-35,-37,-41,-34,-29,-26,-20,-14,-11,-13,-18,-14,-16,-13,-20,-21,-22,-20,-22,-19,-13,-11,-9,-8,-12,-9,-1,0,-5,-6,-4,-5,-4,0,-1,-6,-8,-1,0,-9,-9,0,-5,-7,-8,-6,-10,-9,-6,-7,-20,-10,-9,-25,-26,-29,-26,-12,-10,-3,-2,-7,-11,-12,-7,-10,-12,-1,-15,-159,-495,-450,530,1242,1171,871,559,334,146,31,-5,-23,-43,-51,-52,-58,-60,-70,-75,-74,-85,-88,-96,-102,-111,-123,-136
2019-06-04,11:02:07.437,-116,-127,-142,-152,-157,-162,-157,-158,-145,-133,-121,-101,-80,-74,-60,-50,-43,-50,-39,-28,-25,-23,-13,-7,-18,-21,-7,-12,-13,-12,-18,-19,-11,-17,-19,-19,-20,-10,-13,-9,-5,-7,-4,-10,-7,-3,-2,-1,0,0,0,1,0,5,0,2,-1,0,-2,-1,-1,0,-1,3,0,2,4,1,-2,5,2,0,-1,-7,7,5,2,10,8,-2,-7,-15,-18,-17,-3,-1,12,23,19,12,21,15,10,1,4,9,-68,-376,-553,198,1097,1245,976,643,413,219,76,12,-15,-33,-46,-51,-57,-63,-62,-69,-74,-76,-82,-88,-93,-95,-108,-120,-131,-141,-154,-167
2019-06-04,11:02:08.461,-162,-165,-166,-163,-160,-152,-138,-120,-100,-87,-72,-62,-54,-50,-42,-40,-29,-19,-20,-18,-20,-15,-16,-18,-17,-22,-23,-16,-23,-22,-26,-26,-21,-18,-16,-13,-14,-12,-12,-7,-8,-4,-9,-10,-13,-10,-8,-6,-5,-3,-5,-3,-4,-5,-2,-3,-4,-2,-1,0,-2,0,3,0,-1,-2,-1,-5,0,-2,-1,-6,-4,-3,-15,-20,-17,-25,-14,-7,0,2,-2,-7,-5,-5,-2,-2,-6,-8,-60,-323,-508,55,937,1039,821,554,360,207,83,13,-7,-26,-40,-42,-44,-43,-47,-53,-59,-61,-65,-66,-69,-76,-79,-81,-96,-106,-114,-124,-129,-139,-133,-127,-124,-114
2019-06-04,11:02:09.486,-103,-90,-68,-56,-51,-49,-50,-51,-51,-50,-49,-45,-44,-42,-39,-40,-37,-33,-32,-32,-25,-25,-26,-26,-28,-25,-25,-17,-12,-9,-14,-12,-17,-17,-8,-6,-5,-2,-3,-5,-4,-4,-3,-9,-7,-5,-9,-11,-8,-10,-11,-10,-8,-14,-14,-11,-18,-15,-15,-14,-14,-16,-24,-26,-31,-34,-39,-31,-23,-14,-2,-7,-12,-13,-13,-11,-14,-15,-11,-29,-255,-525,-162,813,1213,983,687,439,255,111,28,-4,-21,-31,-47,-52,-56,-55,-66,-70,-67,-72,-78,-86,-89,-96,-105,-117,-132,-144,-160,-170,-176,-181,-179,-176,-164,-155,-136,-114,-95,-82,-69,-59,-50,-45,-40,-38
2019-06-04,11:02:10.511,-25,-23,-18,-20,-22,-17,-21,-21,-25,-20,-22,-25,-23,-25,-20,-21,-19,-15,-15,-9,-8,-14,-10,-7,-9,-5,-9,-5,0,-1,0,2,1,-1,-3,-3,-2,0,0,-1,2,2,-1,-4,-2,-7,-2,0,0,2,0,0,-3,-5,-6,-13,-19,-16,-2,-2,7,6,2,-7,2,3,4,2,-2,3,-91,-415,-532,317,1161,1230,951,628,398,212,75,18,-5,-26,-37,-44,-45,-48,-54,-62,-71,-68,-73,-77,-86,-93,-101,-114,-127,-134,-146,-157,-168,-173,-176,-174,-171,-162,-153,-130,-103,-94,-79,-67,-57,-47,-38,-33,-31,-19,-16,-15,-11,-13,-10,-16,-12,-16
2019-06-04,11:02:11.535,-12,-9,-10,-12,-18,-11,-7,-9,-7,-6,-5,-2,-5,0,2,2,0,0,-3,0,3,6,7,6,3,-1,-4,-2,-5,0,-2,-5,0,1,0,-4,-3,-7,-2,-5,-7,-11,-12,-10,-21,-18,-6,-6,1,5,-7,-1,6,4,3,6,7,-7,-176,-473,-365,623,1197,1030,761,490,305,144,35,1,-12,-28,-41,-46,-49,-56,-61,-62,-64,-65,-66,-73,-76,-81,-91,-100,-108,-115,-132,-139,-144,-149,-144,-141,-130,-126,-108,-92,-74,-68,-59,-57,-56,-53,-49,-45,-44,-40,-36,-35,-39,-31,-27,-31,-28,-32,-33,-26,-25,-29,-29,-23,-20,-25,-24,-19,-18,-14
2019-06-04,11:02:12.560,-11,-13,-10,-10,-13,-12,-12,-13,-9,-8,-7,-1,-6,-5,-2,0,-5,-7,-6,-11,-9,-19,-16,-5,4,11,12,5,2,6,6,7,8,11,6,-104,-398,-442,381,1061,967,757,493,325,176,67,17,-3,-14,-28,-35,-36,-35,-39,-47,-52,-58,-66,-67,-77,-86,-88,-95,-104,-103,-102,-109,-123,-130,-126,-124,-119,-110,-90,-76,-66,-62,-57,-53,-51,-48,-45,-44,-40,-33,-30,-35,-36,-34,-34,-34,-35,-33,-28,-28,-25,-24,-25,-24,-22,-21,-19,-12,-7,-8,-7,-10,-9,-7,-7,-5,-9,-7,-2,-2,0,-1,0,1,0,-3,0,7,-3,-1,0,2,0
2019-06-04,11:02:13.585,-3,-5,-6,-1,-8,-18,-19,-17,-19,-23,-19,-12,-4,3,9,1,-1,-2,-2,-4,-2,-2,-10,-151,-476,-422,554,1235,1135,843,546,340,162,47,6,-18,-37,-42,-51,-52,-51,-55,-57,-65,-66,-71,-82,-87,-95,-103,-117,-127,-133,-147,-154,-162,-170,-174,-165,-156,-147,-132,-109,-89,-77,-72,-67,-61,-49,-42,-39,-32,-27,-29,-25,-12,-11,-18,-17,-19,-21,-23,-21,-26,-26,-24,-27,-27,-24,-20,-19,-16,-14,-19,-16,-9,-10,-3,-3,-5,-6,-5,-1,-3,-5,-4,-2,-1,-6,-9,-10,-9,-11,-8,-11,-10,-7,-2,-9,-5,-6,-9,-7,-8,-10,-9,-7,-13
2019-06-04,11:02:14.609,0,-8,-11,-18,-12,-4,1,6,3,0,-3,-1,2,4,7,2,-41,-312,-557,7,983,1266,1015,695,442,253,98,29,2,-21,-34,-39,-47,-47,-51,-61,-61,-67,-77,-76,-83,-88,-98,-105,-112,-125,-139,-147,-157,-164,-157,-157,-153,-146,-133,-120,-103,-87,-71,-59,-51,-52,-44,-42,-35,-31,-30,-28,-21,-22,-24,-24,-25,-29,-20,-25,-28,-25,-26,-26,-21,-14,-17,-16,-17,-15,-13,-13,-13,-9,-13,-12,-14,-15,-14,-10,-10,-12,-6,-10,-10,-9,-4,-9,-6,-6,-8,-9,-10,-12,-14,-18,-21,-23,-22,-12,-7,-1,-1,-4,-7,-7,-10,-11,-12,-5,-4,-83
2019-06-04,11:02:15.634,-360,-488,178,940,949,760,498,327,182,66,14,-1,-28,-37,-49,-50,-46,-48,-47,-50,-58,-63,-67,-70,-75,-74,-80,-96,-101,-112,-120,-121,-123,-120,-115,-105,-91,-80,-63,-50,-48,-47,-43,-42,-43,-39,-40,-41,-39,-36,-36,-38,-36,-37,-35,-33,-29,-28,-28,-26,-26,-19,-24,-21,-16,-9,-8,-13,-10,-12,-12,-10,-11,-11,-6,-12,-14,-11,-8,-8,-9,-4,-10,-7,-6,-4,-7,-2,0,-5,-8,-4,-5,-8,-10,-15,-22,-23,-24,-13,-10,-5,2,-1,-6,-7,-7,-2,-4,0,-3,-30,-244,-550,-252,775,1268,1061,749,468,275,111,15,-10,-30,-42,-50,-54
2019-06-04,11:02:16.659,-67,-74,-83,-85,-88,-98,-102,-108,-119,-126,-130,-146,-154,-168,-178,-183,-191,-189,-192,-191,-183,-168,-153,-130,-115,-101,-92,-85,-75,-74,-68,-56,-50,-49,-52,-46,-45,-48,-45,-38,-41,-36,-42,-38,-48,-41,-37,-39,-28,-27,-30,-26,-25,-23,-21,-21,-23,-17,-16,-18,-20,-23,-18,-21,-19,-16,-19,-19,-21,-19,-19,-21,-14,-8,-14,-13,-18,-21,-22,-16,-18,-21,-19,-22,-24,-26,-23,-27,-27,-15,-10,1,3,-1,-12,-12,-11,-12,-8,-13,-11,-72,-372,-581,118,1057,1267,1012,675,420,224,78,10,-17,-32,-51,-53,-57,-57,-67,-72,-72,-76,-82,-88,-94,-100,-110
2019-06-04,11:02:17.683,-103,-115,-128,-141,-147,-152,-160,-163,-159,-157,-142,-131,-112,-96,-77,-68,-58,-46,-42,-36,-32,-26,-22,-17,-12,-15,-12,-10,-8,-10,-16,-21,-18,-17,-14,-15,-16,-13,-19,-18,-11,-11,-8,-11,-9,-6,-12,-8,-6,-1,-2,-1,-5,-4,-2,2,-1,0,0,-4,-2,-5,-3,-4,-2,-2,-5,-4,-4,-2,-5,-4,-7,-5,-3,1,-2,-6,-4,-7,-8,-19,-19,-16,-19,-16,-9,-1,4,8,-1,-7,3,0,1,0,-2,-8,-168,-478,-422,554,1207,1083,805,512,318,155,38,1,-23,-39,-53,-57,-60,-65,-66,-69,-80,-82,-79,-84,-92,-96,-103,-113,-121,-131
2019-06-04,11:02:18.708,-142,-147,-154,-163,-157,-151,-148,-143,-125,-105,-89,-75,-62,-59,-55,-47,-48,-44,-42,-38,-36,-33,-30,-27,-30,-33,-33,-31,-27,-26,-25,-25,-19,-17,-16,-22,-17,-12,-14,-11,-8,-9,-9,-4,-7,-10,-8,-13,-10,-13,-11,-9,-12,-6,-11,-7,-10,-13,-10,-8,-5,-7,-7,-7,-2,-4,-7,-11,-14,-19,-24,-21,-24,-25,-12,-9,0,2,0,0,4,6,4,1,3,2,-76,-365,-530,150,990,1091,870,574,374,206,77,13,-7,-28,-35,-42,-44,-49,-48,-50,-58,-65,-70,-72,-82,-88,-96,-105,-110,-117,-130,-137,-147,-150,-148,-145,-143,-133,-117,-100,-88,-71
2019-06-04,11:02:19.733,-69,-67,-61,-56,-48,-47,-47,-48,-36,-31,-28,-29,-31,-31,-36,-36,-31,-28,-30,-22,-25,-22,-17,-23,-22,-19,-13,-23,-14,-19,-13,-12,-10,-6,-9,-7,-10,-6,-8,-11,-5,-8,-3,-2,-4,-2,1,-6,-2,-1,-6,-1,-3,-6,-6,-3,-1,-1,-4,-8,-13,-15,-16,-13,-19,-20,-24,-17,-12,3,5,2,1,0,-2,1,6,4,6,-35,-302,-571,-81,912,1260,1030,712,449,246,95,22,-7,-32,-48,-55,-66,-66,-69,-76,-80,-87,-89,-95,-103,-108,-119,-125,-132,-146,-154,-170,-179,-184,-183,-177,-177,-167,-147,-123,-105,-88,-72,-58,-52,-47,-42,-32,-31
2019-06-04,11:02:20.757,-30,-26,-27,-21,-18,-13,-16,-14,-17,-26,-24,-19,-23,-14,-16,-17,-15,-8,-5,-3,-6,-1,-2,-5,-4,0,0,2,0,-3,0,3,1,0,-1,-1,0,-2,-3,4,3,2,0,0,-3,-10,-4,-3,-6,-3,-5,-11,-10,-8,-7,-2,1,10,22,21,8,2,1,0,0,11,12,-23,-296,-539,-41,893,1176,986,689,454,269,122,36,7,-14,-25,-29,-37,-44,-47,-52,-49,-58,-63,-65,-73,-80,-87,-91,-103,-113,-123,-130,-137,-143,-144,-142,-132,-126,-117,-101,-89,-78,-77,-70,-63,-57,-58,-57,-54,-52,-47,-42,-41,-42,-42,-41,-38,-35,-35,-41,-38
2019-06-04,11:02:21.782,-31,-35,-29,-29,-26,-22,-17,-10,-13,-13,-9,-4,-8,-11,-8,-10,-7,-6,-2,3,2,3,-1,-7,-10,-12,-13,-18,-24,-14,-2,5,11,12,-2,2,0,1,2,0,-3,-75,-349,-468,200,931,919,738,489,327,183,65,9,-7,-23,-28,-36,-35,-32,-40,-38,-38,-40,-46,-52,-54,-61,-72,-77,-89,-96,-101,-109,-118,-115,-114,-112,-106,-97,-82,-65,-59,-58,-54,-52,-49,-48,-43,-37,-29,-31,-29,-27,-30,-28,-26,-25,-27,-23,-21,-20,-23,-19,-14,-15,-14,-14,-12,-14,-15,-9,-13,-13,-7,-11,-11,-8,-5,-9,-12,-11,-8,-8,-8,-2,-3,-3,-4
2019-06-04,11:02:22.807,4,6,0,4,3,4,2,1,0,-6,-9,-17,-21,-19,-11,-3,5,7,9,9,6,6,11,5,5,10,-9,-207,-506,-267,708,1202,1016,734,467,286,127,40,10,-8,-21,-33,-37,-43,-45,-42,-46,-54,-61,-60,-65,-71,-79,-89,-97,-110,-123,-134,-141,-146,-146,-142,-139,-127,-117,-105,-87,-72,-60,-57,-47,-47,-44,-40,-35,-29,-26,-21,-20,-21,-22,-16,-14,-17,-20,-22,-22,-24,-23,-25,-24,-22,-19,-19,-13,-14,-17,-15,-14,-10,-10,-8,-11,-8,-6,-4,-7,-4,-5,-7,-8,-5,-5,-8,-8,-3,-2,-3,1,1,-1,0,5,0,-6,-3,-7,-11
2019-06-04,11:02:23.831,4,8,21,23,20,12,11,11,14,13,14,18,-16,-257,-498,-84,856,1151,947,669,440,267,122,44,14,-4,-17,-29,-36,-37,-39,-44,-45,-42,-53,-56,-61,-71,-75,-82,-87,-100,-111,-112,-122,-128,-120,-118,-114,-102,-94,-86,-71,-66,-63,-58,-57,-53,-49,-44,-45,-44,-40,-37,-39,-35,-33,-34,-35,-29,-31,-32,-32,-27,-31,-33,-30,-24,-21,-19,-13,-18,-17,-15,-8,-9,-8,-13,-11,-10,-2,-7,-5,-3,-8,-9,-8,-9,-8,-12,-22,-23,-28,-31,-25,-18,-7,0,-2,-9,-4,-5,-4,-2,-2,-5,-66,-333,-496,73,892,983,793,529,351,192,70,15
2019-06-04,11:02:24.856,2,-17,-25,-30,-33,-38,-38,-41,-49,-53,-52,-63,-67,-69,-75,-76,-82,-92,-100,-105,-106,-107,-107,-103,-93,-86,-78,-67,-59,-58,-53,-56,-51,-53,-50,-46,-40,-38,-35,-28,-25,-28,-26,-31,-34,-31,-29,-27,-28,-29,-28,-23,-23,-22,-17,-13,-12,-11,-5,-7,-6,2,4,3,4,-6,-13,-18,-16,-15,-11,-13,-10,-13,-14,-9,-7,-5,-1,-3,-5,-8,-6,-5,-5,-10,-17,-24,-23,-25,-23,-16,-9,2,4,3,-2,-3,-4,-2,3,-1,-3,-100,-404,-512,283,1072,1095,861,568,365,197,67,16,-6,-23,-33,-41,-46,-46,-47,-55,-58,-59,-63,-67,-75
2019-06-04,11:02:25.881,-72,-82,-89,-96,-105,-109,-119,-127,-126,-125,-123,-117,-105,-92,-79,-68,-61,-54,-51,-43,-39,-31,-29,-23,-20,-17,-12,-12,-14,-12,-11,-16,-21,-26,-30,-28,-25,-24,-25,-26,-24,-24,-23,-19,-15,-16,-8,-6,-2,-6,-2,-4,-3,-6,-10,-7,-9,-9,-12,-10,-6,-8,-1,-8,-10,-7,-9,-10,-14,-24,-22,-29,-31,-20,-18,-3,-1,-2,-6,-4,-9,-3,0,-4,0,-52,-322,-531,1,912,1075,872,595,393,225,85,16,-6,-26,-40,-45,-48,-46,-48,-56,-61,-68,-66,-72,-75,-75,-85,-91,-101,-110,-113,-125,-134,-132,-133,-129,-120,-108,-96,-81,-66,-60,-59
2019-06-04,11:02:26.905,-58,-52,-50,-52,-48,-45,-38,-36,-30,-27,-28,-24,-30,-34,-39,-37,-37,-38,-32,-28,-28,-19,-18,-17,-22,-19,-17,-13,-16,-14,-14,-13,-8,-10,-10,-7,-8,-10,-7,-5,-3,-8,-13,-12,-14,-12,-12,-18,-18,-19,-18,-18,-26,-20,-7,0,9,16,1,-1,-4,-4,-1,-4,-3,-10,-173,-510,-386,624,1299,1165,851,550,330,142,41,6,-13,-31,-40,-47,-51,-52,-58,-65,-70,-76,-79,-83,-87,-96,-106,-119,-130,-142,-152,-159,-167,-167,-165,-161,-147,-142,-124,-104,-92,-78,-73,-66,-60,-56,-48,-39,-30,-26,-25,-22,-19,-20,-21,-21,-29,-31,-32,-35,-35,-34
2019-06-04,11:02:27.930,-38,-37,-35,-37,-31,-30,-29,-22,-19,-22,-20,-12,-13,-14,-11,-13,-8,-5,-3,-4,-6,-6,-10,-11,-9,-7,-3,-3,-7,-8,-11,-5,-6,-8,-8,-8,-8,-11,-7,-11,-18,-10,-14,-21,-17,-7,0,-2,-1,-7,-7,0,2,2,-1,-2,-68,-375,-564,170,1075,1209,955,641,405,221,84,23,-6,-21,-30,-37,-44,-51,-55,-59,-62,-64,-71,-74,-80,-88,-94,-108,-120,-130,-141,-150,-157,-161,-161,-159,-157,-144,-133,-113,-93,-79,-76,-68,-60,-56,-50,-42,-40,-34,-25,-18,-23,-24,-23,-25,-28,-30,-25,-25,-26,-32,-30,-32,-30,-26,-24,-19,-16,-15,-13,-11
2019-06-04,11:02:28.955,-18,-22,-19,-19,-13,-14,-18,-14,-15,-6,-5,-10,-10,-5,-9,-11,-11,-8,-8,-9,-10,-7,-9,-10,-8,-9,-6,-10,-9,-10,-17,-16,-22,-23,-18,-6,0,6,4,-1,-5,-2,-2,-6,1,1,-88,-377,-499,235,1009,1001,791,521,343,187,64,16,-8,-25,-33,-34,-38,-42,-44,-48,-57,-64,-65,-64,-67,-73,-85,-89,-99,-112,-122,-132,-142,-145,-142,-136,-128,-120,-109,-90,-71,-62,-57,-53,-52,-50,-42,-39,-38,-37,-36,-36,-34,-28,-27,-30,-29,-24,-23,-22,-20,-22,-23,-19,-21,-24,-17,-15,-22,-20,-16,-15,-16,-8,-12,-5,-6,-4,-8,-8,-8,-7
2019-06-04,11:02:29.980,-1,3,-2,-4,-4,0,0,0,0,0,-4,-4,-3,-2,-5,-4,-3,-4,0,-4,-10,-16,-18,-21,-24,-10,-3,4,12,10,1,0,0,3,3,-3,0,-69,-369,-563,179,1094,1262,974,651,410,221,78,27,-1,-16,-25,-33,-37,-43,-47,-54,-56,-62,-71,-77,-82,-87,-96,-107,-119,-132,-144,-156,-168,-167,-165,-163,-163,-155,-144,-125,-102,-87,-71,-60,-53,-50,-48,-38,-31,-27,-23,-17,-14,-15,-10,-15,-17,-19,-22,-25,-27,-27,-26,-29,-23,-21,-16,-16,-16,-15,-9,-4,-9,-12,-11,-5,-2,0,9,4,0,-4,-3,2,3,-1,3,5,6,4,6
2019-06-04,11:02:31.004,12,10,10,9,9,6,2,1,6,3,-2,-6,-7,-13,-12,-11,-5,4,9,7,-4,6,1,11,12,9,8,-69,-351,-462,243,980,999,792,527,345,188,60,12,2,-11,-21,-20,-23,-30,-35,-36,-37,-42,-47,-50,-57,-67,-77,-82,-90,-96,-100,-112,-112,-116,-115,-113,-109,-102,-91,-73,-70,-67,-55,-52,-53,-51,-52,-50,-48,-41,-36,-29,-26,-25,-28,-27,-23,-22,-25,-23,-29,-34,-35,-29,-27,-29,-23,-16,-25,-24,-19,-26,-29,-21,-21,-25,-25,-20,-14,-26,-19,-27,-32,-15,-14,-20,-23,-20,-23,-36,-47,-39,-35,-28,-23,-13,-10,-13,-22,-19,-17
2019-06-04,11:02:32.029,-7,-5,-7,-6,-60,-298,-443,63,828,856,687,462,314,179,72,12,-6,-21,-27,-30,-31,-35,-37,-40,-40,-43,-46,-48,-52,-55,-62,-71,-81,-88,-94,-99,-101,-102,-96,-89,-82,-71,-65,-55,-50,-45,-40,-42,-36,-42,-41,-36,-34,-39,-37,-29,-26,-24,-21,-18,-21,-19,-24,-23,-21,-22,-25,-20,-12,-11,-13,-14,-14,-13,-14,-9,-11,-14,-15,-10,-11,-10,-9,-7,-13,-14,-18,-23,-24,-24,-29,-22,-12,-4,0,2,0,-7,-6,-3,-1,-6,-5,-15,-171,-463,-368,544,1086,975,742,480,299,140,38,1,-8,-27,-30,-40,-42,-45,-52,-53,-56,-64,-71,-75
2019-06-04,11:02:33.054,-68,-76,-84,-88,-104,-115,-121,-132,-139,-138,-134,-127,-120,-110,-97,-84,-77,-71,-61,-53,-48,-44,-38,-31,-29,-22,-18,-23,-20,-19,-21,-23,-26,-21,-24,-27,-24,-20,-22,-25,-19,-14,-15,-14,-14,-12,-12,-5,-8,-5,-2,-9,-6,-3,-4,-3,-5,-2,-8,-17,-19,-25,-24,-29,-34,-15,-10,0,6,5,-1,0,-2,-1,0,-2,-1,-32,-270,-537,-99,850,1207,1012,705,447,257,103,35,11,-8,-23,-30,-39,-45,-44,-47,-47,-49,-55,-60,-65,-67,-81,-93,-103,-111,-118,-124,-129,-127,-129,-121,-123,-115,-99,-93,-83,-79,-74,-66,-59,-56,-49,-48,-39,-33,-33
2019-06-04,11:02:34.078,-20,-11,-10,-11,-14,-15,-15,-23,-32,-36,-31,-29,-21,-21,-12,-9,-10,-9,-4,0,-1,-6,-4,-7,-2,-9,1,-2,4,8,7,6,11,5,-2,-3,-7,-6,-12,-1,9,15,24,23,20,20,20,26,29,26,30,11,-186,-482,-220,729,1240,1124,827,547,344,171,77,50,39,23,10,9,3,2,-1,-1,-5,-8,-10,-15,-19,-21,-30,-44,-50,-57,-61,-69,-71,-68,-67,-58,-51,-42,-31,-20,-9,-10,-3,3,10,23,30,37,39,48,52,52,55,52,49,50,50,50,50,47,43,40,44,47,52,57,63,61,60,69,65,64,68,69,66,74
2019-06-04,11:02:35.103,-38,-36,-29,-30,-27,-26,-22,-25,-36,-50,-49,-60,-61,-58,-44,-29,-30,-36,-33,-31,-33,-35,-34,-37,-43,-206,-465,-399,440,891,782,623,395,247,114,19,-21,-36,-50,-64,-62,-62,-65,-63,-58,-58,-63,-64,-63,-70,-78,-81,-83,-89,-97,-102,-98,-101,-103,-102,-97,-96,-83,-75,-67,-67,-66,-64,-66,-63,-62,-60,-55,-50,-44,-42,-39,-38,-42,-34,-26,-30,-32,-26,-26,-27,-24,-24,-27,-22,-19,-18,-21,-20,-25,-28,-21,-21,-23,-19,-20,-14,-13,-12,-14,-19,-25,-26,-29,-31,-31,-28,-16,-1,1,-6,-13,-9,-8,-1,3,1,-19,-227,-531,-255,720,1222
2019-06-04,11:02:36.128,1083,780,500,296,130,40,9,-12,-27,-33,-39,-45,-47,-49,-54,-60,-58,-64,-68,-77,-83,-92,-109,-119,-133,-142,-148,-157,-157,-155,-147,-141,-130,-114,-102,-92,-85,-67,-60,-57,-50,-39,-34,-31,-27,-26,-22,-21,-21,-24,-32,-31,-32,-30,-31,-30,-30,-24,-23,-25,-24,-20,-17,-16,-16,-20,-18,-13,-10,-13,-17,-11,-8,-13,-11,-9,-9,-10,-13,-12,-17,-28,-26,-22,-31,-29,-26,-16,-2,-1,-8,-15,-11,-5,-6,-2,-4,-22,-212,-523,-309,679,1235,1120,819,520,307,132,39,13,-8,-21,-30,-36,-44,-49,-54,-56,-62,-62,-73,-76,-80,-87,-94,-109,-115,-122
2019-06-04,11:02:37.152,-59,-65,-71,-67,-69,-61,-55,-45,-34,-26,-12,-4,4,8,11,21,36,46,50,56,58,57,55,54,52,50,47,46,46,44,46,44,47,45,47,47,45,49,49,48,48,40,41,49,46,45,46,49,46,47,44,44,39,41,40,37,36,37,31,26,22,24,15,11,17,24,37,34,28,26,28,33,32,30,32,23,-132,-441,-382,558,1211,1154,888,580,368,187,76,40,15,1,-12,-18,-24,-32,-35,-40,-38,-43,-46,-51,-57,-63,-71,-80,-92,-100,-110,-119,-123,-119,-117,-120,-115,-107,-94,-83,-81,-82,-74,-68,-61,-58,-48,-45,-37,-29,-28,-26
2019-06-04,11:02:38.177,-49,-49,-53,-53,-46,-48,-52,-57,-54,-51,-49,-48,-47,-45,-39,-34,-39,-39,-35,-28,-28,-32,-29,-29,-27,-27,-24,-26,-29,-22,-24,-23,-26,-35,-32,-37,-40,-41,-30,-20,-18,-21,-18,-17,-14,-12,-7,-8,-24,-195,-442,-323,541,923,807,631,414,259,121,29,-3,-10,-27,-35,-45,-52,-56,-64,-62,-51,-57,-60,-70,-75,-72,-84,-88,-92,-105,-128,-117,-112,-125,-104,-90,-98,-84,-62,-53,-64,-59,-60,-68,-64,-64,-59,-64,-58,-56,-45,-44,-50,-45,-43,-51,-49,-51,-28,-42,-36,-20,-15,-21,-28,-9,-16,-22,-20,-19,-11,-21,-25,-23,-19,-10,-20,-22,-23
2019-06-04,11:02:39.202,-48,-56,-49,-51,-55,-66,-48,-21,-27,-18,-25,-18,-20,-26,-11,-6,-1,-106,-377,-430,289,870,842,688,444,289,148,49,6,-10,-28,-35,-40,-40,-41,-41,-48,-54,-51,-70,-75,-86,-86,-89,-84,-83,-98,-105,-105,-121,-129,-129,-126,-121,-105,-80,-75,-57,-39,-35,39,8,-46,-41,-35,-20,-25,3,35,19,14,-5,-47,-58,-13,58,65,44,33,66,46,6,2,-25,-1,91,108,151,115,132,144,88,92,90,73,54,37,37,41,26,18,25,24,45,48,41,39,38,30,16,9,11,1,-64,-317,-441,196,865,939,743,488,322,197,90,37,13,-6,-16
2019-06-04,11:02:40.226,-56,-69,-69,-81,-84,-95,-110,-125,-153,-178,-197,-230,-272,-300,-305,-287,-278,-268,-263,-263,-256,-243,-223,-192,-173,-143,-128,-108,-90,-75,-62,-58,-45,-39,-44,-34,-34,-41,-50,-49,-52,-48,-46,-49,-45,-41,-44,-41,-40,-36,-30,-23,-25,-32,-23,-17,-13,-3,0,-21,-6,12,23,17,7,6,10,-12,-17,-18,-25,-12,7,-3,2,10,5,6,-14,-20,-65,-348,-530,97,871,1031,892,592,388,248,116,34,-10,-27,-38,-49,-58,-64,-61,-52,-92,-97,-94,-87,-78,-93,-102,-124,-141,-134,-150,-171,-156,-146,-140,-126,-106,-105,-77,-39,-28,-11,-13,-7,-8,-11,-14,-10
2019-06-04,11:02:41.251,-64,-52,-55,-43,-40,-39,-39,-41,-33,-31,-28,-31,-37,-43,-42,-35,-35,-32,-30,-47,-58,-66,-65,-77,-77,-73,-65,-64,-72,-65,-69,-65,-58,-47,-36,-25,-24,-19,-26,-25,-23,-26,-25,-28,-25,-75,-348,-555,-11,775,1021,906,603,371,205,72,-3,-25,-49,-63,-66,-77,-80,-80,-81,-85,-88,-88,-88,-94,-98,-106,-115,-127,-137,-150,-159,-168,-181,-190,-197,-191,-192,-184,-154,-129,-110,-89,-72,-54,-48,-40,-29,-24,-19,-16,-13,-8,-17,-17,-21,-22,-22,-28,-29,-28,-30,-31,-30,-28,-24,-26,-28,-25,-23,-17,-20,-13,-9,-12,-18,-12,-18,-19,-19,-10,-2,1
2019-06-04,11:02:42.276,-95,-90,-90,-88,-80,-83,-81,-99,-311,-592,-362,432,985,1067,759,444,238,74,-23,-65,-90,-102,-108,-113,-115,-122,-117,-118,-117,-123,-130,-131,-143,-144,-151,-162,-176,-192,-209,-225,-236,-245,-249,-253,-252,-235,-211,-185,-161,-130,-98,-77,-60,-48,-38,-34,-28,-29,-21,-18,-28,-29,-21,-20,-31,-29,-29,-30,-30,-24,-23,-21,-18,-18,-17,-18,-18,-20,-19,-18,-20,-23,-26,-24,-22,-10,-5,-3,1,-2,-3,0,4,4,6,6,-1,-62,-310,-450,127,835,940,765,529,366,222,97,31,2,-15,-26,-37,-39,-34,-32,-34,-38,-45,-44,-53,-57,-68,-73,-79,-94,-110,-130
2019-06-04,11:02:43.300,-262,-263,-274,-277,-292,-292,-274,-256,-232,-210,-186,-170,-158,-149,-142,-132,-125,-114,-106,-106,-100,-99,-95,-93,-98,-102,-101,-107,-109,-104,-99,-99,-90,-81,-74,-67,-60,-53,-48,-39,-32,-30,-27,-31,-11,12,17,10,4,2,-5,-7,-6,-16,-14,-11,-12,-11,-70,-357,-533,126,860,1098,897,591,376,198,71,12,-23,-41,-45,-85,-65,-51,-69,-116,-65,-67,-89,-83,-89,-123,-107,-116,-110,-129,-159,-164,-169,-183,-171,-160,-175,-139,-108,-95,-79,-83,-48,-34,-49,-44,-46,-36,-35,-47,-52,-59,-59,-60,-65,-69,-76,-82,-87,-95,-88,-76,-65,-54,-54,-41,-31,-20,-17,-16
2019-06-04,11:02:44.325,-111,-116,-108,-97,-84,-74,-54,-44,-22,-2,1,-4,-8,-19,-31,-38,-78,-326,-535,-90,680,964,796,521,318,170,41,-23,-45,-59,-70,-76,-81,-85,-83,-87,-89,-94,-98,-100,-106,-114,-123,-137,-151,-164,-181,-192,-207,-216,-223,-224,-211,-196,-171,-141,-116,-89,-72,-62,-52,-46,-42,-38,-34,-27,-29,-20,-19,-28,-29,-17,-18,-21,-20,-25,-14,-26,-25,-12,-15,-6,2,-4,-5,2,-2,-12,-5,5,18,23,22,29,27,31,37,38,33,34,40,36,-47,-339,-452,209,906,1108,904,587,377,205,83,18,4,-6,-13,-23,-37,-38,-42,-42,-43,-53,-58,-56,-66,-75
2019-06-04,11:02:45.350,-161,-175,-195,-214,-230,-247,-265,-273,-279,-276,-268,-243,-222,-191,-165,-138,-112,-93,-79,-74,-70,-56,-45,-54,-60,-61,-55,-54,-60,-62,-53,-48,-50,-50,-46,-48,-49,-51,-49,-50,-59,-64,-65,-59,-49,-34,-33,-29,-25,-19,-17,-13,-5,1,5,2,2,-3,-142,-426,-362,414,1005,1148,880,553,333,152,44,0,-28,-43,-57,-63,-71,-78,-84,-90,-98,-99,-95,-96,-103,-113,-130,-145,-159,-167,-176,-194,-205,-213,-215,-214,-205,-204,-180,-155,-123,-106,-82,-59,-45,-33,-24,-25,-24,-13,-15,-15,-21,-19,-17,-27,-19,-14,-8,-3,0,5,4,0,6,2,2,16,24,21
2019-06-04,11:02:46.374,-59,-53,-57,-64,-64,-61,-59,-60,-56,-48,-73,-293,-522,-221,561,938,897,611,375,205,61,-9,-34,-56,-65,-69,-74,-74,-75,-77,-82,-86,-90,-95,-108,-127,-133,-146,-157,-178,-199,-214,-225,-229,-235,-234,-226,-212,-185,-158,-136,-115,-89,-70,-63,-50,-40,-43,-50,-40,-28,-25,-22,-28,-22,-21,-24,-24,-16,-4,-2,2,9,16,13,13,15,12,18,37,53,58,55,66,67,70,74,81,87,84,82,76,-83,-373,-294,479,1066,1223,925,603,388,213,115,87,64,44,33,23,16,14,13,5,-2,-9,-17,-23,-29,-41,-60,-77,-91,-108,-119,-131,-139,-147,-154,-156
2019-06-04,11:02:47.399,-391,-372,-344,-319,-287,-257,-223,-207,-186,-174,-162,-151,-145,-140,-135,-130,-133,-131,-128,-127,-119,-125,-129,-132,-131,-131,-134,-129,-116,-118,-110,-96,-88,-79,-79,-77,-75,-69,-61,-62,-57,-54,-50,-61,-217,-463,-360,437,869,819,576,362,191,63,-11,-34,-47,-61,-64,-68,-71,-70,-71,-74,-76,-75,-78,-85,-94,-103,-112,-122,-137,-151,-164,-176,-186,-193,-191,-190,-177,-152,-123,-94,-76,-55,-40,-38,-25,-22,-19,-20,-15,-14,-12,-5,-5,-4,-7,-4,-3,-6,-3,-2,-2,6,7,0,-5,3,12,19,26,24,25,18,21,23,21,23,29,28,16,-152,-419,-235,558,1060
2019-06-04,11:02:48.424,904,590,345,154,-1,-74,-97,-113,-125,-133,-137,-141,-143,-145,-151,-157,-164,-168,-169,-179,-190,-201,-216,-230,-243,-258,-272,-280,-281,-284,-276,-264,-236,-210,-180,-154,-128,-104,-94,-86,-73,-66,-63,-62,-55,-59,-56,-52,-48,-49,-45,-47,-46,-39,-36,-33,-29,-31,-34,-41,-33,-22,-15,-14,-11,-6,-16,-13,-9,-6,-4,-6,-3,-14,-174,-451,-298,480,1032,1089,755,485,277,109,38,3,-15,-23,-31,-35,-46,-52,-51,-58,-61,-66,-74,-81,-90,-102,-118,-133,-151,-166,-177,-185,-200,-207,-214,-213,-198,-179,-153,-125,-100,-87,-68,-42,-32,-28,-15,-14,-13,-9,-8,0,-1,2
2019-06-04,11:02:49.448,34,34,35,36,42,42,48,51,52,50,46,47,53,56,57,59,56,49,44,51,50,44,47,52,46,-95,-369,-305,451,1016,1147,834,549,336,160,85,59,38,22,18,17,4,0,-3,-7,-10,-17,-23,-35,-46,-65,-77,-88,-105,-119,-135,-146,-155,-162,-164,-166,-148,-129,-110,-86,-67,-48,-30,-21,-9,-1,-2,-1,1,6,3,8,9,5,5,11,13,13,13,16,13,14,12,5,0,6,15,20,19,20,21,19,22,21,27,30,22,27,-6,-223,-458,-121,625,1107,1067,703,443,235,81,28,1,-16,-22,-31,-39,-45,-53,-54,-61,-65,-68,-74,-85
2019-06-04,11:02:50.473,-92,-102,-119,-133,-149,-164,-175,-183,-191,-200,-198,-194,-189,-175,-159,-146,-127,-113,-94,-82,-72,-64,-60,-55,-52,-53,-50,-47,-46,-44,-45,-43,-40,-37,-32,-34,-36,-35,-38,-22,-12,0,7,13,16,21,24,26,28,29,35,53,63,43,-140,-363,-137,627,961,895,629,438,277,145,84,63,49,35,28,24,16,11,10,4,0,-1,-6,-16,-26,-36,-45,-58,-70,-85,-98,-104,-110,-111,-106,-95,-89,-71,-56,-49,-44,-38,-31,-25,-25,-18,-16,-11,-16,-14,-14,-16,-17,-17,-19,-19,-20,-14,-16,-13,-16,-19,-21,-22,-9,-5,-3,-2,-4,-6,-5,-5,-3,0
2019-06-04,11:02:51.498,87,84,42,-201,-384,110,802,1074,918,622,419,242,130,86,68,51,43,34,23,15,12,11,4,4,-2,-8,-20,-36,-48,-65,-78,-93,-110,-114,-126,-128,-127,-123,-113,-104,-84,-66,-61,-49,-41,-32,-32,-24,-13,-9,-12,-6,-7,1,1,-6,2,11,15,7,7,12,7,1,-1,-7,-12,-12,-5,1,7,5,3,-8,-4,0,-2,0,4,0,-125,-395,-381,359,934,1111,814,514,299,126,40,10,-16,-19,-29,-38,-41,-49,-48,-49,-55,-63,-66,-70,-76,-83,-91,-96,-112,-127,-135,-140,-146,-150,-148,-144,-135,-127,-112,-105,-98,-92,-87,-77,-67,-52,-45,-48
2019-06-04,11:02:52.522,77,77,74,77,75,78,81,78,81,74,74,75,73,72,60,58,60,69,70,77,76,72,68,72,73,72,70,64,62,-20,-293,-407,234,869,1158,935,606,391,204,98,63,44,23,18,13,7,3,-3,-7,-10,-12,-11,-21,-29,-37,-42,-50,-61,-73,-84,-90,-101,-104,-99,-94,-85,-78,-72,-68,-58,-49,-51,-45,-40,-35,-34,-28,-27,-26,-26,-24,-28,-21,-22,-25,-23,-26,-26,-24,-25,-21,-25,-29,-24,-16,-10,-9,-13,-10,-15,-16,-12,-10,-11,-10,-12,-127,-386,-394,340,878,924,667,434,260,113,31,6,-11,-25,-32,-35,-43,-46,-50,-57,-57,-61
2019-06-04,11:02:53.547,52,48,42,29,30,26,13,9,0,-7,-8,-4,-1,4,17,18,22,20,22,23,18,25,27,26,28,27,24,24,20,26,27,23,22,18,14,18,20,24,21,16,8,14,15,24,24,20,23,30,31,28,27,28,33,5,-183,-390,-133,624,923,785,518,348,197,89,34,15,0,-8,-13,-21,-22,-27,-23,-27,-32,-42,-38,-42,-52,-54,-65,-71,-75,-81,-88,-90,-87,-83,-81,-70,-59,-62,-54,-59,-63,-68,-63,-59,-52,-51,-48,-44,-47,-52,-49,-47,-53,-43,-44,-43,-43,-40,-38,-40,-37,-35,-47,-42,-43,-32,-23,-22,-21,-21,-29,-28,-18,-16
2019-06-04,11:02:54.572,66,64,58,-2,-261,-415,187,877,1116,875,578,384,212,103,71,48,37,26,9,2,8,4,-1,-6,-9,-15,-20,-26,-31,-38,-40,-51,-58,-67,-62,-65,-67,-62,-57,-52,-49,-51,-57,-58,-58,-46,-42,-33,-35,-30,-16,-23,-27,-30,-17,-24,-23,-24,-14,-14,-19,-17,-18,-11,-10,-9,-5,-7,-5,-6,-12,-15,-9,-19,-23,-16,-10,-4,-2,-3,-9,-8,-7,-7,-8,-9,-5,-38,-285,-495,-25,710,1124,978,618,396,203,65,16,0,-16,-30,-31,-42,-48,-53,-53,-50,-58,-57,-61,-70,-71,-76,-73,-83,-82,-90,-91,-89,-79,-80,-78,-72,-61,-53,-55,-59
2019-06-04,11:02:55.596,-7,-10,-12,1,0,-2,3,0,-8,-12,4,4,-9,10,7,-3,0,11,-1,7,0,0,-1,-6,15,18,12,9,13,-1,1,19,8,-7,11,4,-6,-1,0,-9,-22,-1,-7,-23,-2,7,-15,12,-7,-7,1,-1,-118,-374,-382,414,1002,1021,748,466,287,133,29,-10,-19,-29,-23,-40,-65,-40,-52,-69,-74,-47,-72,-76,-68,-77,-39,-82,-73,-53,-48,-55,-62,-48,-26,-34,-49,-18,-28,0,-32,-52,-48,-73,-44,-54,-58,-69,-57,-60,-59,-37,-42,-61,-36,-35,-47,-68,-45,-18,-37,-28,-30,-29,-34,1,-1,-25,-8,-27,-7,-28,-29,-23,2,-10
2019-06-04,11:02:56.621,0,15,10,0,9,-11,0,22,14,-5,14,17,-1,19,0,-8,6,-37,-213,-378,-17,705,720,478,339,234,123,58,24,-13,-36,2,-7,-18,-37,-21,-23,-21,-21,5,-10,-8,-25,-24,-4,10,-5,-6,13,10,12,54,73,54,84,89,64,50,40,14,-27,-23,-16,-40,-56,-43,-44,-59,-56,-42,-39,-41,-43,-53,-67,-50,-45,-42,-64,-54,-57,-50,-41,-49,-35,-42,-38,-42,-38,-42,-69,-32,-36,-36,-40,-35,-27,-28,-36,-38,-45,-26,-24,12,-18,-43,-170,-274,-67,416,397,222,147,105,48,14,-15,-17,-17,-23,-28,-19,-14,-11,-18,-9,-11,-15
2019-06-04,11:02:57.646,-26,-21,-17,-14,6,6,-3,7,15,27,45,51,64,80,78,72,58,34,12,-12,-10,-33,-42,-48,-71,-45,-42,-37,-41,-45,-42,-38,-38,-34,-42,-46,-41,-40,-39,-29,-30,-24,-37,-43,-54,-50,-32,-23,-20,-22,-28,-39,-29,-23,-33,-31,-32,-50,-38,-65,-173,-208,60,377,221,182,124,79,46,6,-24,-24,-17,-22,-23,-17,-19,-19,-17,-6,-7,-8,-15,-17,-15,-6,13,13,11,17,27,47,40,47,68,65,68,78,68,50,34,4,-20,-27,-41,-38,-39,-34,-46,-38,-36,-37,2,-7,-13,-19,-21,-43,-38,-53,-37,-28,-47,-19,-8,-24,-30,-7
2019-06-04,11:02:58.670,-60,-71,-54,-68,-74,-69,-58,-62,-63,-62,-45,-61,-68,-54,-58,-68,-67,-61,-67,-69,-63,-64,-69,-74,-70,-72,-66,-66,-66,-60,-63,-82,-66,-67,-83,-75,-81,-90,-100,-93,-85,-71,-64,-65,-58,-59,-56,-54,-47,-36,-37,-40,-48,-163,-418,-328,546,1130,902,551,346,231,107,16,-13,-32,-40,-41,-41,-40,-34,-29,-15,-21,-23,-31,-43,-48,-43,-42,-48,-56,-61,-73,-78,-86,-78,-63,-55,-40,-19,-13,7,13,6,4,5,5,8,7,2,-3,-12,-21,-26,-28,-32,-39,-48,-49,-51,-53,-39,-40,-47,-38,-31,-27,-27,-20,-16,-11,-3,-6,0,-6,-4,0
2019-06-04,11:02:59.695,-29,-31,-38,-37,-36,-38,-37,-34,-21,-30,-42,-42,-44,-42,-44,-47,-42,-45,-50,-42,-46,-52,-39,-43,-45,-45,-41,-38,-44,-42,-48,-50,-41,-40,-34,-28,-23,-28,-34,-27,-34,-32,-31,-29,-61,-249,-461,-164,777,1152,779,489,325,217,90,6,-19,-32,-45,-59,-58,-64,-67,-57,-51,-57,-56,-55,-55,-53,-57,-62,-64,-70,-66,-64,-62,-56,-57,-55,-48,-43,-40,-30,-26,-32,-48,-46,-43,-47,-47,-39,-35,-34,-24,-21,-10,2,-2,-11,-12,-12,-18,-17,-16,-24,-26,-28,-29,-23,-27,-25,-31,-35,-27,-38,-35,-37,-34,-42,-38,-35,-35,-32,-28,-25,-30,-28
2019-06-04,11:03:00.720,-37,-32,-34,-42,-37,-40,-43,-37,-28,-25,-11,-6,-12,-11,3,-2,-8,-13,-13,-25,-26,-29,-35,-37,-23,-24,-17,-4,7,9,17,25,23,18,13,1,-149,-493,-374,559,1252,1299,938,615,383,182,51,-23,-78,-110,-113,-102,-97,-96,-91,-92,-91,-81,-83,-87,-92,-98,-101,-87,-49,-14,11,19,0,-35,-69,-88,-97,-105,-91,-47,-25,-18,-7,-5,-12,-11,-25,-38,-30,-36,-41,-24,-28,-36,-55,-60,-52,-48,-40,-37,-48,-49,-38,-55,-51,-54,-67,-49,-57,-48,-49,-42,-33,-32,-33,-39,-44,-38,-31,-27,-17,-34,-40,-42,-46,-38,-31,-29,-27,-30,-22,-13
2019-06-04,11:03:01.744,-1,-5,-2,1,3,4,16,14,10,-6,-12,-22,-31,-49,-48,-50,-54,-46,-31,-34,-47,-65,-65,-59,-61,-58,-73,-115,-359,-470,198,1057,1123,723,457,312,182,54,-15,-40,-53,-67,-71,-70,-70,-77,-76,-78,-80,-83,-85,-94,-93,-95,-107,-107,-101,-102,-92,-82,-73,-66,-55,-46,-28,-23,-22,-13,-9,-7,-2,1,16,15,11,26,27,28,29,21,22,18,22,29,33,40,37,26,22,11,0,-1,2,6,11,2,9,18,30,37,37,26,27,28,34,30,30,27,18,12,11,15,3,5,4,-3,-4,6,12,6,25,37,36,42,44,45,38,28
2019-06-04,11:03:02.769,87,76,72,61,58,63,59,61,64,62,57,47,45,44,37,31,29,-84,-382,-369,459,1133,1122,799,536,358,186,65,24,-2,-23,-29,-34,-38,-38,-43,-40,-42,-49,-48,-51,-54,-58,-60,-65,-75,-78,-73,-74,-82,-78,-69,-59,-51,-42,-32,-34,-29,-31,-40,-39,-32,-20,-7,0,3,-3,-5,-11,-18,-22,-28,-27,-31,-35,-40,-41,-37,-39,-35,-30,-29,-26,-26,-20,-17,-17,-12,-10,-6,-9,0,6,6,3,-9,-15,-19,-19,-23,-25,-24,-22,-21,-27,-21,-23,-24,-21,-19,-25,-28,-26,-28,-29,-22,-27,-32,-28,-31,-32,-34,-31,-33,-35,-26,-18,-9
2019-06-04,11:03:03.794,26,31,31,29,25,27,21,0,-173,-445,-231,714,1243,999,653,434,279,129,36,1,-18,-30,-37,-40,-48,-47,-43,-45,-47,-50,-50,-48,-46,-51,-55,-60,-62,-67,-74,-83,-87,-93,-84,-82,-71,-52,-39,-25,-17,-8,-7,-3,6,11,19,14,7,-3,-15,-26,-32,-40,-45,-46,-50,-50,-46,-43,-43,-40,-33,-31,-31,-29,-26,-25,-23,-21,-23,-25,-19,-20,-19,-17,-16,-20,-18,-22,-27,-26,-21,-18,-24,-20,-18,-24,-28,-31,-31,-24,-27,-41,-38,-34,-40,-39,-32,-23,-22,-25,-26,-27,-33,-35,-34,-38,-37,-93,-352,-513,44,955,1159,778,493,329,189,59
2019-06-04,11:03:04.818,55,32,16,8,0,-4,-5,-13,-19,-28,-26,-32,-32,-28,-34,-35,-23,-32,-42,-38,-42,-50,-56,-58,-59,-60,-61,-58,-50,-45,-41,-42,-34,-27,-19,-11,-3,3,4,-7,-9,-10,-11,-15,-29,-36,-40,-42,-44,-40,-36,-36,-35,-40,-30,-18,-14,-9,-4,-1,-4,1,5,5,9,15,17,15,21,25,21,19,23,23,21,16,6,2,0,10,-6,16,33,36,30,32,34,28,24,36,36,35,40,37,32,30,16,24,24,22,2,-204,-475,-168,736,1225,1087,751,487,298,138,45,-1,-30,-50,-67,-67,-70,-66,-64,-61,-63,-62,-53,-60,-57,-64,-71
2019-06-04,11:03:05.843,43,33,27,19,6,-2,12,16,7,12,23,37,44,43,44,58,65,66,70,76,80,76,64,57,47,41,38,30,24,14,9,12,9,18,15,13,23,19,21,19,28,21,20,24,22,19,19,22,18,13,18,13,14,13,8,3,1,-2,0,-3,-1,-2,-4,-2,-3,-3,-4,-2,-4,-11,-10,-11,-11,-16,-16,-25,-42,-36,-16,-18,-13,-8,-12,-16,-16,-24,-15,-19,-34,-112,-375,-421,349,1167,1033,578,355,258,132,28,-23,-52,-58,-75,-85,-87,-83,-84,-96,-90,-91,-94,-98,-101,-102,-108,-111,-112,-113,-111,-113,-119,-114,-111,-112,-108,-105,-106
2019-06-04,11:03:06.868,-20,-23,-22,-15,-13,-1,7,17,27,24,27,18,13,7,2,-3,-10,-15,-16,-12,-8,0,15,28,44,63,77,78,64,52,43,33,26,30,34,31,32,30,34,34,36,36,35,33,36,40,40,35,31,28,22,18,12,12,8,2,6,8,11,14,19,14,6,9,10,5,6,-24,-222,-503,-238,710,1247,1061,715,476,300,134,36,-2,-26,-41,-49,-59,-61,-59,-70,-71,-67,-72,-76,-86,-90,-97,-100,-109,-114,-115,-124,-123,-121,-114,-110,-98,-82,-71,-59,-49,-40,-35,-30,-20,-14,-8,-2,-5,-14,-21,-25,-37,-45,-49,-56,-58,-53,-52,-53,-50
2019-06-04,11:03:07.892,-1,-2,3,4,2,0,3,6,11,16,17,23,27,36,37,34,35,41,47,42,40,38,30,27,23,14,16,15,14,4,1,0,-13,-17,-34,-39,-46,-50,-46,-44,-31,-32,-44,-46,-98,-359,-503,129,1003,1194,844,546,362,197,44,-21,-36,-43,-46,-61,-59,-52,-36,-42,-45,-50,-60,-70,-82,-85,-97,-106,-108,-118,-127,-135,-140,-143,-141,-143,-133,-127,-119,-108,-98,-98,-87,-85,-75,-64,-53,-47,-45,-43,-47,-52,-54,-53,-53,-66,-66,-64,-59,-52,-49,-40,-34,-25,-13,-6,7,9,15,19,16,7,9,13,16,6,3,2,-2,-5,0,8,7,12
2019-06-04,11:03:08.917,60,51,44,31,18,6,4,19,20,24,27,32,30,37,39,26,-91,-406,-398,463,1168,1190,843,558,369,196,72,29,8,-6,-13,-24,-26,-29,-36,-40,-45,-45,-46,-54,-63,-71,-81,-98,-105,-109,-120,-118,-122,-120,-118,-111,-104,-88,-76,-69,-60,-57,-48,-39,-30,-15,-19,-11,-8,-10,-15,-21,-29,-32,-33,-34,-34,-35,-35,-34,-24,-21,-14,-7,-1,7,12,21,22,16,14,10,8,2,2,0,-5,-22,5,-19,-25,-11,12,4,3,8,3,-2,0,0,2,1,4,4,-13,-143,-437,-380,502,1130,961,600,369,253,145,42,-10,-45,-71,-94,-100,-107
2019-06-04,11:03:09.942,-35,-38,-41,-53,-49,-36,-46,-49,-46,-49,-48,-56,-64,-67,-70,-79,-92,-83,-76,-65,-60,-49,-44,-36,-37,-38,-25,-13,-9,-4,0,7,0,1,-2,-10,-8,-9,-17,-19,-13,-14,-20,-14,-16,-12,-8,-6,-5,-7,-1,4,6,15,26,31,34,39,38,41,51,57,59,61,64,62,53,44,39,35,48,56,63,59,56,56,48,41,32,-21,-288,-520,-28,877,1259,1056,695,438,256,93,11,-15,-26,-39,-45,-42,-48,-56,-59,-58,-69,-71,-62,-66,-79,-87,-94,-102,-103,-103,-99,-110,-113,-111,-116,-111,-103,-98,-95,-86,-91,-92,-83,-86,-78,-64,-52,-58
2019-06-04,11:03:10.966,8,4,1,-6,-9,-16,-17,-20,-17,-11,-19,-15,-11,-9,0,7,11,15,22,16,23,24,20,27,27,36,36,37,37,31,30,25,21,21,14,10,13,22,22,22,17,6,19,15,10,13,0,-100,-360,-354,424,1117,1011,662,435,317,174,63,12,-8,-16,-23,-47,-39,-47,-53,-60,-68,-84,-97,-107,-123,-125,-106,-107,-120,-124,-133,-145,-141,-121,-115,-91,-88,-103,-113,-120,-131,-134,-130,-124,-117,-103,-91,-93,-91,-86,-88,-92,-91,-90,-89,-94,-95,-89,-92,-88,-84,-78,-75,-69,-69,-60,-58,-51,-55,-54,-52,-58,-59,-53,-51,-45,-39,-31,-31,-36,-31
2019-06-04,11:03:11.991,73,69,60,63,60,61,58,62,65,74,83,104,103,91,88,79,72,67,66,71,48,-176,-441,-17,943,1452,1261,893,626,411,221,108,62,31,11,-7,-22,-29,-37,-42,-49,-50,-58,-58,-59,-76,-89,-102,-109,-119,-126,-133,-141,-147,-146,-147,-142,-140,-132,-124,-111,-100,-86,-61,-45,-26,-12,-4,-1,-3,-4,-7,-16,-27,-38,-42,-43,-42,-44,-42,-39,-40,-37,-30,-20,-18,-20,-14,-12,-10,-5,-9,-11,-14,-13,-14,-17,-16,-16,-16,-16,-14,-15,-16,-12,-16,-10,-13,-10,-8,-10,-12,-15,-19,-19,-14,-8,-9,-6,-7,1,20,28,39,28,-60,-336,-418
2019-06-04,11:03:13.016,420,1228,1248,877,595,432,273,131,78,48,24,10,4,0,11,7,-3,-12,-25,-32,-41,-52,-69,-84,-95,-95,-105,-112,-113,-107,-105,-103,-97,-91,-74,-72,-67,-55,-53,-41,-27,-17,-9,1,8,14,12,11,0,-12,-18,-30,-41,-52,-54,-54,-56,-58,-50,-49,-48,-44,-46,-48,-45,-55,-54,-49,-50,-49,-44,-41,-38,-41,-37,-14,-4,-2,-1,4,1,10,7,-8,-2,0,-2,0,8,12,13,12,35,45,46,41,38,-5,-229,-476,-71,899,1289,961,620,418,254,83,-1,-26,-32,-40,-42,-49,-59,-63,-63,-69,-68,-68,-71,-72,-74,-76,-85,-98,-104,-111
2019-06-04,11:03:14.040,-49,-55,-58,-58,-57,-50,-40,-33,-26,-32,-29,-22,-7,7,27,38,51,62,57,64,57,42,33,25,16,12,4,-4,-1,0,-4,-3,-1,1,2,2,4,8,5,8,10,2,-2,0,5,-2,1,10,11,11,15,17,13,16,20,9,7,5,1,0,0,6,2,14,15,18,19,17,26,28,32,43,-18,-271,-449,127,1047,1276,863,563,400,250,105,47,38,17,0,-2,-14,-21,-28,-34,-38,-45,-48,-50,-56,-58,-72,-86,-99,-109,-125,-146,-157,-165,-164,-159,-144,-141,-144,-144,-133,-116,-105,-95,-78,-62,-52,-45,-48,-46,-45,-34,-39,-40,-41,-43
2019-06-04,11:03:15.065,-14,-15,-16,-20,-16,-18,-24,-22,-15,-11,-8,-7,-5,-7,-6,-4,2,15,39,6,38,18,12,8,5,14,24,34,37,44,48,61,58,46,39,27,16,11,14,24,42,50,59,67,76,78,78,75,66,-66,-412,-338,609,1353,1378,1011,681,456,262,136,89,69,51,37,24,13,7,-2,-12,-27,-41,-57,-74,-84,-88,-93,-89,-90,-97,-97,-103,-102,-97,-88,-75,-69,-58,-51,-36,-23,-10,20,38,53,67,71,71,69,57,48,47,45,50,52,40,40,29,28,32,30,28,30,36,34,41,42,46,51,66,78,74,92,98,98,103,105,105,101
2019-06-04,11:03:16.090,1,0,-1,-1,-2,-13,-17,-20,-28,-32,-34,-44,-49,-45,-40,-27,-20,-21,-20,-20,-18,-31,-20,-51,-286,-476,-15,890,1067,705,427,304,204,77,8,-13,-27,-30,-36,-35,-35,-44,-48,-54,-72,-98,-116,-120,-115,-124,-127,-119,-128,-139,-142,-135,-130,-131,-134,-136,-125,-116,-102,-98,-91,-75,-73,-70,-55,-48,-42,-34,-32,-35,-43,-51,-60,-69,-77,-76,-75,-77,-74,-70,-69,-66,-66,-65,-61,-55,-54,-58,-57,-61,-61,-61,-54,-50,-54,-42,-42,-44,-39,-38,-33,-32,-34,-41,-42,-48,-55,-48,-31,-18,-19,-20,-18,-16,-5,2,12,16,-67,-380,-425,417,1167,1287
2019-06-04,11:03:17.114,933,614,418,239,108,62,46,29,16,3,-17,-32,-44,-47,-49,-54,-52,-62,-71,-76,-96,-112,-129,-135,-146,-153,-158,-159,-157,-148,-140,-130,-126,-115,-102,-96,-81,-58,-39,-25,-14,-7,-7,-4,-19,-24,-29,-31,-35,-45,-52,-52,-56,-50,-53,-52,-47,-49,-50,-47,-46,-38,-36,-36,-31,-28,-26,-26,-20,-21,-10,-6,-9,-1,-3,0,0,-6,-1,-9,-7,-1,0,11,17,16,12,6,19,20,23,25,-12,-256,-487,4,927,1309,1033,693,458,275,110,31,7,13,1,8,-8,-18,-19,-31,-37,-48,-60,-64,-70,-77,-85,-95,-102,-108,-133,-157,-182,-202,-214,-216
2019-06-04,11:03:18.139,-148,-145,-142,-127,-97,-78,-53,-27,-1,9,31,52,46,30,27,30,22,15,20,18,23,25,32,29,28,33,37,36,34,36,36,39,40,40,34,37,33,29,30,29,28,20,22,21,7,9,8,5,11,24,28,27,15,16,22,28,30,33,36,-69,-370,-353,530,1270,1230,876,602,423,241,107,62,45,18,4,-4,-14,-17,-16,-3,8,19,21,11,-6,-27,-47,-63,-74,-92,-108,-116,-124,-120,-118,-117,-115,-109,-92,-72,-56,-50,-40,-29,-22,-21,-18,-24,-32,-38,-35,-42,-37,-31,-36,-37,-36,-29,-29,-32,-36,-34,-27,-27,-25,-27,-17,-17,-25
2019-06-04,11:03:19.164,-71,-66,-70,-70,-69,-71,-74,-75,-71,-74,-65,-58,-46,-46,-44,-49,-54,-47,-48,-47,-48,-47,-111,-370,-505,120,842,904,680,436,273,139,23,-27,-48,-57,-62,-76,-74,-75,-79,-83,-78,-75,-75,-79,-81,-91,-99,-85,-85,-96,-102,-97,-93,-98,-97,-88,-92,-80,-81,-75,-74,-68,-68,-64,-47,-43,-42,-46,-44,-46,-55,-58,-58,-65,-62,-66,-65,-62,-68,-73,-72,-76,-77,-79,-82,-81,-65,-52,-54,-37,-26,-29,-21,-18,-14,-12,-13,-5,-2,0,-2,-11,-15,-13,-11,-10,-4,-2,-5,-15,-171,-436,-319,508,977,897,663,431,270,125,31,3,-9,-17,-32,-41
2019-06-04,11:03:20.188,-117,-125,-128,-137,-143,-148,-155,-160,-168,-174,-175,-170,-172,-161,-162,-161,-154,-148,-141,-134,-125,-110,-92,-69,-52,-43,-36,-29,-28,-26,-21,-21,-23,-29,-25,-29,-34,-35,-31,-35,-34,-35,-30,-31,-26,-24,-26,-26,-23,-20,-23,-21,-15,-21,-18,-19,-21,-29,-30,-24,-15,-7,3,6,6,6,11,8,11,12,6,1,-13,-161,-442,-381,464,1009,1015,781,493,317,164,52,13,-8,-19,-33,-37,-38,-39,-43,-47,-47,-49,-51,-57,-63,-66,-77,-84,-89,-96,-101,-104,-109,-103,-102,-104,-94,-86,-77,-66,-59,-51,-47,-25,-20,-12,-1,-6,-10,-4,2,-9,-1,-1,-6
2019-06-04,11:03:21.213,-91,-91,-82,-93,-82,-62,-67,-64,-63,-64,-56,-55,-58,-63,-59,-59,-69,-80,-92,-81,-78,-77,-68,-61,-53,-56,-63,-73,-71,-65,-68,-71,-155,-436,-509,230,1028,1089,758,489,336,181,51,1,-18,-34,-41,-53,-62,-73,-75,-88,-92,-98,-104,-115,-124,-130,-138,-148,-156,-171,-179,-184,-187,-197,-195,-195,-186,-176,-153,-130,-111,-86,-69,-51,-42,-27,-26,-33,-39,-37,-49,-58,-61,-60,-61,-58,-51,-49,-49,-44,-34,-30,-22,-8,6,21,41,57,62,73,73,73,74,72,65,53,46,43,38,29,23,11,5,1,3,6,-22,-260,-520,-108,795,1255,1120,767,497,305
2019-06-04,11:03:22.238,108,13,-22,-45,-56,-65,-72,-78,-85,-87,-91,-90,-93,-91,-93,-97,-108,-129,-142,-155,-171,-181,-196,-201,-199,-189,-193,-189,-179,-163,-146,-124,-106,-85,-63,-48,-43,-40,-35,-36,-30,-33,-38,-36,-41,-48,-43,-44,-39,-34,-33,-31,-24,-20,-18,-18,-11,-7,-12,-13,-18,-7,2,11,12,13,19,12,8,6,5,3,3,6,3,-63,-344,-500,136,1023,1258,978,646,436,247,87,11,-22,-43,-66,-69,-73,-75,-74,-66,-67,-76,-89,-103,-113,-114,-113,-114,-122,-131,-148,-155,-162,-168,-171,-171,-172,-173,-160,-140,-122,-106,-84,-57,-38,-26,-13,-8,-12,-13,-21,-30,-41
2019-06-04,11:03:23.262,-20,-22,-29,-26,-28,-31,-31,-28,-28,-28,-28,-27,-21,-17,-11,-15,-17,-10,1,3,2,8,6,4,1,7,6,6,12,5,9,-19,-222,-488,-135,836,1286,1018,671,458,289,117,25,-8,-32,-47,-49,-44,-46,-48,-43,-36,-41,-44,-54,-56,-54,-58,-59,-65,-81,-97,-107,-119,-131,-135,-143,-143,-137,-127,-106,-84,-64,-45,-28,-17,-3,0,-3,-9,-8,-13,-17,-28,-31,-35,-36,-25,-22,-18,-22,-17,-13,-11,-8,-10,-6,-2,-3,-5,-15,-13,-6,-5,2,3,4,-7,-13,-10,-4,-1,-4,-6,-17,-150,-445,-373,515,1167,1091,752,495,334,156,46,4,-15
2019-06-04,11:03:24.287,7,-3,-14,-18,-20,-22,-25,-30,-36,-41,-44,-52,-58,-64,-78,-89,-91,-101,-111,-111,-120,-118,-102,-93,-85,-66,-54,-45,-25,-11,-5,7,9,12,5,-2,-1,-12,-22,-38,-54,-66,-75,-62,-43,-28,-21,0,2,-2,-2,-12,-20,-10,-12,-26,-35,-13,-12,-13,-7,3,5,6,9,22,28,35,40,41,31,7,-185,-456,-217,713,1188,999,679,444,269,109,13,-13,-29,-46,-56,-54,-54,-61,-60,-58,-59,-66,-77,-81,-97,-114,-121,-127,-145,-157,-167,-184,-189,-187,-186,-188,-175,-159,-145,-124,-98,-74,-56,-40,-25,-18,-21,-15,-14,-12,-2,1,3,4,11,24
2019-06-04,11:03:25.312,65,66,66,66,62,59,48,36,34,29,28,32,25,22,24,25,27,28,31,32,29,34,37,35,42,36,33,27,13,15,-13,-237,-481,-128,803,1219,1021,698,476,303,136,43,12,-2,-20,-39,-38,-45,-48,-41,-47,-57,-64,-78,-84,-99,-98,-105,-125,-136,-143,-160,-171,-171,-171,-167,-161,-156,-133,-109,-92,-76,-71,-50,-37,-30,-24,-26,-20,-27,-30,-30,-31,-36,-38,-40,-44,-41,-39,-41,-38,-33,-33,-26,-25,-27,-30,-37,-14,-22,-21,-11,-23,-17,-1,0,0,-3,-9,-8,-8,-15,-8,-3,-7,-16,-42,-199,-450,-283,651,1144,847,538,353,243,108,14
2019-06-04,11:03:26.336,8,-16,-38,-48,-49,-51,-52,-51,-55,-58,-60,-58,-58,-67,-72,-83,-90,-96,-105,-112,-122,-124,-123,-122,-123,-112,-94,-86,-63,-50,-44,-30,-21,-9,-2,-3,1,-1,-1,3,5,0,-1,2,-5,0,-4,-1,-1,1,4,1,0,3,4,6,12,21,23,28,37,55,80,98,100,103,101,87,73,71,65,57,56,70,83,27,-257,-406,251,1094,1318,1026,678,452,258,100,36,13,3,-11,-21,-28,-23,-14,-16,-9,2,-1,-1,-8,0,-6,-21,-38,-61,-76,-88,-87,-100,-106,-108,-99,-93,-80,-61,-40,-17,0,8,22,31,34,26,24,27,17,13,12
2019-06-04,11:03:27.361,-63,-66,-65,-66,-68,-64,-53,-46,-43,-36,-30,-23,-17,-14,-20,-13,-10,-17,-26,-23,-22,-14,-4,-11,-11,-8,-13,-16,-6,0,-2,-1,-4,-4,-92,-393,-472,301,1105,1209,892,586,393,206,63,39,18,5,-6,-22,-30,-27,-33,-39,-34,-54,-60,-62,-71,-93,-105,-111,-127,-146,-156,-164,-173,-172,-176,-175,-174,-159,-145,-127,-110,-95,-89,-83,-58,-58,-52,-52,-53,-55,-49,-48,-55,-56,-54,-53,-48,-43,-36,-38,-39,-31,-25,-26,-32,-28,-25,-23,-21,-16,-27,-35,-32,-36,-36,-33,-27,-29,-25,-15,-17,-13,-13,-7,-4,-12,1,-27,-224,-484,-180,798,1249,1001
2019-06-04,11:03:28.386,675,446,282,128,51,30,26,10,0,-10,-27,-36,-42,-46,-54,-60,-59,-69,-84,-94,-106,-113,-120,-134,-145,-155,-157,-156,-149,-137,-125,-117,-106,-95,-85,-74,-69,-65,-56,-55,-51,-45,-40,-32,-30,-27,-30,-30,-31,-35,-35,-38,-49,-62,-65,-59,-52,-40,-30,-16,-9,-10,-13,-22,-21,-26,-31,-26,-23,-30,-30,-34,-32,-37,-35,-39,-34,-29,-33,-99,-365,-480,145,831,881,678,444,282,147,37,-13,-33,-47,-56,-61,-64,-75,-85,-70,-73,-79,-89,-90,-96,-111,-124,-136,-128,-131,-141,-148,-143,-137,-136,-125,-114,-105,-89,-79,-71,-64,-61,-51,-43,-44,-46,-52,-54
2019-06-04,11:03:29.410,19,21,16,7,2,-4,-1,11,18,13,10,13,22,32,42,47,48,45,48,54,46,42,34,20,19,24,23,30,34,36,32,29,37,43,45,56,49,44,-9,-255,-454,31,928,1210,955,643,440,271,124,54,28,6,-7,-14,-17,-27,-32,-37,-42,-42,-48,-57,-69,-83,-85,-106,-115,-129,-141,-156,-164,-174,-179,-175,-175,-162,-146,-121,-99,-86,-60,-40,-25,-11,0,5,3,8,14,7,5,12,15,18,27,36,39,45,48,45,32,20,17,5,-4,-10,-13,-5,-3,-12,-14,-9,3,16,20,26,33,25,18,9,10,4,7,3,1,-54,-325,-515
2019-06-04,11:03:30.435,42,790,1063,928,625,397,222,86,20,-8,-25,-45,-58,-56,-66,-67,-67,-68,-71,-75,-80,-88,-93,-101,-114,-130,-141,-152,-159,-173,-180,-179,-171,-159,-151,-138,-130,-110,-88,-69,-50,-40,-34,-25,-24,-20,-23,-26,-21,-26,-29,-30,-18,-12,-21,-11,2,0,-8,-10,4,1,0,3,9,1,8,-4,-12,-9,-2,10,19,20,4,-2,-6,0,-6,-3,-2,-8,-13,-44,-204,-444,-255,679,1105,794,488,313,204,70,-9,-37,-65,-67,-58,-74,-73,-80,-86,-88,-91,-94,-96,-99,-92,-86,-93,-112,-120,-123,-132,-142,-156,-158,-155,-151,-140,-123,-110,-94,-77,-74,-78,-66
2019-06-04,11:03:31.460,-49,-43,-43,-49,-47,-46,-41,-42,-40,-45,-46,-35,-40,-44,-34,-26,-17,-11,-4,-1,4,4,5,14,19,23,28,34,38,33,33,30,21,12,19,21,26,33,27,27,-24,-299,-466,124,995,1218,932,614,423,246,100,32,0,-25,-43,-53,-58,-62,-66,-67,-67,-64,-55,-55,-63,-71,-86,-103,-123,-145,-164,-167,-168,-165,-161,-152,-145,-129,-117,-102,-82,-70,-58,-54,-48,-40,-37,-34,-27,-28,-33,-38,-37,-45,-47,-44,-43,-37,-37,-34,-25,-26,-21,-15,-12,-7,-3,-7,-2,0,0,2,9,10,13,15,11,0,0,1,3,4,4,8,-28,-246,-481,-114
2019-06-04,11:03:32.484,839,1240,1021,688,446,283,137,60,32,11,0,-12,-13,-25,-35,-44,-49,-57,-65,-75,-94,-108,-109,-122,-137,-152,-158,-172,-181,-183,-186,-185,-180,-167,-154,-141,-126,-111,-90,-70,-60,-64,-54,-42,-37,-31,-35,-34,-37,-33,-29,-32,-32,-24,-25,-26,-23,-22,-18,-26,-20,-17,-9,-10,-10,-20,-23,-14,-4,-4,1,3,-2,-2,2,2,-3,-2,0,-5,-11,-120,-433,-418,459,1163,1151,811,527,341,166,55,10,-7,-17,-18,-19,-20,-18,-19,-27,-30,-37,-42,-46,-50,-61,-68,-79,-85,-89,-94,-100,-106,-105,-110,-119,-126,-128,-113,-95,-82,-54,-41,-24,-12,-8,-15
2019-06-04,11:03:33.509,6,6,17,11,16,13,18,17,25,22,17,14,6,8,21,30,35,41,44,38,37,33,36,31,38,45,46,44,39,34,28,28,25,26,22,30,13,-174,-409,-166,662,989,816,593,399,255,127,48,25,22,10,0,0,-3,-5,-10,-11,-14,-16,-12,-21,-27,-37,-45,-51,-62,-72,-77,-78,-78,-75,-77,-75,-52,-40,-40,-33,-18,-19,-15,-6,-2,4,0,3,1,-10,-8,-8,-4,-8,-14,-13,-14,-13,-10,-8,-1,-2,-12,-19,-25,-29,-27,-23,-17,-10,-4,-9,-13,-19,-23,-23,-29,-21,-26,-20,-23,-65,-279,-471,-45,871,1136,828,534,367,222
2019-06-04,11:03:34.534,54,-11,-35,-57,-70,-69,-72,-80,-88,-83,-88,-93,-103,-112,-118,-122,-132,-142,-150,-164,-186,-192,-199,-219,-218,-217,-201,-179,-160,-140,-118,-98,-81,-67,-56,-43,-36,-32,-34,-38,-35,-34,-32,-30,-26,-18,-3,0,5,2,-3,-6,-9,-12,-11,-8,-4,1,13,20,28,29,35,33,29,21,11,6,13,14,12,17,21,25,4,-171,-456,-308,549,1051,1051,776,494,310,152,44,4,-15,-26,-28,-32,-38,-40,-37,-32,-36,-40,-52,-68,-74,-85,-99,-119,-127,-140,-160,-166,-158,-155,-156,-147,-142,-123,-103,-92,-81,-69,-58,-52,-47,-31,-25,-20,-14,-18,-20,-16,-9
2019-06-04,11:03:35.558,-46,-43,-31,-32,-36,-37,-35,-34,-37,-33,-26,-25,-23,-22,-20,-23,-3,8,17,7,12,-2,-17,-7,-3,-9,0,-5,3,-3,-88,-369,-440,299,942,961,747,484,305,151,32,-5,-25,-41,-52,-59,-67,-78,-83,-84,-82,-81,-85,-93,-92,-110,-120,-127,-139,-166,-165,-159,-151,-150,-141,-127,-110,-92,-71,-71,-57,-47,-46,-41,-39,-35,-30,-35,-38,-39,-38,-40,-40,-39,-35,-33,-35,-35,-31,-34,-32,-26,-28,-35,-38,-42,-46,-47,-42,-32,-24,-30,-30,-29,-40,-37,-37,-31,-28,-26,-25,-32,-138,-426,-440,387,1099,1082,746,489,334,183,84,41,27,17,9,8
2019-06-04,11:03:36.583,-27,-34,-37,-44,-54,-65,-76,-87,-94,-110,-123,-138,-156,-166,-171,-171,-180,-182,-180,-167,-155,-144,-126,-113,-96,-80,-66,-64,-67,-56,-49,-42,-37,-42,-50,-42,-40,-41,-42,-44,-42,-40,-42,-42,-43,-35,-32,-30,-38,-41,-46,-49,-35,-27,-21,-19,-13,-26,-20,-18,-16,-14,-8,-8,-14,-119,-424,-438,394,1107,1126,804,515,336,159,40,3,-14,-28,-43,-48,-56,-65,-72,-70,-72,-74,-78,-78,-85,-91,-98,-110,-122,-129,-127,-139,-145,-134,-132,-117,-108,-104,-97,-75,-68,-62,-45,-25,-16,-15,-14,-22,-28,-31,-39,-32,-37,-46,-45,-50,-55,-48,-46,-46,-40,-33,-34
2019-06-04,11:03:37.608,-81,-81,-76,-83,-75,-76,-55,-59,-55,-56,-63,-56,-45,-39,-35,-25,-21,-26,-104,-373,-458,255,898,997,791,506,307,147,29,-15,-41,-58,-71,-74,-78,-76,-89,-90,-96,-102,-110,-117,-122,-138,-149,-149,-164,-169,-182,-188,-189,-192,-184,-174,-163,-145,-128,-105,-85,-64,-50,-35,-26,-23,-18,-15,-13,-9,-10,-17,-20,-18,-16,-11,-9,-8,0,6,9,8,14,10,2,-5,-6,-13,-16,-17,-20,-8,3,9,9,17,22,23,17,14,9,3,8,4,-29,-254,-467,-83,718,997,821,570,375,229,102,41,25,4,-7,-15,-33,-38,-39,-36,-42,-45,-50,-52,-51,-59
2019-06-04,11:03:38.632,-128,-138,-153,-157,-153,-159,-164,-164,-156,-149,-137,-128,-112,-101,-101,-97,-87,-79,-71,-63,-57,-52,-52,-62,-55,-54,-52,-53,-51,-51,-48,-49,-46,-47,-40,-41,-44,-47,-44,-47,-43,-40,-37,-29,-18,-11,-11,-16,-14,-21,-23,-19,-13,-18,-22,-26,-53,-229,-489,-299,566,975,833,581,354,204,72,-8,-29,-40,-45,-59,-71,-78,-86,-89,-93,-102,-106,-112,-113,-112,-112,-121,-131,-145,-149,-150,-154,-150,-151,-152,-147,-135,-132,-128,-114,-107,-101,-87,-75,-65,-66,-59,-55,-57,-50,-46,-41,-41,-42,-42,-36,-26,-24,-16,-11,-9,-11,-16,-12,-11,-17,-20,-23,-24,-26,-20
2019-06-04,11:03:39.657,-59,-61,-58,-57,-54,-39,-35,-28,-24,-19,-10,-6,-122,-419,-418,385,996,1057,823,507,301,139,20,-25,-50,-78,-94,-103,-103,-102,-96,-93,-92,-86,-84,-87,-89,-86,-95,-107,-120,-139,-161,-177,-188,-193,-198,-190,-180,-164,-149,-125,-104,-85,-64,-51,-41,-37,-32,-35,-35,-38,-43,-47,-44,-42,-39,-31,-25,-21,-21,-16,-14,-16,-13,-14,-16,-15,-18,-14,-14,-15,-11,-4,6,15,18,16,18,13,16,19,9,4,-3,-6,-60,-308,-502,13,966,1243,927,603,423,267,120,37,-4,-38,-54,-54,-60,-55,-53,-55,-63,-75,-92,-106,-119,-133,-137,-144,-152,-155,-154,-158
2019-06-04,11:03:40.682,-213,-211,-204,-197,-188,-167,-154,-139,-125,-110,-99,-86,-75,-69,-66,-57,-54,-62,-66,-71,-74,-73,-74,-77,-79,-78,-78,-78,-76,-74,-70,-70,-64,-64,-64,-60,-59,-62,-54,-43,-32,-30,-25,-19,-14,-12,-6,0,6,12,7,1,-102,-385,-431,304,1031,990,668,411,274,138,36,6,-10,-27,-44,-56,-60,-66,-62,-57,-70,-70,-77,-80,-91,-103,-113,-120,-134,-148,-156,-167,-172,-173,-175,-167,-151,-128,-111,-93,-83,-77,-67,-60,-50,-47,-41,-42,-43,-49,-48,-47,-49,-53,-52,-52,-43,-41,-44,-37,-36,-29,-29,-19,-18,-16,-11,-13,-15,-20,-26,-22,-18,-10,-9,-11
2019-06-04,11:03:41.706,-67,-73,-72,-70,-64,-47,-45,-39,-38,-138,-426,-435,400,1116,1101,769,482,297,132,16,-36,-63,-82,-94,-102,-108,-109,-110,-98,-91,-97,-98,-103,-119,-118,-125,-145,-163,-173,-194,-219,-238,-248,-245,-238,-218,-195,-168,-138,-117,-104,-79,-54,-43,-40,-33,-29,-30,-35,-37,-40,-43,-48,-42,-47,-49,-48,-48,-43,-32,-30,-24,-22,-20,-15,-17,-10,-16,-17,-17,-15,-15,-7,-1,2,4,3,-5,-4,0,0,2,5,3,-34,-271,-492,-44,863,1259,1102,759,493,308,149,61,27,8,-6,-15,-20,-35,-42,-54,-65,-81,-97,-104,-115,-124,-126,-124,-134,-139,-145,-142,-144,-149
2019-06-04,11:03:42.731,-205,-212,-215,-208,-194,-183,-172,-155,-136,-120,-110,-95,-85,-84,-74,-79,-80,-81,-84,-83,-81,-86,-90,-93,-87,-83,-88,-85,-78,-67,-66,-60,-55,-57,-54,-53,-64,-64,-61,-51,-46,-39,-33,-35,-34,-29,-32,-25,-23,-32,-38,-71,-301,-487,-54,886,1142,836,531,347,198,66,4,-18,-30,-35,-40,-48,-47,-47,-43,-44,-42,-48,-59,-64,-73,-86,-97,-112,-120,-128,-141,-141,-146,-145,-141,-132,-123,-105,-94,-83,-71,-59,-49,-43,-37,-35,-41,-47,-56,-71,-67,-64,-70,-65,-57,-48,-48,-38,-31,-28,-27,-21,-17,-13,-15,-24,-20,-30,-29,-27,-20,-20,-19,-7,-12,-22
2019-06-04,11:03:43.756,-56,-47,-41,-39,-45,-44,-70,-272,-482,-134,820,1152,874,559,373,226,89,23,-4,-16,-23,-36,-49,-50,-56,-66,-73,-87,-91,-96,-106,-113,-119,-124,-126,-123,-126,-125,-124,-125,-119,-121,-117,-103,-88,-75,-58,-45,-31,-24,-18,-19,-19,-22,-21,-31,-42,-49,-60,-72,-77,-73,-69,-63,-49,-38,-31,-25,-23,-24,-30,-32,-32,-30,-27,-32,-33,-29,-23,-22,-22,-20,-28,-36,-37,-36,-28,-31,-29,-35,-107,-390,-485,208,1007,1101,802,507,325,163,35,-18,-36,-50,-59,-60,-66,-72,-71,-73,-82,-84,-80,-90,-105,-109,-119,-132,-143,-158,-163,-174,-179,-179,-184,-178,-165,-152
2019-06-04,11:03:44.780,-221,-199,-182,-167,-147,-125,-112,-106,-98,-97,-95,-88,-83,-80,-83,-81,-79,-74,-71,-67,-60,-62,-55,-50,-47,-43,-40,-38,-39,-46,-51,-53,-52,-45,-44,-47,-50,-41,-36,-37,-36,-44,-36,-34,-43,-43,-85,-337,-526,-16,888,1144,871,547,333,165,18,-41,-64,-71,-78,-82,-82,-82,-76,-70,-66,-69,-76,-83,-98,-107,-119,-139,-146,-155,-165,-177,-181,-180,-177,-174,-151,-129,-114,-93,-77,-67,-50,-29,-22,-14,-11,-7,-2,-6,-14,-9,-9,-11,-16,-17,-14,-16,-10,-12,-10,-2,4,10,12,21,17,20,16,18,25,28,26,21,23,18,20,18,9,11,3,0
2019-06-04,11:03:45.805,-160,-285,-546,-498,313,913,749,453,233,119,4,-77,-114,-124,-135,-144,-156,-157,-157,-162,-166,-168,-173,-177,-182,-186,-191,-199,-202,-203,-193,-183,-189,-182,-184,-189,-185,-179,-167,-154,-140,-131,-118,-110,-96,-88,-85,-86,-88,-76,-77,-81,-75,-71,-69,-70,-74,-71,-68,-68,-61,-63,-64,-61,-49,-49,-40,-31,-21,-6,0,10,14,10,9,9,11,15,15,16,15,0,-100,-378,-429,335,1110,1085,734,459,306,154,40,-1,-15,-18,-18,-20,-27,-35,-36,-45,-54,-69,-83,-96,-104,-109,-119,-113,-115,-125,-129,-121,-123,-130,-126,-112,-96,-71,-51,-36,-21,-13,-8,-4,-1,-1
2019-06-04,11:03:46.830,-178,-167,-166,-168,-168,-170,-165,-160,-160,-164,-157,-155,-151,-148,-137,-128,-120,-113,-109,-106,-105,-103,-109,-102,-89,-79,-80,-78,-79,-82,-82,-80,-73,-70,-66,-64,-71,-199,-490,-423,458,1100,1120,833,534,351,175,50,6,-21,-42,-58,-68,-80,-86,-91,-96,-115,-121,-129,-138,-142,-142,-142,-150,-160,-159,-162,-162,-156,-159,-161,-150,-150,-148,-131,-121,-113,-94,-82,-73,-61,-46,-41,-40,-34,-26,-28,-23,-18,-27,-26,-26,-37,-34,-34,-39,-46,-40,-35,-37,-36,-33,-32,-31,-18,0,5,10,8,7,-9,-15,-8,-13,-14,-19,-4,-18,-183,-443,-240,714,1216,990,657,438,289
2019-06-04,11:03:47.854,35,-50,-77,-89,-102,-104,-112,-126,-126,-124,-118,-123,-145,-167,-194,-195,-200,-205,-199,-192,-197,-202,-208,-207,-209,-212,-209,-205,-201,-188,-177,-167,-150,-133,-116,-102,-85,-82,-79,-82,-80,-71,-73,-75,-77,-75,-75,-72,-70,-68,-68,-70,-72,-78,-80,-80,-77,-65,-57,-49,-42,-40,-41,-35,-32,-26,-27,-22,-19,-26,-103,-368,-443,280,1078,1080,721,448,305,153,45,3,-19,-36,-47,-46,-57,-58,-58,-58,-64,-66,-70,-69,-74,-76,-85,-93,-100,-102,-102,-102,-102,-101,-99,-87,-74,-60,-45,-34,-24,-19,-14,-1,-1,4,6,1,-6,-8,-18,-23,-23,-35,-51,-57,-63,-69
2019-06-04,11:03:48.879,-124,-123,-113,-102,-89,-86,-79,-76,-63,-54,-59,-68,-72,-82,-80,-82,-79,-75,-67,-68,-75,-202,-479,-412,474,1100,983,647,401,234,86,-10,-48,-71,-82,-86,-94,-100,-91,-86,-98,-99,-99,-95,-100,-102,-107,-119,-131,-140,-158,-168,-172,-177,-178,-175,-167,-154,-135,-119,-94,-76,-52,-25,-8,-1,0,5,9,7,6,2,0,-5,-17,-19,-22,-33,-35,-36,-34,-33,-40,-45,-33,-30,-23,-8,2,12,24,28,23,16,11,7,9,8,0,-15,-12,-43,-254,-516,-200,651,1056,973,685,428,260,111,32,13,-7,-22,-28,-38,-41,-43,-53,-52,-55,-62,-65,-66,-73,-91
2019-06-04,11:03:49.904,-161,-165,-170,-177,-187,-189,-196,-194,-193,-177,-162,-149,-134,-119,-96,-82,-69,-51,-45,-39,-33,-26,-30,-37,-35,-36,-34,-40,-42,-40,-48,-47,-53,-60,-59,-59,-61,-58,-43,-31,-21,-8,0,-3,-16,-33,-38,-44,-50,-48,-51,-43,-31,-51,-266,-473,-114,682,905,724,491,308,168,55,-8,-31,-38,-45,-46,-48,-50,-42,-48,-55,-63,-78,-83,-88,-98,-110,-109,-113,-112,-115,-112,-104,-102,-92,-85,-84,-75,-71,-73,-63,-51,-47,-44,-40,-33,-30,-29,-30,-36,-36,-38,-42,-38,-44,-40,-41,-36,-32,-20,-18,-19,-17,-14,-8,7,13,18,16,14,11,10,14,11,10
2019-06-04,11:03:50.928,-16,-17,-23,-102,-369,-452,257,1055,1046,693,425,283,139,35,-6,-28,-34,-36,-50,-63,-68,-82,-100,-114,-129,-143,-153,-147,-150,-145,-135,-141,-144,-146,-146,-142,-145,-140,-138,-132,-125,-117,-113,-98,-82,-75,-64,-52,-52,-49,-53,-50,-51,-55,-50,-52,-50,-52,-45,-47,-43,-42,-39,-39,-33,-27,-27,-26,-23,-21,-10,0,2,1,-3,-5,-10,-8,-2,0,6,10,9,-82,-385,-443,320,1060,1211,945,640,443,268,126,54,15,-16,-40,-49,-53,-65,-81,-96,-108,-114,-125,-137,-142,-145,-144,-138,-135,-145,-151,-158,-161,-162,-164,-169,-164,-152,-145,-135,-120,-104,-94,-76,-65
2019-06-04,11:03:51.953,-40,-33,-30,-32,-34,-32,-32,-30,-36,-38,-41,-43,-39,-38,-39,-43,-35,-31,-29,-31,-27,-16,-6,-6,0,8,5,-3,-1,3,3,4,7,3,-39,-267,-467,-28,895,1223,980,648,446,277,129,59,30,12,0,-12,-20,-27,-34,-37,-44,-47,-52,-60,-58,-67,-68,-70,-84,-104,-116,-123,-132,-126,-110,-99,-91,-80,-73,-70,-79,-74,-83,-87,-84,-82,-74,-64,-57,-57,-48,-40,-37,-38,-35,-31,-35,-33,-30,-33,-33,-33,-35,-41,-42,-41,-28,-21,-8,-17,-23,-21,-15,-21,-20,-13,-16,-11,-16,-157,-425,-325,585,1181,1013,667,436,288,140,42,8,-16,-25,-38
2019-06-04,11:03:52.978,-23,-32,-33,-39,-41,-45,-52,-63,-68,-74,-78,-73,-73,-72,-76,-81,-78,-70,-67,-62,-55,-40,-33,-31,-16,-2,8,12,13,9,3,-4,-12,-25,-38,-42,-50,-54,-53,-49,-41,-31,-18,-12,-8,-12,-14,-23,-36,-33,-32,-30,-23,-24,-22,-31,-26,-21,-19,-26,-30,-35,-60,-263,-499,-172,770,1138,915,592,380,218,76,3,-20,-36,-52,-56,-64,-65,-68,-73,-75,-78,-82,-86,-91,-98,-111,-125,-136,-143,-152,-156,-156,-162,-161,-148,-142,-137,-121,-100,-93,-79,-62,-50,-42,-29,-24,-21,-27,-27,-30,-32,-27,-32,-39,-30,-29,-24,-17,-10,-5,-8,-1,1,-2,-10
2019-06-04,11:03:54.002,62,63,65,73,69,66,61,50,49,42,44,43,38,35,10,-230,-441,42,967,1263,1027,689,465,289,139,62,32,7,-7,-29,-56,-64,-70,-80,-73,-70,-64,-55,-52,-51,-60,-73,-87,-91,-101,-105,-117,-121,-120,-117,-108,-100,-84,-77,-71,-48,-39,-34,-25,-23,-20,-22,-22,-28,-27,-24,-35,-34,-25,-27,-29,-21,-18,-13,-13,-13,-12,-10,-8,-7,-16,-16,-17,-16,-19,-26,-27,-35,-37,-24,-18,-9,-3,7,12,-73,-345,-417,308,1084,1068,725,463,322,191,73,12,-27,-58,-84,-92,-98,-102,-108,-120,-130,-138,-133,-137,-139,-130,-130,-129,-131,-140,-152,-156,-153
2019-06-04,11:03:55.027,-130,-126,-122,-113,-102,-101,-93,-100,-98,-86,-77,-81,-87,-80,-74,-83,-79,-84,-88,-87,-84,-84,-91,-86,-83,-79,-75,-72,-72,-68,-71,-70,-61,-46,-30,-18,-26,-25,-26,-23,-24,-20,-17,-13,-8,-21,-162,-440,-329,600,1201,1037,675,438,283,125,32,-2,-20,-30,-37,-51,-57,-65,-65,-66,-76,-79,-93,-99,-100,-117,-132,-140,-145,-150,-150,-155,-155,-147,-146,-142,-128,-115,-105,-98,-92,-84,-70,-67,-72,-78,-85,-89,-84,-76,-73,-72,-69,-60,-55,-51,-42,-34,-32,-31,-29,-26,-25,-25,-30,-34,-39,-21,-22,-18,-9,-7,-15,-17,-18,-20,-15,-11,-7,-5,-73,-361
2019-06-04,11:03:56.052,-637,5,831,1093,862,511,294,117,-22,-77,-100,-119,-127,-139,-145,-150,-153,-165,-174,-177,-182,-184,-185,-189,-190,-194,-197,-205,-207,-209,-211,-202,-184,-160,-131,-102,-87,-83,-91,-98,-108,-113,-120,-124,-129,-121,-124,-128,-116,-115,-113,-97,-89,-77,-68,-64,-60,-64,-63,-66,-68,-67,-62,-63,-56,-42,-38,-31,-30,-31,-32,-36,-33,-41,-41,-33,-35,-50,-190,-463,-363,534,1108,970,651,407,258,107,13,-15,-37,-46,-53,-64,-59,-62,-64,-61,-61,-69,-70,-79,-80,-90,-96,-94,-104,-115,-121,-117,-119,-119,-118,-109,-100,-82,-79,-75,-65,-58,-44,-34,-25,-28,-24,-18,-21,-22
2019-06-04,11:03:57.076,-203,-196,-194,-196,-191,-183,-180,-183,-179,-167,-167,-172,-174,-174,-176,-178,-160,-161,-150,-151,-149,-155,-156,-152,-145,-125,-121,-121,-133,-251,-509,-464,351,946,753,435,237,136,14,-66,-91,-102,-106,-110,-109,-108,-112,-108,-112,-112,-119,-129,-128,-137,-146,-152,-165,-168,-182,-180,-185,-186,-183,-179,-172,-151,-131,-116,-98,-83,-63,-52,-40,-37,-30,-32,-31,-23,-17,-14,-19,-14,-19,-21,-18,-12,-9,-8,4,6,7,4,0,-12,-23,-30,-36,-29,-24,-19,-14,-2,0,8,16,6,-5,-10,-23,-44,-225,-481,-277,656,1138,962,646,418,260,114,20,-5,-23,-31,-37,-47,-52,-55
2019-06-04,11:03:58.101,-177,-182,-190,-186,-190,-190,-194,-199,-201,-211,-219,-223,-229,-237,-236,-238,-242,-232,-224,-213,-190,-172,-150,-136,-113,-105,-94,-87,-86,-90,-91,-88,-89,-90,-86,-87,-86,-84,-75,-78,-77,-69,-59,-47,-41,-40,-33,-36,-34,-21,-11,-6,-14,-13,-25,-32,-33,-38,-43,-45,-51,-64,-209,-510,-399,526,1150,1107,770,484,293,128,24,-15,-27,-46,-59,-61,-67,-66,-74,-77,-82,-91,-105,-119,-136,-149,-156,-162,-165,-170,-174,-175,-176,-170,-165,-156,-144,-128,-111,-91,-82,-65,-50,-39,-29,-25,-18,-16,-22,-28,-32,-32,-36,-37,-40,-41,-45,-48,-41,-33,-31,-28,-21,-31,-25,-9
2019-06-04,11:03:59.126,-71,-60,-56,-59,-60,-61,-56,-58,-62,-62,-62,-67,-127,-386,-531,23,888,1045,757,470,306,165,48,-2,-14,-20,-34,-38,-46,-55,-61,-58,-57,-57,-63,-65,-70,-77,-89,-104,-123,-139,-150,-152,-149,-151,-141,-121,-97,-84,-74,-66,-53,-50,-41,-35,-29,-30,-32,-35,-36,-37,-36,-38,-39,-44,-45,-45,-50,-50,-52,-43,-42,-42,-34,-31,-24,-14,-7,-3,-5,-3,-18,-14,-10,-7,0,-1,-1,-26,-216,-438,-122,819,1200,939,618,426,278,131,61,25,5,-9,-21,-19,-28,-30,-27,-21,-22,-28,-30,-38,-40,-48,-64,-77,-90,-98,-107,-117,-123,-118,-110,-98,-88,-77
2019-06-04,11:04:00.150,-168,-159,-149,-142,-128,-115,-108,-104,-99,-94,-96,-96,-90,-84,-80,-79,-87,-90,-87,-87,-90,-91,-96,-100,-104,-108,-113,-105,-94,-73,-81,-80,-70,-61,-56,-53,-50,-53,-53,-61,-209,-499,-399,502,1107,1087,756,459,272,95,-6,-40,-72,-79,-86,-103,-103,-100,-100,-106,-115,-111,-114,-120,-125,-134,-142,-152,-164,-171,-181,-185,-189,-184,-184,-179,-166,-149,-135,-118,-102,-83,-69,-51,-39,-27,-18,-13,-8,-2,5,10,8,10,12,2,-16,-35,-45,-61,-65,-66,-68,-84,-85,-77,-67,-55,-44,-37,-31,-22,-23,-22,-18,-15,-12,-27,-166,-445,-405,400,924,899,658,410,236,95
2019-06-04,11:04:01.175,-207,-235,-242,-252,-260,-257,-258,-255,-254,-247,-241,-245,-244,-248,-245,-255,-258,-261,-256,-251,-255,-249,-236,-222,-213,-204,-194,-182,-182,-178,-172,-162,-153,-145,-148,-142,-139,-138,-131,-125,-124,-124,-120,-120,-115,-105,-98,-95,-94,-95,-99,-99,-97,-90,-84,-77,-75,-78,-81,-74,-70,-71,-72,-63,-59,-68,-192,-443,-372,489,1085,892,557,338,207,58,-46,-82,-98,-103,-98,-86,-85,-78,-60,-54,-45,-35,-38,-43,-46,-59,-72,-81,-94,-103,-115,-121,-122,-119,-111,-107,-94,-85,-75,-73,-66,-46,-41,-29,-29,-25,-23,-21,-21,-22,-24,-21,-27,-21,-29,-31,-31,-35,-34,-33,-33,-32
2019-06-04,11:04:02.200,-254,-249,-237,-225,-217,-209,-199,-196,-191,-182,-177,-175,-162,-152,-144,-219,-499,-590,122,791,913,690,394,187,27,-83,-127,-142,-152,-172,-181,-178,-179,-177,-173,-166,-157,-157,-158,-166,-169,-177,-186,-197,-200,-204,-201,-197,-190,-189,-174,-164,-152,-143,-138,-123,-109,-101,-83,-73,-67,-59,-57,-63,-64,-61,-56,-62,-63,-61,-55,-47,-45,-39,-32,-30,-27,-34,-28,-17,-14,-3,8,6,4,9,12,11,9,15,13,16,-16,-256,-456,39,924,1273,1079,720,477,286,130,67,50,35,28,21,17,21,23,28,28,25,23,12,4,-4,-20,-38,-53,-70,-79,-86,-94,-96,-96,-89
2019-06-04,11:04:03.224,-337,-325,-310,-290,-271,-245,-222,-213,-197,-176,-174,-171,-184,-195,-205,-213,-220,-227,-230,-228,-217,-200,-197,-184,-170,-157,-150,-145,-139,-132,-118,-104,-99,-99,-101,-100,-105,-98,-95,-93,-93,-93,-101,-187,-459,-526,227,1012,1062,731,445,265,106,-4,-40,-55,-66,-66,-66,-62,-60,-61,-61,-68,-76,-77,-86,-97,-106,-118,-136,-152,-161,-163,-152,-135,-116,-99,-87,-75,-65,-47,-38,-33,-25,-18,-5,1,4,0,-6,-16,-30,-38,-54,-55,-63,-72,-77,-77,-72,-76,-57,-49,-37,-31,-28,-23,-12,-3,1,-2,-3,-14,-13,-15,-20,-22,-24,-22,-32,-167,-413,-354,455,909,772,566
2019-06-04,11:04:04.249,201,61,-61,-144,-175,-183,-195,-191,-184,-185,-191,-187,-179,-176,-175,-171,-174,-182,-180,-187,-190,-194,-196,-198,-195,-190,-178,-173,-163,-154,-149,-144,-141,-135,-126,-116,-103,-94,-87,-80,-79,-79,-73,-69,-65,-65,-64,-66,-68,-63,-63,-67,-70,-67,-67,-69,-68,-70,-72,-66,-51,-41,-49,-46,-49,-57,-51,-44,-38,-37,-38,-38,-97,-343,-521,11,899,1120,834,515,328,176,51,-5,-25,-38,-46,-48,-50,-51,-57,-62,-63,-68,-75,-80,-95,-106,-109,-121,-137,-144,-162,-157,-158,-163,-163,-149,-131,-129,-107,-93,-73,-59,-48,-28,-21,-15,-11,-7,-5,-7,-17,-20,-31,-37,-31,-34
2019-06-04,11:04:05.274,-123,-120,-111,-101,-94,-82,-79,-76,-64,-66,-63,-48,-31,-23,-17,-11,-21,-30,-37,-40,-45,-42,-50,-61,-81,-268,-544,-322,617,1080,937,617,381,221,80,1,-23,-45,-57,-69,-79,-85,-86,-90,-97,-93,-91,-94,-98,-101,-113,-120,-119,-128,-137,-136,-139,-146,-133,-127,-119,-114,-112,-106,-98,-88,-75,-64,-57,-48,-47,-50,-45,-45,-46,-49,-47,-51,-51,-45,-45,-43,-41,-40,-38,-38,-35,-32,-34,-34,-28,-18,-9,1,-1,0,0,2,4,5,11,13,8,6,-65,-322,-406,251,1051,1057,721,452,313,171,60,14,-5,-18,-22,-29,-29,-21,-20,-28,-36,-40,-34,-43
2019-06-04,11:04:06.298,-112,-114,-121,-130,-140,-151,-157,-163,-168,-167,-165,-158,-150,-129,-118,-103,-92,-76,-69,-66,-50,-49,-49,-54,-51,-55,-58,-55,-57,-65,-66,-62,-64,-65,-66,-66,-56,-49,-50,-53,-59,-56,-49,-42,-32,-32,-36,-29,-30,-30,-32,-30,-27,-28,-27,-70,-318,-507,61,940,1204,904,583,381,208,72,20,5,-3,-13,-23,-28,-27,-23,-25,-19,-27,-46,-57,-61,-75,-83,-95,-110,-131,-149,-165,-176,-177,-170,-168,-163,-150,-134,-122,-108,-88,-68,-56,-43,-37,-41,-41,-44,-48,-56,-55,-59,-62,-59,-62,-64,-62,-55,-54,-52,-42,-36,-35,-36,-42,-41,-32,-14,-7,-10,-7,-10
2019-06-04,11:04:07.323,6,1,2,2,10,8,4,-98,-396,-404,407,1097,1148,842,541,355,182,67,25,7,-9,-22,-31,-29,-33,-40,-42,-50,-53,-59,-67,-67,-76,-75,-78,-78,-77,-79,-75,-78,-73,-74,-69,-61,-47,-39,-32,-20,-16,-4,7,14,20,26,29,16,7,4,2,-6,-9,-8,-16,-12,-5,-2,-9,-12,-11,-15,-14,-23,-35,-47,-45,-28,-20,-6,10,21,23,24,31,40,38,39,37,34,-56,-341,-389,381,1132,1130,797,519,353,186,77,29,3,-3,-5,-16,-17,-10,-15,-19,-21,-26,-28,-34,-33,-36,-47,-50,-55,-59,-67,-64,-63,-63,-58,-50,-44,-37,-31,-20
2019-06-04,11:04:08.348,-18,-4,11,25,34,37,38,29,27,21,18,17,20,17,13,7,-4,-11,-14,-17,-19,-27,-39,-46,-54,-44,-26,-6,1,-1,20,18,18,13,9,11,9,1,-10,-102,-368,-393,357,1051,953,639,401,278,141,41,4,-16,-24,-26,-42,-33,-38,-44,-45,-50,-53,-60,-76,-80,-83,-97,-101,-108,-116,-110,-107,-110,-106,-109,-94,-88,-72,-59,-51,-49,-36,-28,-30,-20,-19,-17,-19,-20,-21,-24,-20,-28,-28,-29,-30,-28,-28,-20,-19,-17,-11,-10,-6,-11,-10,-5,-13,-8,7,9,5,7,8,0,-1,-6,-5,-13,-19,-18,-38,-202,-472,-286,657,1195,1021,674
2019-06-04,11:04:09.372,510,341,186,98,70,49,22,8,-7,-20,-27,-32,-34,-26,-30,-29,-28,-33,-39,-49,-53,-66,-82,-95,-97,-100,-105,-106,-95,-84,-77,-72,-60,-44,-29,-18,-10,-7,-5,-5,-8,-8,-14,-13,-13,-25,-25,-14,-9,-8,-2,0,-1,6,6,8,10,8,10,3,1,8,8,1,-6,-18,-23,-34,-30,-28,-17,-10,2,6,-26,-258,-466,-13,875,1251,1073,727,490,314,167,89,59,39,5,-22,-47,-59,-68,-73,-87,-96,-109,-120,-128,-135,-139,-135,-151,-145,-150,-145,-141,-139,-139,-141,-132,-120,-113,-105,-97,-91,-83,-68,-64,-61,-55,-60,-55,-56,-56,-62,-62,-61
2019-06-04,11:04:10.397,69,61,57,58,61,61,48,53,56,58,59,58,58,63,72,75,83,78,76,73,75,78,79,81,78,70,55,-83,-345,-227,682,1228,1017,685,467,328,182,95,61,45,33,29,27,29,32,31,27,29,23,17,13,5,-5,-17,-27,-41,-49,-52,-55,-54,-57,-51,-51,-47,-43,-45,-34,-27,-17,-10,-6,2,0,-13,-11,-25,-38,-53,-61,-75,-82,-79,-77,-71,-53,-46,-34,-30,-20,-12,-16,-14,1,11,4,11,15,12,-2,3,3,1,3,-18,-13,-38,-211,-473,-265,683,1176,985,646,422,261,105,29,-8,-23,-30,-40,-44,-49,-54,-56,-58,-69,-79
2019-06-04,11:04:11.422,13,6,-1,-8,-23,-38,-56,-76,-79,-83,-82,-89,-78,-64,-49,-26,-4,16,31,47,66,81,91,102,104,97,82,67,47,35,27,17,12,0,-15,-12,-20,-23,-19,-15,-3,0,4,7,18,26,35,43,40,31,30,23,16,7,5,6,-1,-6,-57,-316,-504,24,921,1186,934,599,393,225,90,27,6,-21,-41,-48,-54,-59,-60,-64,-70,-74,-77,-86,-90,-101,-108,-120,-133,-143,-151,-160,-160,-159,-158,-153,-143,-133,-116,-99,-78,-57,-36,-18,-9,-4,1,-3,0,-11,-14,-22,-25,-26,-23,-21,-28,-38,-47,-54,-60,-54,-49,-47,-33,-30,-31,-50,-64,-68
2019-06-04,11:04:12.446,49,65,74,83,87,83,77,71,60,46,32,26,-42,-299,-440,165,1058,1240,931,616,431,270,131,76,49,36,16,-3,-9,-12,-17,-17,-25,-41,-58,-62,-66,-75,-79,-94,-96,-106,-107,-107,-106,-104,-101,-89,-79,-62,-48,-38,-24,-13,-4,-3,-7,-8,-6,-8,-13,-14,-16,-18,-3,0,6,-8,-1,1,9,13,19,15,18,10,0,-7,-13,-11,-7,-9,-16,-14,-20,-29,-34,-32,-36,-30,-21,-11,-55,-286,-433,111,883,937,694,459,300,161,50,-4,-17,-28,-48,-47,-48,-58,-61,-55,-58,-66,-61,-80,-88,-87,-105,-124,-126,-127,-125,-129,-127,-117,-112,-111
2019-06-04,11:04:13.471,-20,-14,-12,-9,-11,-1,13,17,17,16,18,10,5,14,9,6,4,10,2,-1,1,2,5,1,5,7,5,7,3,1,-5,-5,-1,9,17,16,20,31,24,21,24,27,26,21,16,-14,-230,-456,-77,871,1223,963,631,411,243,95,21,1,-20,-36,-45,-54,-52,-57,-56,-61,-59,-67,-70,-80,-93,-100,-116,-137,-154,-170,-184,-200,-211,-203,-196,-185,-150,-118,-100,-83,-64,-50,-33,-25,-22,-21,-18,-24,-21,-31,-37,-37,-48,-42,-41,-43,-45,-43,-45,-46,-46,-43,-42,-36,-38,-36,-34,-26,-16,-5,7,11,7,3,6,8,9,10,14,14,2,-155
2019-06-04,11:04:14.496,-433,-264,626,1182,1186,848,547,352,179,89,63,53,40,29,9,-15,-30,-41,-51,-63,-81,-96,-105,-116,-130,-145,-157,-163,-170,-176,-177,-182,-180,-177,-165,-147,-132,-116,-103,-96,-82,-66,-60,-54,-53,-50,-49,-47,-45,-49,-55,-60,-53,-54,-55,-46,-53,-49,-46,-45,-43,-44,-46,-50,-45,-43,-20,-11,-15,-12,-21,-22,-15,-15,-12,-9,-9,-7,-33,-210,-453,-219,726,1148,904,580,377,229,92,10,-18,-30,-43,-45,-52,-52,-53,-59,-55,-56,-53,-59,-65,-70,-75,-80,-88,-99,-110,-105,-109,-113,-111,-107,-90,-88,-71,-61,-62,-48,-34,-25,-28,-20,-14,-18,-11,-16
2019-06-04,11:04:15.520,-29,-28,-37,-51,-53,-56,-68,-71,-77,-85,-89,-87,-82,-75,-63,-54,-39,-18,-2,0,-2,-2,-8,-10,-13,-10,-10,-14,-18,-93,-345,-445,197,1002,1036,700,423,282,150,35,-14,-33,-44,-52,-48,-59,-53,-54,-62,-60,-63,-66,-74,-86,-97,-111,-123,-136,-147,-157,-163,-171,-171,-156,-138,-116,-91,-63,-39,-25,-10,-6,-4,-2,-2,7,8,5,2,3,0,-7,-15,-22,-30,-35,-45,-49,-54,-55,-55,-61,-73,-72,-60,-47,-32,-14,-1,0,0,0,-3,-5,-9,-7,-8,-14,-16,-73,-331,-501,24,896,1113,847,539,343,187,55,-2,-34,-38,-43,-46,-54,-58,-70
2019-06-04,11:04:16.545,-38,-40,-43,-52,-65,-68,-78,-90,-106,-111,-127,-142,-147,-149,-149,-155,-144,-127,-112,-83,-68,-45,-29,-18,-15,1,1,0,-2,0,-4,-8,-10,-16,-15,-16,-10,-4,6,11,18,22,27,29,26,23,18,15,6,2,2,-1,-1,-7,-10,-17,-19,-16,-7,6,6,9,2,-140,-433,-329,600,1188,1104,770,487,302,143,37,-3,-32,-57,-76,-91,-95,-86,-76,-74,-74,-69,-67,-74,-83,-95,-109,-130,-143,-157,-161,-165,-170,-175,-169,-172,-154,-138,-128,-109,-87,-71,-70,-57,-42,-52,-57,-50,-45,-37,-43,-44,-45,-44,-39,-36,-37,-37,-21,-14,-7,4,4,-4,0
2019-06-04,11:04:17.570,40,42,48,52,46,44,47,36,37,40,44,43,41,39,16,-158,-414,-238,678,1153,954,648,433,287,145,54,9,-2,-14,-30,-22,-20,-24,-27,-17,-25,-32,-34,-48,-67,-75,-82,-96,-101,-106,-102,-105,-94,-86,-74,-64,-46,-35,-26,-13,-2,0,1,3,3,3,4,11,9,2,2,9,4,11,14,3,5,12,18,21,28,27,24,29,38,50,57,50,46,43,44,46,48,51,58,54,52,29,-170,-377,-9,926,1258,939,620,439,295,161,100,76,63,56,43,31,24,14,10,-2,0,-4,-8,-2,-4,-17,-35,-49,-57,-76,-67,-70,-79,-74,-64
2019-06-04,11:04:18.594,-122,-111,-96,-90,-86,-91,-89,-81,-80,-66,-61,-58,-44,-34,-31,-32,-30,-29,-26,-27,-30,-24,-21,-26,-28,-23,-27,-34,-36,-40,-37,-25,-23,-15,-10,4,-13,-5,-8,-15,-4,-3,-5,-11,-144,-438,-330,574,1180,1158,825,526,330,156,45,3,-27,-44,-55,-63,-63,-65,-63,-64,-67,-64,-65,-71,-78,-88,-96,-103,-111,-123,-131,-144,-153,-158,-159,-157,-153,-142,-130,-117,-107,-83,-62,-51,-35,-33,-35,-27,-29,-33,-34,-32,-39,-44,-40,-39,-36,-37,-38,-35,-47,-47,-45,-48,-52,-44,-27,-22,-24,-18,-11,-21,-30,-23,-21,-19,-23,-24,-34,-129,-404,-426,373,1079
2019-06-04,11:04:19.619,1088,770,490,324,162,53,17,-9,-23,-29,-32,-33,-34,-38,-41,-45,-49,-54,-56,-61,-71,-82,-83,-88,-91,-99,-106,-112,-106,-98,-93,-85,-73,-65,-57,-52,-52,-45,-40,-34,-30,-26,-21,-20,-21,-29,-25,-24,-21,-22,-23,-23,-21,-19,-19,-21,-19,-22,-28,-30,-31,-22,-15,-19,-24,-27,-29,-26,-21,-19,-19,-16,-13,-14,-74,-322,-447,131,972,1030,698,429,293,163,50,-1,-22,-35,-43,-48,-55,-51,-59,-68,-69,-75,-83,-88,-94,-99,-108,-116,-127,-131,-134,-135,-136,-128,-117,-113,-96,-79,-67,-60,-48,-41,-38,-36,-31,-34,-39,-34,-31,-29,-30,-25,-13,-13
2019-06-04,11:04:20.644,103,105,109,112,120,120,125,123,122,110,102,85,84,90,94,91,77,78,71,72,67,69,62,60,70,44,-136,-366,-107,821,1217,965,647,439,301,161,80,50,39,26,12,3,1,-1,2,-3,-11,-17,-22,-35,-46,-54,-70,-87,-104,-110,-117,-123,-129,-120,-109,-97,-76,-53,-46,-28,-8,1,5,13,13,14,15,16,10,8,8,3,5,7,4,0,3,1,4,8,14,13,15,14,13,11,15,21,21,35,45,50,51,50,49,47,39,39,36,22,11,0,-83,-369,-486,217,1042,1187,907,589,383,207,74,17,0,-3,-10,-20,-36,-49,-66,-76
2019-06-04,11:04:21.668,-69,-86,-91,-95,-97,-97,-105,-117,-128,-140,-149,-141,-149,-143,-139,-132,-109,-91,-85,-64,-43,-27,-11,-3,-1,3,0,-2,-6,-20,-23,-31,-32,-26,-26,-28,-30,-19,-12,-7,-2,-5,0,3,3,-4,0,9,11,14,11,10,2,-2,0,-7,-9,-5,-1,0,-96,-382,-398,413,1141,1123,780,502,330,167,54,12,-5,-26,-35,-48,-58,-60,-60,-63,-79,-85,-79,-90,-92,-84,-94,-101,-112,-124,-131,-138,-138,-141,-140,-128,-116,-108,-97,-86,-77,-67,-53,-56,-48,-34,-41,-48,-46,-50,-54,-58,-63,-62,-65,-69,-63,-60,-60,-55,-51,-48,-49,-44,-42,-35,-28,-20
2019-06-04,11:04:22.693,24,19,21,20,17,19,23,18,22,21,-14,-235,-414,20,936,1189,867,558,388,233,93,29,13,3,-1,0,1,1,3,6,5,0,0,-5,-11,-24,-38,-49,-74,-98,-111,-121,-123,-119,-109,-94,-78,-63,-48,-35,-25,-18,-7,6,24,24,24,16,11,4,-10,-25,-38,-37,-29,-21,-13,-10,8,20,30,40,33,37,35,25,38,45,49,50,53,50,39,37,43,48,42,41,48,32,-130,-405,-222,695,1234,1154,811,534,359,197,97,73,55,41,34,26,24,19,24,13,1,-5,-22,-29,-42,-57,-71,-80,-93,-105,-110,-108,-101,-87,-76,-51,-25,4
2019-06-04,11:04:23.718,-37,-12,-3,-7,-11,-14,-15,-12,-15,-15,-29,-39,-45,-59,-59,-70,-66,-57,-49,-39,-36,-26,-26,-25,-26,-26,-26,-33,-29,-21,-18,-7,-9,-16,-32,-39,-39,-37,-34,-31,-36,-42,-127,-403,-450,294,1033,1051,745,456,291,137,25,-19,-34,-45,-56,-61,-62,-64,-65,-61,-57,-62,-68,-75,-81,-92,-107,-120,-133,-147,-156,-159,-156,-145,-123,-102,-76,-59,-44,-34,-21,-8,2,6,9,9,1,-9,-12,-23,-29,-30,-26,-20,-31,-35,-44,-47,-42,-41,-30,-30,-30,-20,-17,-17,-20,-16,-19,-23,-36,-41,-42,-41,-27,-24,-20,-10,0,-1,-72,-332,-406,280,1060,1023
2019-06-04,11:04:24.742,660,399,271,131,20,-27,-43,-59,-70,-81,-80,-81,-100,-88,-91,-99,-103,-112,-116,-127,-119,-129,-141,-148,-150,-146,-145,-143,-139,-119,-106,-91,-83,-77,-66,-60,-61,-59,-55,-52,-55,-54,-51,-51,-41,-33,-27,-24,-24,-22,-12,-7,-5,-1,2,-5,-15,-21,-29,-28,-23,-17,-13,-15,-12,-14,-21,-24,-27,-28,-34,-40,-43,-59,-223,-472,-272,659,1159,987,656,421,269,121,28,-3,-18,-34,-50,-52,-61,-64,-74,-83,-82,-94,-105,-106,-109,-114,-124,-141,-160,-171,-184,-185,-189,-190,-185,-166,-146,-124,-105,-85,-67,-54,-40,-32,-23,-22,-20,-17,-21,-20,-19,-28,-29,-27
2019-06-04,11:04:25.767,-21,-18,-10,-4,-1,7,25,34,39,41,39,38,40,35,35,36,34,30,28,20,9,1,0,3,12,15,27,27,-73,-359,-377,444,1152,1197,891,573,375,199,73,24,4,-14,-34,-39,-50,-51,-66,-72,-76,-79,-80,-91,-100,-105,-116,-129,-141,-147,-163,-169,-171,-171,-166,-156,-134,-114,-97,-78,-69,-49,-42,-19,-16,-11,-13,-10,-9,-24,-25,-31,-34,-32,-32,-34,-28,-14,-8,-15,-9,-1,2,8,7,4,-1,-1,1,6,10,7,11,6,4,2,3,10,8,11,12,0,-145,-414,-291,617,1169,1025,697,450,290,129,20,-23,-46,-60,-72,-75,-63,-64
2019-06-04,11:04:26.792,-123,-105,-102,-106,-114,-127,-139,-145,-154,-163,-180,-187,-191,-198,-195,-179,-165,-161,-140,-137,-130,-122,-97,-80,-80,-69,-65,-62,-66,-68,-69,-76,-68,-76,-74,-73,-77,-73,-66,-68,-63,-59,-50,-47,-50,-53,-56,-47,-35,-21,-12,-14,-18,-23,-27,-36,-35,-35,-34,-38,-39,-103,-362,-437,235,1030,1022,676,421,293,160,50,3,-14,-22,-29,-38,-42,-48,-53,-53,-65,-75,-83,-96,-109,-121,-119,-128,-134,-146,-146,-141,-146,-142,-132,-116,-101,-91,-81,-69,-68,-69,-68,-68,-62,-63,-61,-61,-59,-62,-51,-46,-45,-41,-36,-40,-42,-39,-41,-43,-37,-35,-41,-48,-44,-47,-55
2019-06-04,11:04:27.816,-102,-89,-86,-86,-80,-81,-82,-85,-83,-82,-84,-89,-84,-93,-202,-502,-485,374,1066,1131,805,493,301,126,14,-24,-48,-64,-78,-91,-92,-95,-102,-104,-110,-119,-121,-128,-133,-135,-146,-156,-168,-180,-186,-180,-168,-159,-143,-123,-108,-107,-98,-93,-91,-76,-64,-54,-46,-40,-37,-39,-32,-28,-27,-24,-19,-19,-26,-30,-31,-32,-37,-34,-30,-32,-31,-33,-30,-19,-28,-19,-7,-13,-8,-9,-2,-3,-9,0,5,3,-1,0,-17,-206,-474,-258,681,1180,1023,681,445,277,114,32,-4,-27,-36,-37,-47,-57,-56,-61,-63,-65,-69,-71,-80,-90,-99,-112,-122,-130,-135,-134,-128,-120
2019-06-04,11:04:28.841,-116,-107,-90,-76,-70,-55,-43,-37,-26,-17,-17,-20,-23,-25,-28,-35,-41,-44,-51,-52,-50,-47,-45,-42,-41,-33,-30,-28,-31,-41,-45,-50,-52,-46,-45,-49,-48,-44,-40,-49,-40,-27,-21,-16,-11,-10,-24,-185,-412,-216,688,1098,816,507,339,212,77,2,-22,-41,-62,-70,-70,-77,-73,-76,-72,-73,-75,-78,-77,-89,-99,-107,-117,-123,-131,-137,-140,-134,-128,-117,-98,-79,-60,-40,-19,-7,1,8,17,14,24,31,35,41,35,18,-1,-12,-17,-20,-16,-16,-15,-12,-14,-11,-16,-13,-15,-13,-5,0,10,10,15,5,-6,-16,-22,-26,-26,-27,-29,-24,-25,-100
2019-06-04,11:04:29.866,-362,-460,223,985,1070,774,489,321,161,50,1,-17,-27,-33,-33,-39,-47,-52,-53,-56,-64,-74,-75,-86,-99,-107,-118,-139,-152,-158,-162,-170,-174,-163,-145,-128,-107,-90,-75,-56,-37,-29,-14,-4,4,-2,0,0,0,3,-2,-9,-11,-10,-6,-10,-6,-3,-2,-5,9,10,13,20,23,26,21,22,27,36,41,40,31,29,26,23,19,15,15,13,9,-10,-183,-459,-247,711,1201,1039,700,450,281,119,23,-13,-37,-57,-78,-98,-113,-127,-134,-136,-137,-130,-125,-121,-124,-132,-142,-159,-174,-182,-187,-198,-201,-187,-176,-154,-139,-123,-102,-84,-62,-50,-34,-16,-16,-10
2019-06-04,11:04:30.890,8,9,7,4,4,-3,-12,-13,-27,-43,-52,-53,-60,-67,-53,-38,-32,-26,-22,-23,-23,-14,-4,8,23,23,21,20,22,24,25,30,26,25,24,20,-30,-280,-480,-23,867,1134,847,534,354,201,68,0,-21,-38,-46,-53,-53,-51,-48,-52,-55,-54,-61,-63,-79,-91,-105,-118,-132,-139,-146,-153,-152,-142,-134,-118,-98,-84,-69,-63,-56,-53,-49,-38,-27,-31,-27,-26,-26,-35,-39,-30,-29,-29,-26,-31,-30,-32,-36,-33,-29,-33,-28,-27,-27,-24,-34,-20,-3,4,-3,-8,-1,-2,1,12,14,20,21,21,-12,-216,-476,-160,776,1221,982,641,424,256,100,22
2019-06-04,11:04:31.915,44,27,21,19,17,8,4,-2,-5,-9,-22,-38,-49,-64,-81,-102,-123,-145,-161,-174,-183,-191,-192,-185,-167,-144,-121,-99,-78,-53,-34,-17,-15,-20,-29,-55,-78,-89,-92,-92,-85,-69,-54,-28,5,22,35,35,24,12,0,-12,-24,-34,-52,-55,-49,-34,-24,-22,-23,-24,-32,-29,-33,-26,-21,-31,-25,-55,-292,-517,-95,798,1227,1116,753,495,314,151,66,30,-2,-25,-40,-47,-53,-61,-69,-68,-68,-78,-87,-99,-110,-127,-136,-154,-169,-183,-207,-209,-205,-194,-182,-175,-146,-116,-101,-74,-49,-37,-29,-20,-12,7,8,5,18,17,-7,-1,13,8,-7,-23,-10,0
2019-06-04,11:04:32.940,69,65,64,69,67,68,79,65,60,67,77,81,83,71,68,65,66,59,66,63,53,52,-15,-299,-433,232,1064,1209,931,609,419,251,114,54,32,15,3,-10,-15,-12,-15,-26,-29,-32,-37,-42,-55,-69,-80,-94,-104,-112,-119,-126,-126,-126,-123,-101,-80,-62,-48,-36,-15,-7,0,8,15,21,23,26,12,11,5,-2,-4,-17,-34,-50,-61,-78,-104,-110,-87,-67,-65,-69,-75,-53,-50,-57,-64,-67,-67,-50,-41,-36,-31,-39,-36,-47,-111,-344,-481,-35,790,829,497,274,184,99,11,-21,-28,-33,-38,-38,-47,-49,-51,-48,-61,-63,-64,-70,-71,-78,-93,-109
2019-06-04,11:04:33.964,-106,-112,-111,-115,-120,-120,-115,-103,-81,-62,-52,-37,-28,-13,-6,0,0,4,1,-8,-19,-22,-23,-34,-37,-39,-40,-43,-44,-45,-42,-42,-34,-32,-21,-10,2,15,28,51,62,66,62,60,55,56,59,50,38,29,14,-21,-171,-438,-341,552,1073,859,529,324,215,89,7,-14,-26,-38,-49,-60,-68,-74,-63,-62,-59,-64,-63,-70,-80,-90,-99,-111,-120,-130,-130,-131,-125,-119,-117,-110,-103,-91,-86,-93,-86,-75,-67,-55,-48,-49,-37,-31,-30,-25,-15,-17,-18,-15,-17,-15,-14,-14,-8,-3,-6,-3,-7,-8,-16,-21,-24,-21,-14,-3,-2,-8,1,1,-3,0
2019-06-04,11:04:34.989,-14,-21,-22,-31,-28,-75,-326,-467,132,1000,1150,780,473,300,143,13,-46,-56,-66,-59,-61,-65,-63,-72,-86,-91,-92,-94,-107,-117,-120,-134,-145,-160,-178,-191,-205,-214,-207,-198,-174,-147,-115,-83,-64,-38,-13,7,18,21,29,13,11,4,-6,-7,-8,-10,-3,-7,-2,-3,0,11,14,26,31,24,20,26,13,6,9,7,10,16,22,26,27,26,25,27,26,32,37,39,44,15,-210,-437,19,937,1301,1067,720,497,320,175,111,98,93,87,71,61,52,47,36,26,10,-7,-25,-43,-64,-85,-104,-123,-138,-146,-152,-159,-156,-148,-136,-119,-90,-61,-36,-9
2019-06-04,11:04:36.014,-83,-66,-61,-62,-59,-67,-76,-85,-89,-99,-100,-98,-104,-96,-88,-85,-78,-76,-77,-69,-58,-59,-54,-60,-57,-64,-58,-52,-42,-37,-31,-23,-22,-21,-22,-25,-14,-13,-12,-18,-25,-158,-442,-372,517,1116,1058,749,471,289,121,28,-1,-16,-27,-34,-37,-36,-38,-40,-43,-41,-44,-45,-45,-49,-65,-82,-101,-116,-127,-133,-141,-144,-146,-144,-139,-125,-105,-96,-76,-63,-48,-35,-26,-18,-19,-21,-24,-23,-23,-28,-34,-43,-41,-44,-46,-48,-42,-38,-39,-43,-46,-55,-54,-59,-55,-52,-44,-24,-4,3,5,10,5,5,6,5,5,5,2,-7,-83,-339,-423,215,858,836
2019-06-04,11:04:37.038,598,377,233,104,0,-37,-51,-58,-63,-65,-64,-60,-49,-48,-50,-56,-54,-58,-66,-71,-77,-85,-93,-100,-106,-109,-110,-113,-114,-107,-97,-92,-82,-68,-55,-39,-22,-17,-6,7,27,24,7,-2,-7,-12,-9,-10,-20,-32,-40,-57,-69,-70,-72,-65,-55,-47,-41,-37,-26,-12,-6,-13,-11,-19,-26,-26,-20,-26,-19,-23,-23,-49,-204,-421,-250,631,1056,768,481,314,208,89,9,-16,-28,-46,-56,-59,-66,-68,-75,-75,-73,-79,-77,-85,-98,-96,-115,-126,-133,-140,-146,-145,-145,-142,-133,-121,-108,-94,-84,-72,-59,-47,-41,-37,-29,-22,-18,-13,-5,-1,4,21,31,38
2019-06-04,11:04:38.063,65,65,63,58,63,69,67,64,64,59,52,46,36,14,11,15,29,25,30,45,47,39,36,34,27,33,44,42,4,-216,-443,-55,894,1208,875,542,334,181,40,-23,-30,-28,-30,-33,-30,-19,-19,-26,-33,-34,-45,-56,-71,-82,-110,-121,-139,-159,-171,-173,-186,-197,-179,-176,-155,-124,-92,-74,-74,-46,-37,-24,-18,-18,-8,-4,-6,-4,-2,-7,-7,-7,1,10,16,18,25,30,37,30,33,37,34,34,36,26,22,22,28,45,57,57,54,44,31,23,16,9,4,9,3,-21,-194,-468,-282,641,1140,1016,697,429,250,104,9,-19,-34,-38,-38,-49
2019-06-04,11:04:39.088,-56,-55,-55,-66,-72,-75,-89,-101,-117,-132,-142,-158,-168,-180,-180,-178,-179,-171,-166,-151,-132,-112,-96,-84,-64,-50,-38,-30,-26,-11,-11,-9,-6,-9,-7,-8,-8,-3,0,-3,-6,-6,2,0,-7,-1,-2,-7,-7,-13,-18,-22,-20,-12,-7,6,6,13,22,25,40,48,55,60,66,76,22,-241,-422,107,991,1221,980,628,396,216,73,9,-10,-22,-36,-42,-55,-57,-66,-87,-86,-84,-85,-78,-87,-92,-103,-118,-140,-171,-188,-203,-216,-232,-221,-201,-184,-153,-128,-103,-79,-56,-40,-24,-17,-5,-12,-5,-5,-14,-11,-18,-18,-18,-15,-17,-31,-25,-22,-13,-21,-22
2019-06-04,11:04:40.112,-40,-38,-50,-56,-58,-57,-55,-55,-50,-49,-47,-45,-48,-37,-27,-25,-22,-14,-9,-6,-84,-364,-445,295,1049,1237,981,619,386,194,58,1,-22,-40,-53,-64,-75,-74,-79,-80,-75,-82,-90,-106,-115,-129,-149,-172,-179,-196,-218,-224,-220,-223,-217,-203,-182,-151,-128,-107,-95,-74,-61,-52,-45,-42,-47,-54,-56,-61,-58,-54,-59,-55,-47,-46,-42,-36,-35,-33,-31,-35,-36,-47,-50,-59,-64,-48,-41,-35,-34,-34,-35,-31,-32,-32,-20,-24,-26,-22,-59,-280,-449,-18,754,856,657,426,267,135,21,-35,-50,-60,-61,-62,-57,-58,-56,-51,-44,-47,-46,-44,-49,-52,-64,-68
2019-06-04,11:04:41.137,-165,-168,-168,-166,-168,-165,-166,-161,-155,-154,-151,-149,-142,-135,-131,-132,-134,-137,-136,-136,-131,-137,-140,-135,-132,-124,-115,-118,-120,-119,-105,-92,-86,-87,-93,-96,-90,-84,-77,-72,-52,-49,-60,-64,-57,-57,-45,-41,-43,-44,-41,-119,-382,-455,209,964,1004,701,442,306,163,41,0,-22,-31,-36,-48,-48,-53,-53,-66,-66,-74,-75,-79,-87,-96,-107,-114,-124,-135,-143,-153,-152,-138,-123,-101,-77,-52,-26,-9,6,21,31,39,38,37,35,38,38,31,36,29,25,28,23,20,15,11,11,6,6,0,-2,-3,0,1,-1,6,11,13,13,9,3,0,2,2,1
2019-06-04,11:04:42.162,-83,-84,-85,-103,-286,-545,-339,488,928,884,622,373,207,60,-27,-58,-79,-85,-82,-88,-99,-103,-101,-106,-112,-119,-126,-141,-144,-153,-172,-178,-183,-193,-199,-201,-201,-192,-179,-169,-146,-124,-102,-83,-66,-51,-44,-31,-22,-20,-14,-14,-11,-6,0,1,6,7,3,6,12,14,14,12,12,11,8,-3,-15,-27,-45,-39,-22,-11,-14,-24,-21,-21,-22,-34,-38,-35,-35,-34,-99,-358,-484,119,976,1083,768,482,327,181,58,14,-6,-23,-35,-52,-65,-74,-82,-95,-99,-113,-121,-125,-135,-141,-136,-146,-161,-182,-186,-190,-191,-192,-182,-165,-138,-105,-88,-83,-70,-55,-44,-27
