2019-06-05,15:35:23.251,0,2,5,3,2,1,-1,-1,-4,-4,-5,-3,-1,0,-1,-2,0,-1,-3,-4,-2,-2,-6,-3,-3,-5,-5,-4,-1,0,0,-1,-2,-3,0,-4,-8,-13,-16,-16,-13,-15,-16,-14,-10,-13,-10,-6,-12,-10,-15,-29,-71,-142,-175,64,477,807,616,77,-172,-200,-138,-91,-75,-63,-59,-65,-56,-54,-51,-36,-36,-39,-33,-22,-20,-17,-11,-10,-11,-4,-2,-1,7,10,9,13,19,22,22,13,1,-13,-29,-42,-56,-70,-77,-79,-79,-80,-75,-77,-75,-71,-64,-55,-48,-43,-37,-35,-30,-26,-23,-17,-17,-16,-11,-10,-11,-11,-15,-15,-16,-16,-20,-22
2019-06-05,15:35:24.276,-38,-37,-36,-41,-42,-41,-42,-42,-41,-42,-39,-40,-38,-39,-38,-37,-34,-35,-33,-29,-30,-29,-30,-31,-30,-32,-30,-27,-20,-20,-21,-28,-26,-29,-41,-39,-39,-62,-128,-198,-166,207,694,1016,653,81,-113,-95,-45,-24,-24,-21,-20,-17,-15,-16,-19,-17,-17,-17,-18,-20,-19,-19,-17,-19,-26,-29,-28,-26,-20,-13,-7,2,10,18,25,29,28,29,29,26,24,18,16,15,17,13,7,7,3,2,1,-2,-4,-6,-6,-3,-2,1,-3,-3,-4,-5,-5,-3,-2,-3,-4,-6,-6,-5,-4,-5,-2,-1,-4,-4,-5,-5,-8,-11,-14,-19,-18,-17,-18,-17
2019-06-05,15:35:25.301,-41,-39,-39,-40,-40,-42,-41,-45,-45,-42,-51,-54,-50,-43,-39,-41,-42,-39,-40,-50,-50,-47,-62,-108,-185,-221,21,474,890,746,151,-137,-176,-121,-75,-58,-54,-49,-44,-38,-36,-31,-30,-29,-24,-24,-29,-27,-25,-17,-18,-16,-9,-3,1,4,15,22,30,38,39,39,37,25,12,0,-11,-22,-29,-33,-34,-43,-43,-44,-49,-47,-46,-48,-47,-50,-50,-50,-49,-46,-43,-45,-50,-50,-53,-53,-55,-56,-53,-51,-54,-56,-53,-53,-52,-51,-51,-51,-46,-42,-40,-44,-43,-45,-44,-45,-41,-40,-45,-51,-50,-49,-45,-35,-30,-29,-33,-35,-39,-50,-47,-43,-59,-104
2019-06-05,15:35:26.325,-328,-363,-128,320,719,590,19,-277,-317,-250,-196,-174,-170,-165,-159,-153,-146,-144,-139,-136,-132,-126,-121,-117,-110,-106,-106,-100,-96,-103,-98,-90,-77,-69,-60,-54,-48,-46,-48,-56,-68,-73,-76,-79,-87,-89,-85,-86,-81,-80,-82,-79,-80,-78,-75,-71,-67,-63,-62,-65,-64,-62,-59,-60,-61,-61,-52,-54,-54,-52,-46,-42,-43,-40,-40,-36,-35,-31,-29,-35,-32,-32,-32,-27,-24,-24,-24,-25,-22,-23,-23,-20,-25,-25,-21,-16,-16,-18,-21,-21,-23,-29,-24,-11,1,0,-5,1,-1,-8,-8,-4,-20,-69,-162,-202,54,555,1020,946,276,-84,-123,-68,-26,-24,-26,-24
2019-06-05,15:35:27.350,-198,-194,-186,-185,-184,-181,-175,-170,-168,-168,-164,-160,-159,-157,-156,-154,-154,-150,-144,-139,-131,-128,-119,-113,-104,-102,-98,-96,-100,-101,-102,-102,-101,-98,-95,-93,-91,-89,-90,-91,-87,-83,-82,-83,-79,-74,-72,-69,-70,-70,-67,-65,-67,-64,-65,-61,-57,-56,-50,-48,-46,-42,-41,-43,-43,-41,-42,-40,-42,-40,-39,-38,-38,-35,-34,-33,-31,-30,-33,-30,-28,-33,-31,-27,-29,-31,-34,-31,-26,-20,-16,-22,-17,-17,-26,-24,-24,-35,-77,-166,-209,14,484,942,863,230,-112,-167,-111,-65,-48,-41,-33,-28,-28,-26,-20,-17,-14,-12,-13,-16,-12,-10,-10,-10,-10,-4
2019-06-05,15:35:28.375,-101,-98,-91,-83,-76,-65,-58,-49,-43,-42,-52,-61,-70,-80,-85,-90,-92,-93,-95,-91,-89,-90,-89,-86,-87,-87,-86,-84,-80,-76,-77,-72,-72,-76,-75,-73,-73,-72,-70,-67,-66,-66,-66,-64,-62,-60,-59,-58,-61,-58,-54,-54,-53,-52,-51,-52,-47,-47,-47,-41,-43,-39,-38,-47,-51,-48,-38,-28,-29,-25,-20,-25,-32,-29,-28,-52,-109,-180,-171,159,604,891,522,13,-170,-172,-99,-58,-44,-36,-27,-20,-20,-19,-19,-16,-13,-7,-6,-5,-3,-5,-1,4,10,15,18,25,32,38,49,56,60,64,62,54,39,27,15,6,-2,-8,-9,-9,-11,-11,-13,-11
2019-06-05,15:35:29.399,-62,-62,-64,-63,-60,-60,-61,-58,-58,-58,-60,-57,-60,-57,-56,-58,-56,-56,-54,-52,-52,-45,-43,-44,-46,-44,-40,-40,-42,-40,-42,-41,-39,-42,-44,-42,-43,-44,-43,-37,-38,-38,-40,-37,-37,-36,-33,-37,-43,-42,-39,-26,-19,-23,-21,-16,-18,-29,-23,-22,-45,-109,-189,-181,180,681,1042,719,94,-139,-125,-65,-34,-32,-31,-31,-31,-31,-30,-29,-29,-29,-26,-27,-29,-26,-26,-25,-30,-29,-31,-30,-33,-29,-28,-22,-18,-13,-6,-1,5,7,2,0,-4,-6,-10,-10,-11,-10,-11,-9,-11,-13,-11,-10,-12,-12,-12,-10,-13,-12,-9,-10,-7,-5,-4,-15
2019-06-05,15:35:30.424,-58,-58,-63,-58,-61,-59,-55,-56,-55,-55,-53,-52,-52,-54,-58,-57,-61,-60,-61,-58,-59,-57,-56,-54,-53,-52,-51,-48,-42,-43,-44,-41,-41,-40,-46,-46,-50,-54,-52,-45,-36,-36,-40,-34,-30,-37,-39,-37,-44,-79,-159,-231,-132,332,854,1062,492,-42,-170,-123,-70,-53,-53,-48,-47,-42,-42,-39,-38,-39,-34,-32,-34,-35,-34,-34,-32,-32,-34,-35,-35,-29,-22,-15,-13,-5,0,7,14,13,8,0,-1,4,-7,-8,-13,-15,-13,-11,-11,-8,-11,-13,-14,-11,-11,-16,-13,-15,-14,-13,-12,-13,-14,-18,-22,-22,-21,-22,-23,-22,-24,-18,-21,-19,-20,-17
2019-06-05,15:35:31.448,-36,-36,-34,-32,-35,-36,-37,-33,-30,-29,-33,-35,-33,-36,-36,-31,-37,-36,-36,-37,-40,-44,-41,-36,-30,-22,-29,-26,-24,-31,-35,-32,-35,-61,-134,-195,-92,315,763,858,323,-82,-183,-145,-87,-54,-43,-38,-32,-28,-23,-20,-18,-16,-15,-16,-11,-10,-9,-5,-3,-2,2,8,17,21,29,38,45,50,55,60,57,47,35,23,10,-1,-9,-13,-18,-16,-15,-16,-17,-16,-19,-17,-16,-13,-15,-16,-18,-17,-15,-12,-14,-20,-20,-18,-20,-22,-22,-22,-24,-24,-24,-27,-28,-26,-24,-26,-27,-26,-28,-26,-25,-27,-28,-28,-26,-23,-21,-23,-23,-24,-24,-28
2019-06-05,15:35:32.473,-12,-11,-16,-22,-16,-9,-1,-5,-6,0,-2,-11,-8,-10,-35,-89,-166,-167,171,643,971,649,79,-141,-138,-77,-37,-26,-21,-16,-13,-13,-12,-14,-9,-7,-4,0,0,2,8,9,9,11,15,17,20,27,28,35,40,44,47,53,56,47,39,37,28,22,14,13,15,17,16,13,11,17,16,17,17,16,18,19,20,22,25,25,26,24,25,26,26,29,28,30,28,27,29,31,31,35,33,31,30,31,33,33,35,38,33,32,33,33,36,36,37,38,36,37,42,41,40,39,37,38,38,40,42,37,29,34,43,52,51,47,54,55
2019-06-05,15:35:33.498,-17,-18,-13,-28,-75,-173,-216,32,538,1010,960,282,-94,-133,-78,-42,-42,-40,-36,-31,-30,-27,-30,-29,-31,-30,-28,-27,-27,-26,-28,-28,-30,-33,-33,-32,-32,-31,-28,-25,-18,-11,-1,5,6,5,2,-1,0,-7,-10,-11,-12,-11,-10,-12,-13,-17,-18,-18,-17,-22,-22,-22,-21,-20,-18,-19,-22,-19,-21,-20,-22,-24,-22,-21,-20,-17,-20,-25,-22,-24,-26,-22,-30,-26,-25,-29,-30,-32,-30,-28,-30,-31,-28,-25,-22,-25,-22,-23,-25,-30,-28,-27,-29,-28,-27,-28,-28,-32,-37,-35,-27,-21,-22,-27,-15,-15,-21,-23,-23,-28,-63,-154,-218,-97,374,893
2019-06-05,15:35:34.522,1110,504,-5,-119,-77,-28,-13,-11,-9,-4,-1,-1,0,2,3,5,3,2,4,3,2,3,1,3,3,0,2,10,18,23,24,35,41,45,41,36,27,20,15,9,2,0,-3,-1,-2,-4,-5,-8,-9,-7,-7,-10,-8,-11,-9,-9,-5,-6,-8,-6,-4,-7,-9,-9,-8,-8,-5,-6,-5,-4,-5,-7,-5,-6,-11,-14,-12,-8,-14,-16,-11,-11,-10,-11,-16,-13,-14,-14,-12,-13,-15,-16,-18,-23,-26,-22,-14,-9,-9,-10,-5,-11,-16,-13,-12,-28,-72,-150,-179,89,535,905,661,100,-134,-167,-105,-55,-31,-26,-23,-20,-19,-21,-17,-16,-12,-10
2019-06-05,15:35:35.547,102,104,106,108,106,107,112,114,119,123,128,135,140,145,150,150,152,144,131,121,111,97,87,79,71,66,62,63,62,63,65,62,60,59,63,61,62,65,62,60,57,52,50,47,44,46,47,41,43,42,41,37,36,38,33,33,27,27,24,22,19,21,22,22,21,24,18,16,14,12,9,13,9,10,7,6,3,-5,-1,4,14,15,10,15,14,0,-1,-2,-19,-62,-150,-193,31,502,942,880,251,-103,-147,-87,-44,-29,-28,-26,-24,-21,-19,-18,-18,-18,-16,-13,-9,-11,-10,-9,-11,-15,-16,-13,-12,-12,-5,0,4,9,13,16
2019-06-05,15:35:36.572,23,18,14,10,-2,-4,-4,-9,-14,-12,-15,-18,-17,-15,-18,-15,-17,-16,-17,-16,-18,-15,-17,-18,-17,-18,-14,-17,-18,-19,-20,-18,-19,-22,-20,-21,-18,-16,-18,-17,-19,-20,-19,-17,-15,-16,-15,-14,-12,-13,-10,-10,-7,-8,-8,-7,-12,-12,-15,-16,-13,-18,-27,-24,-13,-7,-7,-9,-2,0,-9,-15,-10,-21,-56,-145,-213,-106,355,878,1105,535,-5,-137,-98,-50,-36,-39,-41,-34,-32,-31,-33,-35,-35,-34,-31,-31,-34,-32,-34,-34,-37,-40,-43,-44,-43,-45,-42,-37,-36,-26,-19,-10,-3,-3,-4,-9,-14,-17,-25,-25,-25,-29,-31,-29,-27,-29
2019-06-05,15:35:37.596,-15,-17,-17,-16,-12,-18,-19,-21,-16,-16,-18,-18,-17,-18,-16,-14,-15,-17,-16,-19,-20,-18,-17,-14,-14,-14,-14,-14,-16,-13,-16,-17,-20,-19,-18,-23,-19,-18,-22,-17,-15,-17,-19,-18,-21,-23,-18,-18,-15,-18,-23,-25,-22,-14,-7,-10,-8,-3,-8,-16,-14,-12,-39,-104,-180,-170,196,689,1011,618,45,-150,-142,-75,-42,-33,-27,-23,-21,-19,-19,-13,-11,-10,-8,-7,-6,-4,-6,-7,-11,-4,0,3,11,18,30,37,45,50,51,57,53,41,31,21,10,0,-5,-7,-8,-11,-11,-14,-14,-14,-13,-8,-5,-6,-6,-8,-10,-10,-11,-14,-18,-20
2019-06-05,15:35:38.621,-3,-4,-4,-2,-10,-4,-1,-2,-5,-5,-6,-5,-6,-3,-7,-8,-8,-6,-10,-8,-9,-13,-8,-9,-12,-15,-14,-15,-13,-14,-17,-18,-25,-25,-21,-13,-6,-12,-11,-7,-16,-23,-23,-23,-46,-107,-178,-156,202,659,916,502,-3,-168,-156,-92,-54,-41,-38,-33,-32,-29,-28,-26,-23,-21,-19,-18,-10,-10,-13,-8,-8,-7,-5,-2,4,11,19,23,29,37,36,37,33,24,14,2,-4,-11,-20,-22,-24,-23,-21,-21,-25,-23,-29,-31,-28,-26,-27,-21,-19,-17,-18,-19,-19,-23,-22,-24,-25,-24,-26,-22,-24,-24,-26,-29,-25,-24,-24,-25,-25,-22,-22,-25
2019-06-05,15:35:39.645,-29,-30,-31,-32,-27,-28,-31,-29,-30,-33,-27,-26,-28,-30,-31,-30,-29,-31,-36,-36,-34,-28,-20,-28,-22,-13,-20,-34,-29,-31,-60,-133,-207,-166,236,733,1036,609,25,-162,-136,-73,-43,-43,-41,-36,-35,-34,-33,-32,-35,-33,-38,-38,-34,-33,-31,-29,-32,-30,-29,-33,-30,-28,-20,-18,-10,-5,0,6,7,4,2,3,-3,-8,-11,-13,-15,-15,-17,-17,-19,-20,-22,-20,-20,-16,-18,-17,-18,-18,-17,-15,-18,-19,-17,-16,-19,-18,-12,-10,-11,-13,-14,-15,-15,-18,-17,-16,-15,-22,-18,-17,-18,-15,-18,-17,-16,-17,-19,-20,-21,-20,-22,-22,-24,-23
2019-06-05,15:35:40.670,-45,-46,-44,-45,-45,-47,-52,-45,-43,-34,-31,-32,-28,-32,-44,-44,-37,-46,-89,-182,-225,-11,479,944,920,265,-120,-173,-117,-69,-54,-56,-46,-41,-35,-31,-31,-34,-33,-30,-28,-25,-25,-27,-23,-23,-23,-23,-22,-19,-18,-11,-5,1,10,22,30,31,31,21,13,3,-5,-12,-14,-21,-19,-17,-18,-20,-19,-20,-19,-15,-16,-17,-20,-20,-20,-17,-19,-19,-20,-18,-19,-22,-21,-19,-17,-22,-22,-19,-22,-23,-20,-19,-20,-21,-20,-19,-22,-19,-18,-17,-21,-23,-22,-20,-23,-25,-26,-27,-26,-24,-27,-30,-34,-30,-19,-15,-14,-14,-12,-20,-27,-26,-24,-32
2019-06-05,15:35:41.695,-86,-157,-191,6,409,754,591,72,-170,-211,-154,-94,-60,-55,-48,-43,-39,-36,-32,-29,-27,-25,-21,-15,-14,-7,-4,-1,3,9,12,22,33,44,49,58,60,63,63,60,48,33,17,6,-3,0,-7,-21,-25,-20,-14,-9,-7,-4,-2,0,-2,-2,-8,-6,-10,-7,-12,-12,-15,-19,-23,-24,-31,-31,-32,-33,-31,-29,-33,-34,-32,-31,-32,-34,-35,-38,-36,-37,-37,-36,-36,-33,-37,-37,-39,-40,-42,-45,-48,-51,-43,-36,-29,-36,-37,-28,-31,-37,-35,-34,-52,-107,-181,-201,64,510,854,648,90,-167,-184,-118,-67,-51,-42,-34,-32,-23,-20,-21,-17,-14
2019-06-05,15:35:42.719,-50,-49,-50,-49,-48,-43,-40,-37,-33,-30,-24,-18,-15,-6,-3,3,5,10,10,2,0,-6,-18,-23,-27,-33,-34,-35,-36,-36,-39,-36,-37,-39,-38,-40,-36,-31,-31,-31,-28,-27,-30,-30,-35,-33,-35,-34,-36,-37,-36,-36,-33,-37,-37,-37,-34,-34,-32,-26,-27,-33,-34,-32,-33,-31,-32,-31,-31,-29,-29,-30,-28,-28,-28,-29,-28,-31,-31,-29,-37,-36,-29,-21,-19,-23,-21,-14,-23,-30,-31,-30,-61,-136,-209,-158,260,775,1069,605,19,-151,-120,-58,-39,-37,-35,-31,-29,-30,-25,-23,-28,-28,-29,-26,-24,-27,-28,-30,-26,-27,-29,-30,-30,-32,-30,-25
2019-06-05,15:35:43.744,-64,-58,-49,-40,-39,-37,-41,-38,-43,-45,-47,-47,-47,-46,-50,-47,-46,-48,-48,-50,-46,-43,-43,-42,-41,-43,-42,-42,-37,-35,-37,-36,-35,-36,-36,-37,-38,-37,-33,-35,-35,-33,-32,-32,-33,-32,-33,-31,-31,-32,-30,-28,-27,-27,-26,-24,-27,-27,-27,-26,-23,-24,-24,-25,-26,-23,-25,-27,-23,-23,-30,-35,-32,-19,-14,-18,-14,-8,-13,-25,-22,-23,-40,-98,-193,-209,128,656,1098,868,172,-119,-124,-69,-44,-43,-41,-36,-35,-35,-33,-38,-38,-36,-33,-31,-30,-27,-26,-27,-26,-29,-32,-34,-35,-34,-32,-23,-17,-12,-6,3,9,10,9,4,-1,-9
2019-06-05,15:35:44.769,-50,-54,-52,-52,-49,-50,-50,-49,-51,-51,-50,-42,-48,-48,-46,-51,-44,-38,-37,-34,-32,-27,-26,-28,-27,-28,-30,-28,-32,-31,-28,-30,-30,-31,-31,-31,-31,-35,-34,-37,-37,-35,-34,-37,-34,-29,-31,-30,-33,-31,-31,-30,-32,-31,-29,-32,-41,-41,-34,-29,-24,-25,-20,-21,-27,-30,-30,-31,-57,-118,-187,-148,226,689,923,465,-29,-178,-159,-96,-54,-41,-35,-32,-24,-19,-19,-18,-18,-19,-19,-15,-14,-11,-10,-9,-4,-3,0,6,14,22,32,39,47,51,57,61,53,39,31,16,5,0,-6,-13,-14,-10,-13,-19,-14,-17,-14,-16,-16,-15,-18,-19
2019-06-05,15:35:45.793,-57,-54,-53,-51,-52,-54,-53,-56,-58,-55,-52,-50,-53,-55,-56,-53,-51,-49,-50,-47,-48,-50,-54,-52,-50,-47,-45,-43,-44,-43,-44,-44,-45,-43,-41,-41,-43,-47,-44,-38,-28,-21,-29,-24,-24,-33,-30,-26,-34,-67,-143,-201,-60,359,793,821,262,-113,-194,-142,-82,-48,-42,-35,-29,-24,-19,-22,-20,-23,-22,-16,-14,-14,-18,-19,-13,-11,-5,-4,-5,0,6,11,20,26,33,38,36,30,16,3,-6,-17,-23,-28,-25,-26,-33,-31,-32,-30,-28,-30,-30,-27,-30,-29,-27,-23,-20,-19,-22,-23,-22,-20,-21,-22,-22,-21,-23,-15,-18,-23,-23,-22,-24,-24
2019-06-05,15:35:46.818,-78,-78,-75,-74,-76,-72,-71,-70,-68,-70,-69,-67,-66,-65,-65,-65,-64,-62,-64,-63,-64,-63,-61,-59,-63,-69,-64,-62,-48,-50,-54,-44,-41,-47,-54,-52,-58,-99,-186,-236,-58,421,900,955,316,-105,-168,-115,-67,-62,-58,-53,-49,-53,-51,-48,-48,-45,-41,-39,-36,-34,-37,-33,-32,-35,-38,-39,-39,-36,-34,-31,-28,-22,-13,-7,0,6,7,4,-1,-6,-10,-9,-10,-12,-15,-15,-15,-14,-17,-15,-16,-16,-16,-15,-14,-13,-12,-11,-10,-9,-9,-10,-9,-9,-13,-14,-13,-14,-13,-7,-3,-6,-8,-8,-11,-12,-9,-7,-10,-3,-5,-1,-4,-6,-7,-7
2019-06-05,15:35:47.842,-37,-34,-38,-37,-36,-34,-34,-34,-33,-32,-32,-31,-35,-34,-37,-40,-45,-47,-42,-31,-26,-34,-31,-29,-35,-38,-34,-36,-74,-146,-219,-161,265,787,1076,580,-1,-162,-128,-77,-57,-54,-49,-47,-48,-45,-43,-45,-40,-41,-41,-42,-38,-37,-36,-37,-38,-36,-40,-40,-37,-38,-32,-21,-13,-6,3,13,16,11,4,-3,-10,-17,-24,-25,-28,-31,-29,-30,-28,-31,-30,-28,-26,-26,-26,-28,-27,-25,-23,-22,-22,-23,-25,-26,-28,-26,-24,-26,-22,-21,-22,-20,-20,-21,-25,-24,-23,-21,-20,-21,-21,-24,-31,-31,-26,-29,-27,-26,-25,-25,-25,-23,-24,-27,-32,-35
2019-06-05,15:35:48.867,-21,-26,-28,-21,-17,-8,-13,-10,-7,-14,-18,-17,-13,-37,-90,-161,-146,195,634,900,497,-4,-166,-160,-94,-53,-37,-31,-24,-20,-16,-13,-13,-12,-10,-8,-10,-4,-3,-2,1,3,9,13,20,23,28,37,41,47,51,51,55,49,39,26,15,3,-7,-16,-23,-25,-23,-23,-25,-29,-25,-21,-21,-19,-19,-18,-18,-19,-22,-21,-18,-21,-22,-26,-24,-26,-23,-25,-29,-28,-28,-22,-25,-28,-31,-25,-26,-28,-29,-31,-32,-29,-32,-27,-27,-28,-30,-32,-28,-27,-28,-27,-26,-26,-30,-28,-31,-37,-41,-32,-24,-17,-23,-24,-17,-18,-26,-26,-27,-44,-93,-176
2019-06-05,15:35:49.892,-205,85,569,965,760,139,-143,-153,-91,-47,-39,-34,-29,-28,-26,-29,-29,-23,-23,-22,-24,-21,-22,-16,-17,-21,-22,-21,-19,-18,-15,-13,-12,-5,0,2,10,12,11,7,2,-4,-11,-17,-21,-23,-21,-21,-21,-23,-26,-27,-30,-29,-27,-24,-27,-24,-23,-25,-21,-20,-22,-24,-24,-20,-25,-26,-27,-29,-25,-24,-24,-20,-19,-26,-26,-24,-24,-20,-25,-23,-23,-19,-22,-23,-21,-22,-21,-19,-20,-17,-16,-20,-18,-20,-22,-24,-22,-21,-23,-21,-28,-29,-21,-12,-6,-12,-12,-4,-11,-20,-15,-16,-30,-86,-175,-198,114,630,1071,884,191,-112,-122,-65,-31,-30
2019-06-05,15:35:50.916,-34,-37,-37,-35,-37,-37,-35,-34,-34,-33,-36,-28,-26,-27,-30,-31,-33,-34,-36,-35,-33,-33,-31,-20,-12,-6,-2,0,0,-2,-5,-10,-17,-19,-18,-16,-19,-21,-24,-20,-18,-21,-22,-25,-26,-26,-26,-29,-25,-27,-25,-27,-27,-29,-28,-30,-30,-28,-28,-27,-26,-28,-25,-27,-25,-24,-23,-22,-25,-26,-27,-28,-28,-26,-25,-27,-28,-28,-25,-24,-25,-23,-21,-23,-25,-24,-21,-22,-23,-25,-26,-31,-36,-36,-28,-23,-16,-21,-11,-12,-22,-24,-21,-30,-67,-142,-205,-102,331,813,959,396,-64,-172,-130,-74,-47,-41,-35,-33,-32,-25,-20,-19,-18,-20,-17,-15
2019-06-05,15:35:51.941,-6,-4,-5,-4,-2,0,4,11,14,16,31,40,47,53,58,63,56,45,34,26,16,4,0,-3,-6,-9,-8,-9,-6,-10,-12,-12,-9,-10,-10,-12,-10,-8,-10,-12,-13,-13,-12,-14,-16,-16,-15,-14,-13,-15,-12,-14,-13,-17,-17,-20,-20,-19,-19,-18,-17,-15,-19,-20,-25,-23,-22,-23,-23,-22,-21,-22,-21,-19,-21,-22,-28,-32,-26,-18,-16,-20,-17,-10,-14,-20,-19,-19,-35,-86,-162,-169,146,595,902,564,28,-171,-176,-105,-61,-44,-40,-38,-30,-27,-23,-21,-19,-15,-13,-13,-12,-9,-8,-7,-7,-2,3,6,7,12,23,30,35,41,48,49
2019-06-05,15:35:52.966,52,40,32,22,9,1,-4,-10,-14,-15,-11,-13,-12,-11,-12,-12,-13,-10,-10,-13,-12,-11,-10,-12,-10,-14,-16,-17,-16,-15,-18,-16,-16,-18,-19,-18,-19,-18,-17,-22,-19,-20,-22,-21,-24,-22,-20,-19,-18,-19,-23,-23,-18,-16,-16,-12,-17,-20,-21,-21,-20,-20,-22,-25,-24,-22,-27,-33,-32,-26,-15,-16,-20,-17,-14,-23,-23,-20,-29,-63,-146,-212,-104,345,839,1024,463,-40,-157,-108,-59,-44,-45,-42,-39,-39,-35,-36,-31,-34,-28,-27,-27,-25,-22,-24,-27,-29,-29,-30,-28,-34,-36,-31,-22,-18,-14,-1,8,10,12,6,-1,-5,-7,-9,-13,-13
2019-06-05,15:35:53.990,-1,-4,-5,-3,-7,-3,-3,-2,-5,-4,-5,-6,-4,-4,-3,-6,-4,-1,-2,-8,-9,-7,-9,-7,-3,-7,-9,-8,-8,-3,-3,-7,-4,-6,-9,-13,-10,-9,-7,-9,-7,-8,-7,-9,-7,-9,-11,-13,-15,-14,-15,-14,-13,-14,-15,-17,-14,-16,-16,-17,-24,-31,-23,-16,-6,-11,-10,-2,-8,-16,-13,-16,-30,-84,-177,-210,74,584,1033,884,197,-124,-141,-82,-44,-36,-33,-31,-33,-31,-26,-28,-26,-25,-22,-19,-22,-24,-22,-22,-24,-25,-24,-22,-25,-21,-18,-8,0,9,19,27,33,34,28,22,12,3,-3,-9,-13,-13,-10,-15,-16,-21,-20,-19
2019-06-05,15:35:55.015,-5,-1,-4,-5,-2,-1,-3,-4,-3,-1,-5,-6,-6,-4,-7,-9,-9,-9,-7,-5,-4,-9,-6,-6,-8,-11,-12,-11,-9,-9,-11,-11,-14,-16,-13,-11,-8,-14,-16,-19,-18,-19,-19,-17,-19,-20,-23,-22,-16,-9,-5,-5,-4,-6,-14,-14,-9,-21,-55,-129,-180,4,423,821,731,166,-130,-191,-137,-80,-49,-41,-33,-29,-19,-22,-20,-22,-20,-18,-16,-15,-13,-7,-2,-2,-3,1,5,8,13,22,31,39,47,47,53,47,38,24,12,4,-6,-15,-23,-28,-24,-24,-21,-17,-25,-24,-21,-21,-21,-21,-19,-19,-18,-18,-24,-26,-26,-28,-31,-36,-34,-34
2019-06-05,15:35:56.039,-25,-22,-20,-23,-25,-26,-22,-26,-27,-25,-26,-24,-26,-23,-24,-24,-23,-23,-26,-26,-26,-28,-28,-27,-28,-27,-25,-25,-24,-23,-26,-32,-30,-24,-16,-14,-15,-7,-7,-17,-20,-19,-26,-62,-140,-199,-85,354,825,955,392,-65,-168,-120,-63,-41,-39,-41,-34,-31,-30,-28,-24,-22,-20,-21,-22,-21,-18,-15,-17,-13,-15,-16,-15,-14,-12,-6,0,5,9,18,23,24,17,11,10,4,-6,-9,-9,-9,-11,-14,-12,-13,-12,-17,-16,-17,-20,-19,-22,-19,-17,-18,-19,-19,-17,-21,-20,-17,-18,-17,-20,-21,-19,-17,-15,-16,-16,-16,-15,-16,-18,-20,-22,-25
2019-06-05,15:35:57.064,-37,-40,-39,-35,-32,-34,-34,-32,-31,-32,-29,-30,-29,-29,-30,-26,-25,-28,-28,-31,-41,-39,-31,-20,-21,-23,-13,-14,-25,-26,-24,-31,-76,-168,-216,5,506,992,981,300,-92,-138,-85,-42,-41,-39,-39,-35,-34,-35,-37,-35,-37,-36,-33,-30,-31,-34,-31,-34,-34,-35,-36,-38,-39,-37,-32,-25,-19,-11,-1,9,9,5,2,1,-5,-9,-15,-17,-18,-19,-19,-21,-23,-20,-23,-24,-25,-28,-25,-25,-23,-22,-25,-26,-24,-23,-20,-20,-22,-22,-24,-22,-24,-23,-23,-19,-18,-20,-22,-24,-23,-21,-23,-20,-21,-24,-21,-21,-19,-22,-20,-22,-21,-22,-19,-16
2019-06-05,15:35:58.089,-36,-37,-34,-34,-34,-37,-40,-32,-35,-44,-43,-40,-32,-29,-34,-27,-27,-37,-35,-34,-39,-71,-141,-200,-109,300,759,879,337,-86,-190,-151,-93,-61,-53,-44,-38,-31,-29,-29,-27,-26,-27,-23,-20,-19,-18,-15,-14,-9,-6,-2,-1,6,12,23,33,43,47,56,56,51,40,24,10,-1,-10,-20,-25,-26,-30,-27,-27,-26,-24,-26,-24,-21,-23,-21,-19,-19,-19,-17,-18,-21,-19,-20,-21,-17,-15,-17,-18,-17,-18,-18,-16,-16,-20,-20,-21,-22,-25,-27,-26,-26,-30,-27,-23,-22,-22,-25,-26,-28,-29,-28,-27,-26,-28,-27,-29,-38,-34,-31,-26,-23,-27,-20
2019-06-05,15:35:59.113,-31,-41,-40,-42,-47,-81,-156,-211,-98,318,747,812,280,-113,-211,-159,-97,-67,-58,-55,-48,-45,-41,-39,-36,-34,-32,-28,-29,-25,-20,-19,-19,-11,-16,-9,-4,3,11,19,32,39,44,50,52,47,39,26,18,9,2,-3,-5,-2,-3,-2,-2,-2,-4,0,2,4,6,0,5,8,8,11,11,6,5,3,2,0,0,1,0,2,1,1,0,-1,-1,-1,0,0,2,4,4,6,6,7,7,9,8,11,12,12,17,16,12,12,16,12,12,12,11,13,17,19,19,17,20,15,7,13,16,25,24,22,33,33,25,24,29,18,-19,-106
2019-06-05,15:36:00.138,-302,-147,323,804,914,306,-139,-224,-171,-125,-119,-117,-112,-107,-100,-99,-93,-98,-95,-90,-87,-88,-86,-83,-79,-76,-78,-76,-83,-82,-81,-77,-74,-70,-62,-50,-39,-27,-22,-24,-23,-26,-30,-34,-38,-40,-37,-38,-39,-39,-39,-37,-38,-38,-36,-38,-38,-37,-36,-37,-35,-33,-32,-33,-34,-32,-30,-29,-25,-24,-22,-20,-18,-16,-18,-22,-19,-20,-21,-19,-15,-16,-21,-20,-20,-22,-24,-23,-22,-20,-13,-14,-14,-15,-17,-18,-18,-18,-16,-15,-12,-11,-14,-19,-18,-15,-14,-18,-25,-26,-19,-13,-8,-11,-5,-3,-6,-13,-12,-10,-31,-93,-171,-165,194,692,1029,667
2019-06-05,15:36:01.163,-34,-249,-235,-172,-133,-130,-124,-120,-114,-108,-106,-102,-103,-101,-98,-96,-89,-91,-90,-87,-88,-88,-86,-84,-82,-75,-67,-55,-45,-36,-25,-14,-11,-20,-30,-39,-45,-51,-57,-63,-66,-67,-69,-67,-68,-69,-63,-64,-61,-60,-63,-65,-62,-60,-63,-61,-62,-60,-60,-62,-59,-57,-53,-57,-55,-49,-47,-44,-42,-43,-44,-40,-40,-41,-38,-40,-41,-42,-42,-38,-34,-35,-40,-40,-41,-36,-32,-33,-32,-31,-32,-29,-26,-34,-39,-37,-35,-31,-28,-32,-27,-25,-34,-40,-37,-40,-50,-94,-160,-177,95,504,791,502,16,-170,-184,-118,-69,-44,-41,-31,-27,-25,-18,-19,-14,-9
2019-06-05,15:36:02.187,-70,-67,-66,-59,-52,-47,-41,-32,-26,-19,-9,5,10,24,30,39,47,47,39,31,13,0,-8,-18,-23,-25,-31,-32,-30,-30,-25,-27,-27,-22,-23,-20,-16,-13,-10,-10,-11,-10,-12,-17,-17,-14,-15,-17,-15,-16,-17,-18,-20,-22,-26,-32,-34,-37,-36,-35,-33,-34,-34,-31,-26,-26,-28,-31,-33,-30,-26,-24,-21,-20,-24,-24,-18,-25,-28,-29,-24,-17,-15,-16,-12,-10,-20,-24,-22,-30,-62,-139,-190,-51,369,789,817,275,-102,-188,-136,-75,-52,-50,-45,-42,-44,-39,-41,-39,-37,-40,-41,-40,-34,-30,-27,-22,-21,-18,-15,-11,-11,-4,5,7,4,3
2019-06-05,15:36:03.212,-87,-48,-34,-30,-41,-54,-65,-76,-84,-86,-89,-94,-94,-93,-94,-90,-89,-87,-85,-83,-82,-78,-71,-72,-70,-69,-62,-61,-60,-57,-55,-53,-48,-48,-49,-48,-45,-44,-44,-43,-44,-47,-45,-48,-45,-46,-44,-42,-41,-43,-41,-39,-38,-39,-36,-35,-33,-34,-33,-32,-27,-28,-26,-38,-37,-32,-20,-17,-22,-17,-11,-16,-27,-24,-27,-48,-117,-192,-169,206,696,1014,633,51,-143,-115,-56,-31,-33,-30,-31,-29,-28,-26,-25,-26,-24,-22,-24,-24,-23,-25,-24,-22,-21,-22,-24,-26,-18,-17,-10,-3,8,16,23,27,25,23,16,12,6,-2,-5,-9,-10,-10,-13,-13
2019-06-05,15:36:04.236,-79,-77,-77,-76,-77,-78,-77,-73,-71,-68,-67,-68,-66,-67,-68,-65,-65,-66,-63,-64,-65,-62,-61,-61,-62,-65,-63,-65,-62,-63,-64,-61,-60,-54,-56,-54,-49,-50,-50,-47,-48,-48,-51,-49,-49,-52,-55,-51,-43,-35,-28,-31,-22,-23,-29,-33,-29,-33,-65,-135,-195,-91,313,743,824,296,-91,-189,-151,-87,-51,-43,-34,-28,-26,-26,-21,-20,-19,-12,-11,-11,-7,-3,-1,0,8,14,20,24,33,42,55,64,73,80,82,85,78,64,49,36,22,13,6,2,1,-2,1,-2,-3,-4,0,-4,-3,-4,2,5,3,1,1,0,2,1,-2,0,-4,-1
2019-06-05,15:36:05.261,-56,-54,-56,-56,-59,-57,-54,-57,-60,-57,-58,-57,-60,-59,-57,-54,-49,-46,-51,-54,-50,-50,-53,-55,-49,-53,-58,-57,-48,-40,-42,-41,-35,-37,-42,-46,-48,-54,-86,-161,-209,-68,349,766,775,228,-135,-216,-159,-96,-72,-69,-65,-62,-59,-57,-55,-52,-51,-47,-47,-44,-42,-41,-38,-36,-32,-29,-28,-23,-21,-13,-4,3,11,15,19,21,16,8,-1,-12,-17,-25,-30,-33,-36,-39,-40,-41,-43,-45,-44,-45,-42,-41,-38,-36,-33,-36,-35,-37,-40,-39,-39,-40,-39,-38,-35,-36,-40,-37,-37,-34,-30,-28,-29,-27,-27,-28,-28,-29,-31,-31,-32,-33,-34,-29
2019-06-05,15:36:06.286,-162,-160,-156,-154,-154,-151,-148,-146,-141,-139,-142,-140,-137,-143,-142,-134,-124,-116,-118,-111,-108,-113,-114,-109,-112,-140,-213,-276,-221,198,699,962,482,-66,-219,-177,-115,-98,-94,-91,-85,-80,-76,-75,-74,-74,-69,-69,-68,-65,-60,-61,-58,-62,-61,-63,-62,-63,-57,-55,-53,-40,-31,-23,-10,0,-1,-5,-8,-11,-17,-21,-25,-25,-24,-23,-25,-19,-22,-20,-18,-18,-18,-19,-19,-20,-17,-15,-12,-10,-10,-7,-5,-8,-8,-8,-7,-9,-9,-8,-6,-7,-9,-12,-11,-14,-10,-7,-8,-6,-8,-7,-7,-10,-9,-8,-7,-8,-8,-5,-7,-6,-5,-6,-8,-8,-6,-8
2019-06-05,15:36:07.310,-174,-169,-167,-166,-163,-169,-172,-164,-150,-142,-143,-138,-131,-127,-137,-133,-132,-147,-201,-290,-313,-10,505,948,761,85,-209,-218,-160,-121,-122,-115,-114,-110,-105,-102,-99,-99,-95,-93,-90,-89,-86,-86,-86,-86,-85,-89,-92,-91,-87,-82,-78,-70,-63,-52,-44,-34,-30,-30,-27,-29,-33,-35,-39,-35,-33,-33,-30,-30,-29,-31,-32,-25,-23,-29,-32,-31,-29,-28,-26,-25,-27,-25,-26,-28,-26,-28,-29,-28,-30,-24,-21,-20,-22,-23,-24,-23,-23,-20,-17,-20,-22,-19,-19,-15,-22,-22,-18,-20,-20,-21,-18,-18,-16,-13,-11,-13,-13,-18,-21,-20,-14,0,-4,-7,-2,-1
2019-06-05,15:36:08.335,-155,-153,-151,-159,-200,-292,-341,-132,361,848,857,191,-205,-251,-194,-150,-141,-135,-131,-124,-121,-117,-117,-114,-108,-103,-104,-100,-96,-97,-94,-93,-98,-97,-97,-94,-92,-89,-84,-75,-69,-62,-50,-39,-34,-26,-26,-27,-34,-35,-40,-42,-43,-42,-40,-43,-40,-40,-39,-38,-41,-39,-36,-35,-35,-37,-34,-32,-27,-28,-26,-24,-29,-25,-23,-23,-23,-25,-22,-19,-17,-18,-18,-15,-13,-15,-14,-19,-17,-15,-12,-15,-10,-12,-14,-11,-12,-13,-15,-21,-24,-23,-15,-5,-4,-2,0,-1,-9,-4,-5,-21,-68,-152,-181,84,544,935,697,108,-143,-168,-99,-49,-30,-26,-19,-15
2019-06-05,15:36:09.360,-118,-113,-115,-111,-105,-104,-100,-94,-90,-90,-85,-80,-73,-68,-62,-51,-43,-34,-23,-13,-9,-1,4,4,-2,-12,-26,-36,-47,-58,-61,-63,-64,-65,-63,-59,-62,-61,-58,-57,-57,-54,-51,-48,-48,-45,-45,-44,-45,-44,-45,-47,-47,-47,-44,-46,-45,-46,-42,-41,-39,-45,-44,-44,-42,-44,-49,-49,-46,-43,-44,-49,-47,-43,-41,-46,-48,-40,-31,-31,-34,-30,-27,-38,-39,-39,-39,-68,-138,-196,-124,266,701,834,339,-89,-206,-162,-92,-58,-50,-46,-43,-39,-35,-30,-31,-32,-27,-27,-25,-19,-16,-15,-15,-15,-14,-8,-10,-7,-1,5,13,19,24,31,31,29
2019-06-05,15:36:10.384,-70,-79,-83,-92,-99,-105,-102,-105,-108,-107,-105,-102,-98,-99,-96,-93,-92,-85,-89,-88,-87,-84,-82,-79,-79,-77,-73,-76,-70,-71,-72,-73,-72,-68,-68,-66,-67,-65,-61,-57,-57,-57,-56,-55,-51,-55,-53,-52,-54,-52,-51,-50,-45,-42,-39,-41,-44,-44,-48,-41,-35,-27,-30,-32,-23,-23,-34,-32,-27,-46,-94,-177,-207,67,551,973,816,166,-137,-147,-79,-45,-43,-39,-31,-32,-31,-31,-27,-26,-30,-28,-27,-22,-20,-20,-25,-23,-23,-27,-33,-29,-27,-29,-24,-22,-14,-9,-4,7,9,9,12,6,4,-1,-4,-8,-4,-4,-6,-6,-5,-8,-10,-9,-12,-15
2019-06-05,15:36:11.409,-83,-81,-81,-82,-79,-81,-78,-75,-75,-74,-71,-73,-71,-67,-66,-64,-65,-65,-65,-65,-61,-62,-60,-58,-55,-55,-48,-46,-49,-51,-50,-46,-43,-46,-45,-46,-43,-41,-40,-41,-43,-47,-45,-35,-27,-27,-30,-24,-24,-33,-34,-28,-36,-76,-169,-227,-53,429,936,1019,361,-80,-150,-97,-48,-46,-47,-42,-38,-34,-33,-34,-31,-27,-28,-27,-24,-22,-22,-21,-24,-25,-28,-33,-33,-37,-42,-41,-38,-31,-25,-15,-5,4,3,2,5,0,-5,-6,-6,-5,-8,-11,-9,-11,-15,-11,-13,-13,-13,-15,-11,-9,-13,-15,-15,-14,-11,-11,-15,-14,-14,-15,-16,-13,-14,-12
2019-06-05,15:36:12.434,-54,-51,-45,-50,-49,-51,-46,-45,-45,-46,-39,-41,-41,-44,-42,-40,-40,-41,-42,-42,-39,-40,-43,-41,-46,-50,-51,-45,-34,-32,-31,-28,-32,-39,-42,-39,-42,-72,-144,-211,-138,275,758,931,387,-81,-203,-163,-105,-70,-65,-58,-49,-48,-44,-45,-42,-41,-35,-32,-30,-24,-29,-28,-27,-22,-15,-15,-16,-11,-6,4,12,22,28,29,33,32,24,16,6,0,-8,-14,-18,-17,-19,-19,-20,-20,-19,-23,-21,-17,-14,-14,-15,-14,-14,-12,-9,-12,-11,-13,-12,-11,-12,-13,-11,-9,-11,-11,-12,-11,-14,-12,-11,-14,-13,-15,-15,-13,-12,-9,-10,-10,-9,-9
2019-06-05,15:36:13.458,-26,-29,-27,-32,-37,-39,-31,-20,-21,-23,-16,-20,-26,-27,-22,-28,-60,-128,-186,-77,316,747,802,262,-106,-202,-159,-93,-55,-48,-42,-37,-31,-29,-29,-29,-24,-25,-19,-17,-12,-6,-4,-2,-2,-1,4,4,11,15,22,26,35,40,44,46,38,28,16,9,0,-10,-18,-20,-26,-23,-26,-26,-26,-25,-27,-27,-25,-28,-28,-29,-31,-30,-31,-29,-31,-32,-30,-31,-30,-29,-34,-31,-29,-27,-24,-27,-27,-28,-27,-24,-25,-28,-28,-29,-28,-33,-30,-26,-26,-26,-27,-29,-28,-29,-27,-25,-23,-24,-26,-30,-38,-35,-29,-24,-22,-27,-20,-19,-27,-28,-26,-30
2019-06-05,15:36:14.483,-100,-182,-239,-138,307,793,978,432,-70,-182,-139,-81,-66,-67,-68,-64,-59,-56,-55,-53,-54,-56,-53,-51,-50,-52,-49,-48,-50,-53,-52,-52,-57,-57,-54,-48,-44,-37,-27,-19,-14,-11,-12,-15,-19,-27,-26,-29,-29,-30,-26,-28,-32,-34,-33,-33,-34,-29,-30,-28,-28,-29,-32,-26,-22,-23,-25,-19,-20,-21,-19,-16,-18,-23,-20,-20,-22,-19,-19,-21,-20,-18,-15,-12,-11,-11,-10,-11,-10,-11,-13,-14,-14,-15,-17,-15,-17,-16,-17,-14,-12,-16,-20,-20,-16,-9,-4,-8,-6,0,-3,-12,-11,-13,-34,-93,-182,-189,153,676,1101,837,161,-108,-106,-50,-23,-31
2019-06-05,15:36:15.507,-67,-63,-61,-61,-61,-59,-55,-54,-51,-51,-53,-51,-53,-55,-57,-59,-60,-64,-64,-65,-62,-59,-54,-48,-36,-31,-23,-17,-18,-19,-20,-26,-27,-30,-26,-30,-29,-27,-28,-27,-27,-26,-30,-32,-28,-27,-29,-31,-29,-30,-25,-26,-24,-26,-26,-25,-26,-26,-26,-22,-23,-23,-23,-20,-21,-22,-17,-17,-19,-17,-16,-17,-18,-21,-21,-19,-21,-18,-18,-20,-18,-16,-15,-17,-15,-20,-20,-20,-15,-20,-25,-23,-18,-13,-10,-11,-7,-8,-19,-18,-15,-19,-54,-134,-193,-66,364,826,894,318,-84,-174,-131,-74,-45,-46,-37,-31,-28,-25,-23,-23,-19,-18,-17,-14,-12,-12
2019-06-05,15:36:16.532,-38,-38,-36,-36,-30,-28,-24,-16,-6,5,11,14,22,25,22,10,5,-5,-18,-23,-26,-31,-31,-32,-38,-37,-37,-39,-36,-38,-37,-36,-34,-34,-34,-31,-28,-29,-30,-31,-28,-29,-32,-30,-26,-26,-26,-29,-29,-31,-29,-27,-30,-30,-27,-27,-25,-23,-24,-22,-21,-20,-21,-26,-26,-22,-19,-21,-23,-27,-32,-38,-32,-23,-16,-15,-17,-14,-17,-27,-27,-22,-31,-66,-146,-198,-46,378,813,818,257,-104,-184,-131,-72,-43,-40,-36,-28,-28,-25,-23,-25,-24,-22,-19,-15,-11,-12,-12,-11,-10,-9,-5,-6,-2,0,5,16,22,23,29,31,27,19,12,8,0
2019-06-05,15:36:17.557,-47,-52,-55,-56,-53,-54,-56,-55,-54,-52,-49,-52,-50,-51,-50,-49,-46,-44,-45,-45,-44,-45,-47,-50,-47,-46,-49,-45,-45,-45,-39,-38,-38,-39,-36,-34,-35,-37,-37,-40,-38,-36,-37,-39,-38,-39,-39,-40,-37,-36,-37,-36,-36,-39,-37,-38,-39,-40,-44,-48,-43,-41,-29,-28,-29,-27,-28,-38,-33,-27,-41,-91,-183,-221,35,542,1008,938,263,-94,-124,-72,-40,-45,-45,-39,-38,-37,-35,-33,-34,-36,-30,-32,-35,-37,-35,-38,-38,-39,-42,-48,-49,-52,-55,-50,-48,-44,-34,-22,-11,-4,-1,3,2,-3,-7,-10,-9,-10,-6,-5,-5,-7,-6,-9,-11,-11
2019-06-05,15:36:18.581,-39,-36,-36,-36,-34,-36,-35,-33,-35,-35,-34,-34,-34,-38,-35,-38,-37,-35,-35,-34,-33,-35,-35,-38,-39,-35,-36,-37,-35,-36,-36,-35,-35,-32,-28,-27,-28,-31,-29,-30,-26,-28,-24,-21,-24,-25,-26,-27,-32,-28,-23,-13,-10,-9,-6,-5,-17,-15,-11,-20,-61,-159,-217,-21,484,996,1062,380,-55,-119,-71,-37,-37,-36,-35,-31,-31,-32,-33,-35,-31,-29,-30,-31,-29,-32,-31,-36,-37,-43,-49,-49,-50,-55,-48,-44,-39,-32,-23,-10,-3,0,0,0,-2,-6,-12,-9,-12,-13,-13,-12,-14,-15,-16,-17,-18,-17,-17,-19,-25,-25,-23,-19,-18,-18,-17,-17
2019-06-05,15:36:19.606,-43,-39,-40,-42,-43,-42,-43,-43,-42,-40,-40,-42,-40,-36,-34,-29,-31,-35,-35,-36,-34,-34,-31,-34,-28,-29,-28,-30,-36,-33,-33,-30,-28,-31,-36,-37,-32,-26,-23,-21,-16,-16,-23,-27,-22,-24,-52,-120,-190,-154,223,698,935,465,-30,-181,-158,-93,-54,-44,-38,-36,-31,-26,-21,-18,-22,-23,-20,-20,-18,-15,-12,-9,-7,-6,-4,1,6,16,20,27,38,40,51,55,56,48,38,29,22,12,5,0,0,-4,-2,-2,-5,-5,-5,-5,-7,-5,-2,-3,-2,-5,-3,-4,-5,-4,-8,-8,-6,-9,-11,-13,-12,-13,-13,-20,-21,-22,-22,-26,-26,-24
2019-06-05,15:36:20.631,-55,-56,-58,-60,-61,-63,-63,-63,-63,-68,-68,-65,-62,-64,-67,-68,-65,-58,-53,-56,-56,-45,-52,-59,-54,-52,-64,-110,-191,-219,39,488,867,665,98,-165,-191,-125,-75,-61,-55,-50,-47,-44,-45,-42,-41,-40,-34,-36,-29,-28,-26,-23,-17,-19,-17,-17,-16,-10,-7,0,5,9,14,16,18,12,4,0,-3,-10,-17,-22,-27,-28,-24,-27,-29,-27,-28,-25,-29,-27,-26,-27,-27,-24,-25,-24,-24,-27,-28,-27,-30,-33,-32,-27,-27,-28,-27,-26,-28,-26,-26,-28,-30,-28,-31,-30,-29,-29,-30,-29,-26,-24,-25,-26,-24,-24,-24,-23,-21,-21,-25,-27,-25,-20
2019-06-05,15:36:21.655,-84,-82,-74,-64,-59,-62,-61,-54,-59,-69,-60,-61,-77,-126,-216,-243,39,537,978,837,176,-140,-157,-100,-67,-63,-62,-57,-56,-53,-54,-55,-52,-50,-47,-47,-47,-48,-49,-52,-53,-50,-57,-59,-62,-62,-59,-56,-50,-48,-39,-27,-19,-16,-17,-19,-20,-27,-29,-31,-32,-31,-31,-31,-32,-29,-30,-33,-32,-31,-27,-25,-22,-21,-23,-20,-23,-23,-19,-17,-17,-20,-19,-19,-17,-19,-19,-21,-24,-23,-22,-22,-23,-20,-16,-14,-19,-18,-21,-22,-21,-22,-21,-19,-22,-25,-29,-27,-28,-28,-25,-26,-26,-24,-28,-27,-23,-25,-31,-30,-24,-16,-13,-16,-14,-12,-19,-23
2019-06-05,15:36:22.680,-70,-75,-105,-183,-256,-182,257,781,1060,544,-23,-176,-143,-92,-81,-85,-83,-81,-78,-75,-73,-71,-72,-70,-66,-64,-64,-60,-58,-60,-62,-65,-68,-70,-71,-74,-72,-62,-57,-50,-41,-31,-20,-17,-16,-13,-15,-15,-17,-20,-26,-25,-28,-26,-25,-28,-28,-29,-26,-24,-27,-25,-24,-21,-20,-17,-16,-20,-19,-19,-22,-24,-23,-20,-21,-19,-21,-21,-18,-18,-21,-19,-21,-20,-23,-22,-22,-22,-21,-20,-21,-20,-20,-22,-23,-20,-19,-22,-21,-21,-17,-20,-19,-16,-15,-14,-18,-21,-20,-13,-8,-9,-9,-5,-7,-17,-15,-15,-25,-63,-145,-193,14,463,895,794,203,-109
2019-06-05,15:36:23.704,-210,-150,-100,-77,-74,-68,-66,-60,-53,-50,-50,-51,-49,-43,-40,-38,-37,-39,-36,-32,-28,-26,-24,-18,-11,-4,4,7,12,22,21,18,16,2,-6,-13,-22,-29,-34,-32,-29,-28,-28,-28,-28,-29,-26,-26,-24,-25,-25,-26,-23,-21,-25,-26,-26,-27,-32,-30,-27,-29,-32,-30,-32,-31,-33,-29,-31,-32,-31,-29,-34,-35,-33,-33,-34,-31,-36,-35,-33,-29,-31,-34,-32,-30,-36,-31,-30,-31,-28,-28,-27,-29,-29,-28,-33,-38,-37,-31,-22,-17,-21,-14,-15,-21,-23,-24,-23,-50,-113,-187,-160,216,701,1000,588,34,-147,-131,-72,-44,-43,-40,-34,-33,-31,-31
2019-06-05,15:36:24.729,-64,-62,-60,-62,-61,-61,-59,-56,-57,-55,-53,-51,-57,-57,-52,-50,-41,-36,-30,-22,-19,-11,-9,-11,-16,-20,-21,-23,-24,-25,-28,-27,-27,-24,-27,-32,-30,-33,-34,-32,-33,-30,-31,-31,-29,-27,-28,-27,-28,-28,-30,-31,-28,-25,-27,-30,-32,-33,-32,-25,-26,-27,-28,-27,-26,-24,-21,-22,-23,-22,-24,-25,-27,-28,-26,-27,-27,-28,-26,-29,-27,-31,-32,-31,-29,-30,-24,-27,-28,-25,-23,-28,-37,-36,-27,-17,-14,-19,-14,-14,-19,-21,-20,-25,-51,-131,-200,-129,309,827,1095,582,20,-134,-97,-52,-43,-47,-42,-35,-34,-30,-32,-30,-28,-26,-26,-28
2019-06-05,15:36:25.754,-43,-39,-47,-46,-51,-51,-56,-56,-59,-65,-61,-58,-52,-45,-40,-30,-21,-15,-14,-11,-8,-15,-17,-18,-19,-24,-19,-18,-17,-21,-21,-19,-19,-19,-18,-17,-16,-16,-17,-19,-20,-14,-13,-13,-10,-11,-14,-16,-16,-16,-15,-17,-19,-19,-16,-18,-21,-20,-18,-21,-21,-20,-22,-24,-26,-25,-26,-23,-22,-22,-22,-21,-20,-23,-27,-22,-21,-22,-23,-20,-19,-22,-21,-23,-23,-22,-18,-18,-17,-19,-16,-22,-31,-34,-27,-15,-8,-12,-6,-2,-15,-23,-21,-20,-49,-128,-204,-142,298,825,1120,617,27,-134,-105,-57,-43,-46,-42,-41,-36,-32,-37,-37,-37,-36,-35,-37
2019-06-05,15:36:26.778,-52,-53,-51,-54,-53,-59,-61,-60,-69,-68,-67,-60,-56,-47,-38,-21,-5,-4,-2,-7,-6,-12,-23,-27,-24,-23,-22,-23,-23,-22,-23,-28,-28,-25,-26,-22,-21,-16,-20,-21,-19,-18,-27,-23,-20,-20,-16,-18,-15,-17,-12,-15,-14,-15,-16,-14,-6,-2,-6,-10,-6,-8,-12,-14,-10,-9,-10,-9,-4,-7,-7,-8,-6,-16,-11,-6,-7,-10,-7,-7,-14,-13,-6,-1,0,0,9,0,-7,0,0,-15,-52,-128,-170,41,463,852,720,164,-103,-155,-94,-46,-25,-18,-13,-8,-2,0,-1,1,4,4,3,1,1,1,5,5,2,4,8,10,14,23,29,34
2019-06-05,15:36:27.803,61,67,69,71,63,53,42,34,25,17,12,11,9,8,7,9,12,7,7,12,12,10,11,12,13,14,9,6,2,-4,-6,-11,-3,-7,-10,-11,-12,-9,-11,-10,-13,-18,-17,-19,-21,-23,-26,-27,-29,-31,-34,-34,-33,-35,-37,-35,-40,-41,-38,-37,-39,-46,-42,-34,-28,-26,-33,-30,-28,-35,-37,-35,-39,-69,-143,-199,-109,303,760,913,397,-57,-178,-133,-67,-44,-44,-40,-32,-31,-29,-28,-29,-29,-31,-31,-31,-30,-26,-27,-26,-25,-26,-29,-28,-29,-28,-25,-17,-9,-3,4,9,12,7,6,0,-5,-10,-16,-19,-21,-21,-22,-16,-14,-20,-20
2019-06-05,15:36:28.828,-16,-16,-17,-20,-20,-20,-19,-15,-15,-14,-15,-17,-21,-26,-23,-21,-23,-24,-24,-21,-21,-14,-12,-14,-17,-18,-18,-16,-14,-17,-19,-18,-16,-17,-19,-21,-19,-21,-23,-19,-16,-21,-20,-16,-26,-25,-22,-10,-3,-6,-5,-2,-7,-16,-12,-20,-46,-124,-199,-149,266,774,1070,607,34,-136,-106,-56,-37,-37,-35,-33,-32,-28,-32,-29,-28,-31,-32,-31,-28,-30,-28,-29,-32,-37,-40,-42,-46,-49,-45,-40,-39,-26,-21,-12,-8,-9,-7,-8,-9,-14,-18,-20,-23,-24,-24,-25,-26,-28,-26,-25,-22,-22,-25,-25,-27,-25,-22,-26,-29,-31,-29,-27,-27,-33,-30,-34
2019-06-05,15:36:29.852,-48,-46,-47,-43,-47,-48,-48,-43,-41,-37,-40,-41,-40,-38,-40,-43,-42,-40,-43,-47,-45,-41,-40,-37,-38,-39,-38,-36,-40,-44,-42,-36,-27,-24,-20,-15,-17,-27,-27,-23,-33,-65,-151,-207,-51,394,858,895,304,-84,-169,-118,-64,-40,-37,-32,-28,-26,-20,-23,-23,-20,-15,-15,-20,-16,-13,-12,-9,-5,-7,-6,-3,1,2,16,21,27,35,41,49,48,45,34,23,13,6,1,-3,-6,-5,-6,-10,-10,-11,-11,-13,-16,-16,-15,-9,-10,-9,-10,-11,-12,-13,-16,-15,-16,-18,-20,-20,-19,-21,-17,-17,-16,-16,-18,-20,-22,-24,-22,-26,-26,-28,-30
2019-06-05,15:36:30.877,-57,-57,-55,-57,-52,-54,-58,-56,-58,-62,-64,-60,-55,-45,-45,-50,-43,-45,-52,-51,-50,-60,-98,-181,-227,-37,404,828,771,195,-132,-193,-136,-84,-63,-63,-58,-52,-48,-46,-43,-42,-38,-38,-36,-34,-33,-33,-31,-31,-28,-31,-29,-27,-22,-15,-12,-3,0,0,8,10,6,2,-4,-8,-17,-24,-26,-27,-31,-29,-29,-36,-35,-31,-32,-32,-34,-30,-29,-31,-32,-31,-31,-30,-28,-28,-28,-29,-25,-28,-30,-27,-24,-27,-26,-24,-23,-24,-25,-23,-21,-24,-26,-21,-21,-20,-20,-16,-16,-19,-19,-23,-22,-19,-18,-22,-20,-18,-16,-17,-21,-19,-20,-14,-16,-20
2019-06-05,15:36:31.902,-87,-78,-68,-73,-70,-61,-66,-77,-73,-65,-82,-134,-220,-254,14,519,966,870,206,-134,-164,-109,-71,-72,-71,-71,-70,-65,-63,-63,-60,-63,-60,-61,-58,-59,-60,-64,-67,-67,-68,-70,-72,-71,-70,-68,-60,-55,-48,-34,-24,-14,-7,-10,-9,-12,-12,-13,-13,-12,-13,-15,-17,-14,-12,-14,-16,-10,-6,-3,0,-3,-1,-3,-1,2,1,4,6,7,4,6,8,4,7,8,8,7,6,9,8,10,11,13,16,16,15,13,12,18,15,14,10,10,9,8,5,0,-5,-5,-4,-1,-3,-4,-6,-5,-6,-5,-6,-9,-12,-21,-21,-13,-10,-7,-10,-8
2019-06-05,15:36:32.926,-155,-161,-145,-141,-141,-181,-274,-322,-104,400,894,905,228,-183,-243,-200,-161,-158,-154,-149,-144,-120,-108,-99,-100,-91,-91,-91,-89,-89,-90,-89,-90,-91,-95,-96,-98,-98,-93,-90,-86,-81,-67,-53,-43,-32,-26,-25,-28,-29,-35,-33,-32,-36,-41,-37,-36,-36,-38,-38,-34,-31,-32,-31,-29,-32,-30,-28,-31,-28,-26,-23,-24,-21,-24,-28,-26,-24,-24,-23,-25,-30,-28,-26,-27,-30,-27,-29,-28,-26,-28,-27,-25,-26,-26,-25,-27,-25,-29,-28,-26,-28,-24,-23,-22,-21,-19,-21,-22,-24,-31,-34,-33,-28,-23,-17,-19,-13,-14,-23,-26,-20,-28,-56,-130,-195,-85,333
2019-06-05,15:36:33.951,649,745,192,-206,-307,-268,-212,-181,-173,-163,-154,-148,-146,-139,-137,-133,-127,-125,-125,-117,-110,-106,-106,-102,-98,-93,-90,-78,-73,-63,-51,-41,-33,-28,-26,-27,-32,-41,-47,-57,-58,-63,-68,-63,-65,-66,-61,-62,-59,-58,-56,-55,-51,-49,-44,-46,-44,-45,-45,-43,-44,-44,-44,-44,-46,-42,-43,-44,-44,-41,-43,-41,-42,-38,-38,-35,-36,-32,-33,-34,-31,-28,-26,-27,-28,-29,-28,-24,-26,-26,-24,-23,-24,-26,-26,-23,-25,-33,-31,-25,-16,-14,-18,-14,-15,-22,-23,-21,-27,-61,-137,-202,-105,334,820,980,436,-32,-156,-115,-63,-42,-41,-38,-34,-31,-31,-25
2019-06-05,15:36:34.975,-117,-116,-111,-108,-108,-105,-98,-96,-91,-88,-91,-94,-87,-85,-81,-73,-69,-60,-52,-42,-34,-28,-29,-32,-37,-38,-39,-39,-39,-38,-39,-41,-38,-38,-37,-36,-31,-31,-31,-29,-26,-24,-27,-26,-25,-25,-23,-20,-17,-17,-15,-19,-15,-12,-14,-14,-14,-9,-10,-8,-9,-15,-10,-11,-14,-16,-15,-12,-12,-13,-16,-15,-14,-16,-14,-12,-13,-14,-13,-15,-17,-16,-16,-19,-22,-26,-44,-33,-18,-10,-8,-15,-22,-18,-8,-2,-3,-4,1,-6,-13,-10,-11,-43,-125,-194,-118,325,845,1114,594,32,-114,-85,-37,-23,-29,-24,-25,-24,-23,-23,-22,-17,-17,-19,-20,-19
2019-06-05,15:36:36.000,-169,-168,-164,-167,-165,-168,-171,-172,-168,-166,-163,-155,-143,-135,-125,-108,-103,-100,-96,-93,-92,-94,-98,-96,-96,-93,-89,-86,-86,-84,-81,-80,-74,-72,-67,-64,-65,-63,-63,-62,-56,-50,-50,-49,-45,-46,-42,-41,-41,-37,-36,-32,-34,-33,-29,-29,-26,-21,-23,-22,-20,-18,-20,-22,-63,-75,-77,-72,-71,-70,-66,-65,-64,-63,-61,-61,-61,-61,-61,-61,-55,-52,-51,-53,-59,-55,-51,-47,-38,-37,-33,-25,-32,-43,-37,-36,-52,-100,-191,-218,79,584,1001,774,141,-132,-150,-90,-52,-47,-44,-36,-26,-25,-26,-23,-22,-21,-19,-16,-12,-10,-11,-6,-5,-6,-4,-4
2019-06-05,15:36:37.025,-136,-132,-124,-116,-108,-103,-93,-81,-76,-71,-69,-74,-76,-84,-85,-83,-83,-80,-77,-76,-73,-72,-72,-67,-64,-61,-61,-50,-49,-49,-47,-43,-39,-35,-33,-27,-27,-24,-19,-19,-14,-8,-5,-3,0,1,4,10,13,15,13,17,24,25,30,34,35,38,42,44,42,46,47,42,36,31,1,-32,-50,-59,-79,-96,-92,-86,-87,-94,-90,-93,-103,-105,-104,-108,-138,-201,-264,-201,183,632,790,302,-116,-235,-216,-149,-114,-104,-96,-88,-80,-77,-77,-74,-75,-72,-65,-62,-56,-49,-46,-44,-41,-36,-29,-30,-24,-18,-9,-1,10,16,16,23,21,14,4,-6,-15,-21
2019-06-05,15:36:38.049,-239,-240,-238,-238,-236,-231,-220,-218,-216,-212,-205,-204,-203,-195,-194,-187,-189,-182,-179,-181,-173,-170,-166,-162,-163,-164,-158,-150,-151,-148,-145,-149,-142,-138,-134,-129,-129,-130,-124,-119,-114,-107,-106,-102,-98,-97,-95,-97,-92,-90,-85,-80,-80,-81,-82,-82,-83,-79,-80,-80,-74,-63,-67,-66,-56,-57,-68,-65,-58,-76,-127,-213,-238,54,558,984,799,156,-141,-156,-103,-70,-64,-62,-61,-53,-36,-25,-28,-29,-28,-29,-26,-27,-21,-20,-17,-19,-21,-23,-30,-31,-34,-32,-27,-24,-17,-9,0,15,22,24,23,25,17,11,7,6,6,5,6,3,6,6,3,0,1,0
2019-06-05,15:36:39.074,-229,-225,-221,-217,-213,-214,-207,-201,-197,-192,-191,-189,-184,-181,-180,-176,-171,-166,-166,-163,-156,-152,-150,-148,-146,-146,-141,-138,-133,-133,-126,-124,-125,-120,-119,-116,-112,-112,-109,-108,-103,-100,-100,-98,-95,-91,-94,-96,-95,-90,-73,-66,-69,-63,-59,-67,-68,-64,-70,-105,-191,-255,-132,342,864,1055,454,-53,-165,-128,-84,-70,-68,-65,-58,-57,-54,-48,-50,-47,-49,-44,-44,-47,-42,-39,-39,-43,-48,-50,-55,-58,-59,-59,-57,-50,-43,-36,-21,-11,-4,-5,-4,-9,-13,-12,-15,-14,-16,-20,-9,-4,-3,-3,-2,-2,0,-3,-2,-2,-2,-4,0,4,2,0,-2,0
2019-06-05,15:36:40.099,-182,-178,-174,-174,-169,-167,-166,-159,-158,-158,-154,-151,-149,-148,-147,-142,-141,-140,-138,-137,-134,-133,-132,-130,-129,-121,-123,-124,-118,-112,-108,-111,-109,-104,-103,-102,-102,-101,-95,-86,-82,-86,-78,-73,-79,-79,-76,-75,-103,-170,-249,-201,214,734,1021,548,-2,-173,-148,-92,-70,-70,-65,-57,-56,-52,-43,-40,-38,-37,-33,-31,-29,-24,-25,-26,-26,-23,-23,-21,-9,-11,-4,0,11,20,28,42,46,47,43,39,36,31,27,22,21,24,27,28,26,27,26,24,30,34,32,36,36,35,34,39,39,41,39,40,38,42,41,39,33,34,38,37,36,36,35,32
2019-06-05,15:36:41.123,-124,-121,-106,-106,-101,-102,-103,-98,-95,-99,-105,-102,-109,-117,-127,-148,-152,-154,-160,-168,-166,-163,-157,-154,-150,-148,-147,-152,-152,-147,-159,-196,-276,-315,-100,329,723,562,28,-235,-287,-229,-170,-140,-147,-143,-137,-129,-123,-121,-118,-114,-108,-103,-99,-95,-91,-87,-84,-77,-73,-69,-60,-54,-45,-37,-26,-17,-12,-7,-4,-6,-12,-22,-34,-43,-47,-53,-57,-54,-51,-48,-48,-45,-45,-44,-40,-39,-39,-38,-36,-36,-39,-36,-32,-33,-33,-31,-31,-33,-33,-30,-27,-27,-24,-23,-24,-19,-18,-19,-15,-19,-22,-21,-19,-20,-16,-17,-17,-13,-13,-12,-9,-8,-12,-10,-8,-7
2019-06-05,15:36:42.148,-233,-234,-233,-222,-210,-198,-198,-195,-183,-187,-192,-183,-182,-198,-253,-342,-354,-18,479,851,568,-33,-275,-274,-215,-174,-173,-164,-159,-154,-144,-138,-138,-135,-130,-127,-124,-119,-119,-115,-110,-108,-109,-106,-108,-110,-109,-104,-99,-92,-86,-73,-63,-51,-45,-46,-49,-53,-53,-56,-58,-58,-59,-57,-55,-50,-54,-56,-53,-52,-51,-45,-46,-44,-42,-36,-35,-35,-29,-28,-29,-26,-23,-26,-26,-25,-25,-22,-19,-19,-19,-17,-13,-7,-10,-10,-6,-9,-8,-11,-8,-8,-10,-5,-6,-7,-2,-2,-5,-2,-1,-3,-4,-1,-2,-6,-6,-14,-16,-12,-4,3,-7,-2,1,-7,-15,-14
2019-06-05,15:36:43.172,-249,-276,-330,-419,-443,-121,410,860,684,14,-291,-309,-254,-227,-224,-219,-213,-206,-204,-196,-193,-186,-179,-178,-177,-175,-175,-173,-173,-171,-172,-171,-175,-178,-179,-175,-167,-157,-146,-138,-125,-110,-98,-89,-82,-80,-78,-79,-82,-82,-81,-76,-72,-74,-75,-75,-72,-66,-65,-63,-59,-58,-56,-52,-50,-47,-47,-45,-45,-41,-42,-36,-34,-34,-28,-26,-26,-24,-22,-21,-19,-16,-15,-16,-12,-12,-15,-14,-12,-10,-8,-9,-11,-12,-14,-16,-21,-20,-23,-24,-19,-15,-12,-14,-20,-18,-19,-23,-21,-14,-5,-5,-5,0,-1,-7,-10,-6,-13,-48,-135,-195,-51,405,893,991,398,-36
2019-06-05,15:36:44.197,-301,-254,-206,-186,-184,-177,-162,-162,-160,-158,-153,-146,-142,-139,-137,-131,-130,-124,-120,-120,-114,-115,-114,-110,-104,-93,-82,-74,-68,-55,-46,-44,-42,-47,-51,-57,-66,-70,-77,-84,-88,-87,-84,-85,-85,-85,-81,-81,-80,-76,-72,-74,-70,-67,-64,-62,-61,-60,-61,-55,-57,-59,-59,-56,-51,-49,-48,-46,-45,-45,-45,-46,-42,-35,-36,-35,-28,-27,-24,-28,-24,-21,-23,-23,-24,-22,-20,-17,-13,-14,-10,-12,-17,-20,-11,-5,-4,-1,0,-1,-7,-10,-9,-12,-33,-96,-168,-127,242,700,920,467,0,-154,-142,-82,-46,-38,-33,-28,-22,-16,-17,-13,-16,-13,-14,-14
2019-06-05,15:36:45.222,-123,-122,-122,-119,-116,-117,-116,-110,-111,-106,-101,-94,-85,-79,-67,-66,-64,-67,-75,-84,-92,-99,-104,-108,-106,-108,-104,-103,-100,-102,-102,-95,-64,-45,-30,-23,-15,-16,-16,-19,-21,-18,-22,-23,-32,-33,-34,-40,-42,-41,-42,-47,-47,-50,-59,-52,-53,-56,-52,-49,-48,-47,-42,-42,-44,-43,-46,-44,-42,-42,-38,-37,-37,-35,-33,-33,-31,-31,-36,-36,-42,-44,-40,-28,-31,-32,-20,-26,-35,-33,-31,-44,-91,-179,-220,23,519,983,939,286,-75,-126,-79,-43,-47,-48,-41,-39,-38,-38,-39,-39,-36,-34,-34,-35,-34,-33,-37,-40,-37,-41,-45,-48,-46,-48,-46,-42
2019-06-05,15:36:46.246,-154,-146,-139,-123,-110,-106,-100,-102,-102,-106,-107,-108,-108,-110,-110,-107,-102,-100,-100,-99,-93,-96,-93,-88,-84,-81,-78,-75,-73,-69,-71,-75,-74,-72,-71,-67,-67,-63,-62,-64,-58,-56,-55,-53,-51,-47,-49,-42,-41,-43,-46,-39,-34,-36,-30,-27,-30,-24,-22,-25,-23,-20,-17,-15,-12,-14,-14,-17,-10,-11,-17,-36,-53,-61,-64,-60,-57,-66,-62,-61,-71,-72,-64,-68,-104,-180,-253,-183,269,801,1084,579,6,-158,-132,-89,-78,-78,-75,-76,-68,-69,-69,-65,-65,-63,-61,-63,-68,-65,-64,-71,-74,-78,-80,-84,-86,-81,-78,-71,-64,-49,-36,-20,-10,-2,4,2
2019-06-05,15:36:47.271,-166,-165,-169,-170,-173,-172,-163,-162,-157,-153,-151,-153,-153,-148,-144,-140,-140,-138,-135,-133,-131,-130,-128,-126,-122,-119,-114,-115,-114,-105,-106,-103,-101,-98,-96,-95,-93,-92,-90,-92,-91,-85,-80,-76,-74,-73,-73,-71,-66,-63,-63,-60,-55,-53,-51,-50,-52,-48,-45,-47,-40,-44,-51,-49,-41,-35,-31,-29,-26,-23,-28,-28,-24,-31,-58,-133,-196,-122,281,756,936,434,-16,-150,-124,-69,-41,-37,-32,-25,-24,-18,-12,-10,-8,-3,1,2,2,6,8,10,10,8,13,17,21,28,37,45,54,62,70,75,73,69,58,49,38,33,27,20,17,16,10,9,7,7
2019-06-05,15:36:48.296,-129,-124,-124,-125,-122,-117,-116,-109,-108,-109,-111,-109,-108,-106,-106,-106,-100,-101,-101,-96,-94,-89,-95,-95,-94,-89,-90,-89,-86,-85,-88,-88,-83,-79,-82,-76,-74,-74,-74,-72,-72,-73,-66,-67,-70,-71,-67,-68,-77,-72,-69,-64,-68,-74,-70,-69,-72,-71,-71,-71,-99,-170,-241,-166,252,744,967,467,-34,-185,-158,-107,-88,-88,-86,-79,-77,-77,-74,-74,-70,-71,-68,-62,-58,-60,-64,-62,-62,-66,-75,-88,-94,-98,-97,-93,-97,-89,-80,-68,-64,-60,-57,-59,-59,-62,-65,-62,-62,-60,-63,-58,-60,-61,-57,-61,-58,-55,-54,-48,-48,-45,-47,-45,-43,-38,-42,-36
2019-06-05,15:36:49.320,-208,-207,-204,-197,-193,-195,-188,-178,-176,-175,-174,-171,-168,-163,-161,-153,-155,-145,-145,-139,-137,-138,-128,-127,-120,-119,-114,-107,-103,-103,-97,-92,-90,-85,-79,-75,-75,-68,-64,-60,-66,-62,-57,-44,-36,-31,-21,-20,-23,-25,-19,-17,-42,-116,-195,-147,276,806,1142,707,108,-83,-62,-13,-2,-1,2,5,9,17,18,20,23,24,30,33,37,42,40,41,36,39,40,36,34,33,35,39,39,46,56,66,74,84,89,89,88,84,81,73,65,53,14,9,11,4,2,7,4,3,5,6,5,6,8,7,8,12,10,7,6,8,10,6,7,1,-6,-6
2019-06-05,15:36:50.345,-299,-307,-309,-306,-304,-303,-295,-293,-289,-280,-272,-267,-263,-257,-252,-248,-237,-236,-232,-230,-226,-224,-227,-225,-231,-245,-247,-243,-242,-238,-234,-237,-235,-239,-239,-233,-230,-221,-228,-226,-224,-240,-266,-268,-259,-279,-340,-423,-424,-81,443,855,578,-53,-305,-314,-257,-226,-219,-210,-200,-189,-181,-175,-165,-162,-156,-152,-145,-140,-135,-129,-123,-123,-121,-113,-111,-111,-107,-104,-95,-88,-85,-77,-68,-54,-43,-38,-30,-25,-26,-30,-27,-24,-25,-20,-14,-17,-16,-8,-8,-8,-2,0,7,9,14,21,20,28,30,32,34,37,39,40,48,49,50,54,59,59,58,60,62,63,67,65
2019-06-05,15:36:51.369,-367,-361,-352,-345,-338,-327,-319,-311,-307,-293,-287,-284,-269,-260,-250,-246,-234,-228,-228,-222,-219,-203,-182,-175,-174,-173,-174,-175,-171,-164,-182,-228,-303,-309,3,460,804,486,-37,-234,-249,-184,-143,-126,-117,-111,-103,-99,-95,-89,-83,-80,-80,-75,-78,-77,-79,-82,-78,-79,-71,-74,-74,-72,-66,-74,-79,-71,-65,-62,-60,-69,-77,-95,-134,-168,-180,-186,-191,-187,-179,-172,-165,-163,-157,-152,-145,-140,-134,-131,-127,-119,-118,-114,-110,-106,-103,-101,-94,-89,-88,-79,-79,-70,-72,-66,-63,-64,-57,-56,-52,-51,-41,-38,-41,-39,-41,-40,-38,-39,-39,-44,-45,-50,-50,-50,-48,-42
2019-06-05,15:36:52.394,-652,-638,-629,-626,-611,-597,-574,-556,-545,-533,-523,-523,-518,-507,-508,-535,-600,-669,-620,-206,317,642,235,-326,-511,-480,-420,-394,-381,-369,-353,-340,-329,-318,-308,-293,-284,-272,-264,-256,-249,-243,-234,-228,-227,-223,-223,-219,-212,-206,-198,-190,-182,-169,-154,-135,-122,-117,-115,-107,-110,-111,-110,-106,-102,-95,-84,-84,-79,-77,-71,-70,-65,-59,-57,-53,-55,-81,-88,-92,-89,-93,-96,-88,-86,-83,-78,-73,-70,-70,-62,-58,-56,-52,-50,-46,-44,-40,-35,-35,-30,-26,-23,-21,-22,-31,-34,-31,-32,-31,-28,-29,-28,-25,-21,-21,-18,-22,-27,-25,-20,-5,-1,-1,4,3,-6,-3
2019-06-05,15:36:53.419,-730,-731,-764,-849,-895,-695,-182,344,441,-204,-632,-708,-664,-616,-604,-597,-585,-571,-563,-550,-537,-525,-519,-510,-496,-486,-481,-468,-459,-455,-451,-445,-444,-445,-435,-434,-422,-412,-397,-383,-361,-332,-310,-295,-283,-275,-270,-266,-254,-250,-250,-242,-235,-227,-226,-215,-213,-208,-200,-195,-188,-185,-173,-168,-162,-150,-144,-140,-135,-132,-126,-119,-107,-101,-95,-92,-83,-76,-76,-69,-65,-66,-62,-53,-45,-46,-37,-33,-34,-25,-21,-17,-12,-8,-4,-4,-1,0,4,9,15,18,20,27,28,18,24,35,43,51,54,55,59,58,57,58,59,46,-12,-103,-121,198,708,1127,874,250,-15,-35
2019-06-05,15:36:54.443,-615,-579,-570,-556,-542,-527,-512,-500,-492,-477,-462,-453,-438,-423,-412,-403,-388,-379,-368,-359,-350,-339,-327,-313,-302,-283,-258,-247,-234,-217,-199,-189,-180,-169,-167,-161,-153,-143,-135,-125,-113,-104,-97,-92,-75,-69,-77,-77,-79,-82,-98,-103,-112,-145,-166,-180,-187,-188,-187,-185,-181,-177,-179,-183,-185,-188,-185,-179,-167,-162,-150,-140,-136,-136,-128,-119,-114,-109,-98,-92,-87,-83,-77,-73,-74,-75,-74,-78,-93,-113,-138,-138,-122,-121,-124,-110,-103,-110,-137,-207,-250,-58,381,795,686,145,-136,-204,-163,-110,-85,-79,-69,-61,-60,-50,-45,-42,-38,-32,-29,-20,-15,-11,-8,-6,2,5
2019-06-05,15:36:55.468,-684,-673,-661,-643,-626,-605,-592,-577,-557,-548,-540,-541,-537,-531,-535,-530,-525,-521,-519,-505,-493,-486,-470,-465,-458,-452,-442,-439,-438,-430,-425,-420,-411,-396,-388,-375,-362,-356,-346,-333,-324,-314,-313,-301,-296,-289,-281,-272,-263,-259,-251,-250,-248,-236,-231,-229,-227,-224,-217,-216,-212,-211,-206,-198,-196,-194,-189,-175,-172,-172,-157,-146,-138,-131,-128,-117,-110,-108,-105,-100,-99,-131,-215,-277,-140,322,815,980,415,-57,-169,-137,-97,-97,-95,-95,-87,-85,-80,-76,-79,-74,-69,-66,-66,-67,-66,-70,-64,-66,-68,-73,-74,-79,-84,-83,-81,-79,-66,-55,-36,-24,-9,0,4,8,5,3
2019-06-05,15:36:56.493,-771,-758,-746,-744,-730,-722,-708,-696,-682,-670,-652,-637,-627,-612,-599,-583,-567,-563,-543,-528,-514,-499,-488,-480,-469,-454,-442,-433,-417,-408,-396,-386,-372,-362,-351,-334,-327,-315,-303,-294,-283,-277,-264,-253,-242,-236,-225,-215,-205,-189,-182,-177,-169,-163,-155,-144,-129,-118,-118,-101,-90,-89,-81,-71,-69,-95,-160,-232,-171,257,781,1072,604,61,-110,-92,-38,-14,-14,-11,-1,2,1,7,7,10,6,11,12,10,17,12,7,2,3,3,0,10,13,25,40,51,69,83,100,118,122,134,135,137,137,137,134,134,139,136,141,145,136,107,85,73,67,56,50,39,30,22
2019-06-05,15:36:57.517,-745,-740,-736,-723,-712,-699,-700,-692,-689,-691,-680,-676,-672,-671,-661,-663,-664,-657,-656,-652,-651,-650,-667,-662,-646,-639,-631,-617,-606,-598,-584,-574,-567,-557,-538,-523,-503,-495,-474,-462,-465,-453,-434,-425,-438,-483,-541,-503,-145,302,533,134,-295,-444,-441,-378,-340,-321,-314,-305,-291,-279,-267,-256,-249,-234,-225,-211,-203,-188,-174,-167,-158,-156,-148,-137,-128,-120,-118,-105,-92,-80,-65,-60,-53,-52,-54,-61,-67,-56,-56,-46,-43,-35,-22,-14,-1,8,15,25,33,43,48,59,52,50,46,37,18,10,18,23,25,29,5,-17,-16,-6,0,7,21,25,37,43,52,62,68,79
2019-06-05,15:36:58.542,-854,-831,-805,-779,-758,-739,-712,-691,-669,-642,-624,-604,-588,-562,-554,-531,-494,-481,-493,-502,-519,-562,-589,-585,-586,-623,-693,-738,-552,-83,404,478,-100,-493,-579,-533,-479,-460,-449,-426,-400,-386,-371,-359,-347,-333,-324,-298,-283,-263,-246,-226,-210,-196,-179,-166,-155,-140,-125,-107,-93,-70,-55,-38,-10,5,15,18,11,-36,-44,-22,-6,10,23,34,33,21,-75,-302,-331,-326,-324,-328,-339,-346,-351,-358,-347,-340,-327,-315,-300,-286,-273,-249,-231,-217,-201,-182,-165,-157,-135,-126,-112,-114,-116,-123,-126,-127,-138,-40,0,-18,-70,-124,-166,-164,-158,-139,-138,-142,-135,-114,-96,-97,-126,-128
2019-06-05,15:36:59.567,-1436,-1411,-1380,-1319,-1279,-1256,-1276,-1333,-1317,-957,-402,74,-116,-851,-1156,-1168,-1104,-1073,-1055,-1024,-1002,-978,-942,-928,-914,-899,-884,-880,-870,-849,-844,-840,-827,-827,-828,-822,-803,-787,-773,-751,-737,-713,-698,-677,-650,-617,-578,-556,-538,-532,-513,-495,-478,-446,-429,-404,-376,-355,-331,-309,-283,-262,-247,-216,-202,-188,-176,-156,-150,-151,-128,-115,-95,-85,-67,-55,-53,-33,-26,-14,-6,0,5,0,-4,-16,-34,-56,-76,-92,-108,-115,-141,-171,-184,-203,-222,-250,-272,-309,-353,-391,-450,-534,-633,-828,-1097,-1267,-1403,-1579,-1893,-2532,-2983,-3125,-3132,-3141,-3150,-3159,-3170,-3181,-3193,-3205,-3219,-3233,-3247,-3263,-3278,-3295
2019-06-05,15:37:00.591,-6490,-6466,-6442,-6418,-6395,-6371,-6348,-1779,2280,2366,2393,2419,2443,2462,2489,2511,2534,2550,2582,2608,2629,2655,2677,2699,2674,2502,2261,2024,1829,1598,1314,872,186,-562,-1181,-1949,-2888,-3944,-4490,-4835,-5259,-5546,-5524,-5503,-5482,-5461,-5440,-5420,-5399,-5379,-5358,-5338,-5318,-5298,-5278,-2040,3254,3398,3424,3429,3447,3480,3506,3501,3501,3569,3597,3620,3639,3662,3682,3710,3715,3388,2883,2345,1759,1168,547,-61,-638,-1219,-1775,-2319,-2903,-3478,-4037,-4520,-4493,-4465,-4436,-4407,-4378,-4349,-2784,3993,4256,4385,4428,4408,4452,4492,4498,4577,4600,4625,4655,4689,4712,4736,4758,4696,3590,2101,139,-2644,-3545,-3504,2361,5018,5036,5027,4921,5047,5026,4783,5125,4735
2019-06-05,15:37:01.616,1890,1309,1860,1274,-3237,-5344,-5263,-5183,-5102,-5021,-4939,-4858,-4776,-4694,-4613,-4531,-4450,-4368,-4287,-4206,-4125,-4045,-3965,-3885,-3806,-3727,-3649,-3571,-3494,-3418,-3341,-3266,-3191,-3117,-3043,-2971,-2899,-2827,-2757,-2687,-2618,-2550,-2482,-2416,-2350,-2285,-2221,-2158,-2096,-2035,-1974,-1915,-1856,-1798,-1741,-1685,-1630,-1576,-1523,-1471,-1419,-1369,-1319,-1270,-1223,-1176,-1130,-1085,-1041,-997,-955,-913,-873,-833,-794,-756,-719,-683,-647,-612,-579,-546,-513,-482,-451,-421,-392,-364,-336,-309,-283,-258,-233,-209,-186,-163,-141,-120,-99,-79,-60,-41,-23,-6,10,27,42,57,72,86,100,113,125,137,149,160,171,181,190,200,208,217,225,232,239,246,253,259
2019-06-05,15:37:02.640,-3808,-3741,-3675,-3609,-3543,-3477,-3411,-3345,-3280,-3215,-3151,-3086,-3022,-2959,-2896,-2833,-2771,-2709,-2648,-2587,-2527,-2467,-2408,-2350,-2292,-2234,-2178,-2122,-2067,-2012,-1958,-1905,-1852,-1800,-1749,-1698,-1649,-1599,-1551,-1504,-1457,-1410,-1365,-1320,-1277,-1233,-1191,-1149,-1108,-1068,-1029,-990,-952,-915,-878,-842,-807,-773,-739,-706,-674,-642,-612,-581,-552,-523,-495,-468,-441,-415,-389,-364,-340,-317,-294,-271,-249,-228,-208,-188,-168,-149,-131,-113,-96,-79,-63,-47,-32,-18,-3,9,23,35,48,59,71,82,92,103,112,122,131,139,147,155,163,170,176,183,189,195,200,205,210,215,219,223,227,230,234,237,239,242,244,246,248,250
2019-06-05,15:37:03.665,-4404,-4335,-4265,-4196,-4126,-4056,-3986,-3916,-3846,-3777,-3707,-3638,-3569,-3500,-3431,-3363,-3295,-3227,-3160,-3093,-3027,-2961,-2896,-2831,-2766,-2703,-2639,-2577,-2515,-2453,-2393,-2333,-2273,-2214,-2156,-2099,-2042,-1987,-1931,-1877,-1823,-1770,-1718,-1667,-1616,-1566,-1517,-1469,-1421,-1374,-1328,-1283,-1239,-1195,-1152,-1110,-1069,-1028,-989,-950,-911,-874,-837,-801,-766,-732,-698,-665,-633,-601,-571,-541,-511,-482,-455,-427,-401,-375,-349,-325,-301,-277,-255,-233,-211,-190,-170,-150,-131,-113,-95,-77,-61,-44,-28,-13,1,15,29,42,55,67,79,90,101,112,122,132,141,150,158,166,174,181,188,195,201,207,213,218,223,228,232,237,240,244,247,250
2019-06-05,15:37:04.690,-4371,-4304,-4236,-4168,-4100,-4031,-3963,-3895,-3826,-3758,-3690,-3622,-3554,-3487,-3419,-3352,-3285,-3219,-3153,-3087,-3022,-2957,-2893,-2829,-2765,-2702,-2640,-2578,-2517,-2457,-2397,-2337,-2279,-2220,-2163,-2106,-2050,-1995,-1940,-1886,-1833,-1781,-1729,-1678,-1628,-1578,-1530,-1482,-1434,-1388,-1342,-1297,-1253,-1210,-1167,-1125,-1084,-1044,-1004,-965,-927,-890,-853,-817,-782,-748,-714,-681,-649,-618,-587,-557,-527,-499,-471,-443,-417,-391,-365,-341,-317,-293,-270,-248,-227,-206,-185,-166,-146,-128,-110,-92,-75,-59,-43,-27,-12,1,15,28,41,54,66,77,89,99,110,119,129,138,147,155,163,170,178,184,191,197,203,208,214,218,223,227,231,235,239,242
2019-06-05,15:37:05.714,-4362,-4295,-4227,-4159,-4091,-4023,-3955,-3887,-3818,-3750,-3682,-3614,-3547,-3479,-3412,-3345,-3278,-3212,-3146,-3080,-3015,-2950,-2886,-2822,-2759,-2696,-2634,-2572,-2511,-2451,-2391,-2332,-2273,-2215,-2158,-2101,-2045,-1990,-1935,-1882,-1829,-1776,-1725,-1674,-1624,-1574,-1526,-1478,-1431,-1384,-1339,-1294,-1250,-1206,-1164,-1122,-1081,-1041,-1001,-962,-924,-887,-851,-815,-780,-746,-712,-679,-647,-616,-585,-555,-526,-497,-469,-442,-415,-389,-364,-339,-315,-292,-269,-247,-226,-205,-184,-165,-145,-127,-109,-91,-74,-58,-42,-27,-12,2,15,29,42,54,66,78,89,100,110,120,129,138,147,155,163,170,178,184,191,197,203,208,213,218,223,227,231,235,238,242
2019-06-05,15:37:06.739,-4362,-4295,-4227,-4159,-4091,-4023,-3955,-3887,-3818,-3750,-3682,-3614,-3547,-3479,-3412,-3345,-3278,-3212,-3146,-3080,-3015,-2950,-2886,-2822,-2759,-2696,-2634,-2572,-2511,-2450,-2391,-2331,-2273,-2215,-2157,-2101,-2045,-1990,-1935,-1881,-1828,-1776,-1724,-1673,-1623,-1574,-1525,-1477,-1430,-1384,-1338,-1293,-1249,-1206,-1163,-1122,-1081,-1040,-1001,-962,-924,-887,-850,-815,-780,-745,-712,-679,-647,-615,-585,-555,-525,-497,-469,-442,-415,-389,-364,-339,-315,-292,-269,-247,-225,-204,-184,-164,-145,-127,-109,-91,-74,-58,-42,-26,-12,2,16,29,42,54,66,78,89,100,110,120,129,138,147,155,163,171,178,185,191,197,203,208,214,218,223,227,231,235,239,242
2019-06-05,15:37:07.764,-4363,-4295,-4227,-4159,-4091,-4023,-3955,-3887,-3818,-3750,-3682,-3614,-3547,-3479,-3412,-3345,-3278,-3212,-3146,-3080,-3015,-2950,-2886,-2822,-2759,-2696,-2634,-2572,-2511,-2451,-2391,-2331,-2273,-2215,-2158,-2101,-2045,-1990,-1935,-1881,-1828,-1776,-1724,-1673,-1623,-1574,-1525,-1477,-1430,-1384,-1338,-1293,-1249,-1206,-1164,-1122,-1081,-1040,-1001,-962,-924,-887,-850,-815,-780,-745,-712,-679,-647,-615,-585,-555,-525,-497,-469,-442,-415,-389,-364,-339,-315,-292,-269,-247,-225,-204,-184,-164,-145,-127,-109,-91,-74,-58,-42,-26,-12,2,16,29,42,54,66,78,89,100,110,120,129,138,147,155,163,171,178,185,191,197,203,208,214,218,223,227,231,235,239,242
2019-06-05,15:37:08.788,-4363,-4295,-4227,-4159,-4091,-4023,-3955,-3887,-3819,-3750,-3682,-3614,-3547,-3479,-3412,-3345,-3278,-3212,-3146,-3080,-3015,-2950,-2886,-2822,-2759,-2696,-2634,-2572,-2511,-2451,-2391,-2331,-2273,-2215,-2158,-2101,-2045,-1990,-1935,-1881,-1828,-1776,-1724,-1674,-1623,-1574,-1525,-1477,-1430,-1384,-1338,-1293,-1249,-1206,-1164,-1122,-1081,-1040,-1001,-962,-924,-887,-850,-815,-780,-745,-712,-679,-647,-615,-585,-555,-525,-497,-469,-442,-415,-389,-364,-339,-315,-292,-269,-247,-225,-204,-184,-164,-145,-127,-109,-91,-74,-58,-42,-27,-12,2,16,29,42,54,66,78,89,100,110,120,129,138,147,155,163,171,178,185,191,197,203,208,214,218,223,227,231,235,239,242
2019-06-05,15:37:09.813,-4363,-4295,-4227,-4159,-4091,-4023,-3955,-3887,-3818,-3750,-3682,-3614,-3547,-3479,-3412,-3345,-3278,-3212,-3146,-3080,-3015,-2950,-2886,-2822,-2759,-2696,-2634,-2572,-2511,-2451,-2391,-2331,-2273,-2215,-2158,-2101,-2045,-1990,-1935,-1881,-1828,-1776,-1724,-1673,-1623,-1574,-1525,-1477,-1430,-1384,-1338,-1293,-1249,-1206,-1164,-1122,-1081,-1040,-1001,-962,-924,-887,-850,-815,-780,-745,-712,-679,-647,-615,-585,-555,-525,-497,-469,-442,-415,-389,-364,-339,-315,-292,-269,-247,-225,-204,-184,-164,-145,-127,-109,-91,-74,-58,-42,-27,-12,2,16,29,42,54,66,78,89,100,110,120,129,138,147,155,163,171,178,185,191,197,203,208,214,218,223,227,231,235,239,242
2019-06-05,15:37:10.837,-4363,-4295,-4227,-4159,-4091,-4023,-3955,-3887,-3819,-3750,-3682,-3614,-3547,-3479,-3412,-3345,-3278,-3212,-3146,-3080,-3015,-2950,-2886,-2822,-2759,-2696,-2634,-2572,-2511,-2451,-2391,-2331,-2273,-2215,-2158,-2101,-2045,-1990,-1935,-1881,-1828,-1776,-1724,-1673,-1623,-1574,-1525,-1477,-1430,-1384,-1338,-1293,-1249,-1206,-1164,-1122,-1081,-1040,-1001,-962,-924,-887,-850,-815,-780,-745,-712,-679,-647,-615,-585,-555,-525,-497,-469,-442,-415,-389,-364,-339,-315,-292,-269,-247,-225,-204,-184,-164,-145,-127,-109,-91,-74,-58,-42,-27,-12,2,16,29,42,54,66,78,89,100,110,120,129,138,147,155,163,171,178,185,191,197,203,208,214,218,223,227,231,235,239,242
2019-06-05,15:37:11.862,-4363,-4295,-4227,-4159,-4091,-4023,-3955,-3887,-3819,-3750,-3682,-3614,-3547,-3479,-3412,-3345,-3278,-3212,-3146,-3080,-3015,-2950,-2886,-2822,-2759,-2696,-2634,-2572,-2511,-2451,-2391,-2331,-2273,-2215,-2158,-2101,-2045,-1990,-1935,-1881,-1828,-1776,-1724,-1673,-1623,-1574,-1525,-1477,-1430,-1384,-1338,-1293,-1249,-1206,-1164,-1122,-1081,-1040,-1001,-962,-924,-887,-850,-815,-780,-745,-712,-679,-647,-615,-585,-555,-525,-497,-469,-442,-415,-389,-364,-339,-315,-292,-269,-247,-225,-204,-184,-164,-145,-127,-109,-91,-74,-58,-42,-27,-12,2,16,29,42,54,66,78,89,100,110,120,129,138,147,155,163,171,178,185,191,197,203,208,214,218,223,227,231,235,239,242
2019-06-05,15:37:12.887,-4363,-4295,-4227,-4159,-4091,-4023,-3955,-3887,-3819,-3750,-3682,-3614,-3547,-3479,-3412,-3345,-3278,-3212,-3146,-3080,-3015,-2950,-2886,-2822,-2759,-2696,-2634,-2572,-2511,-2451,-2391,-2331,-2273,-2215,-2158,-2101,-2045,-1990,-1935,-1881,-1828,-1776,-1724,-1673,-1623,-1574,-1525,-1477,-1430,-1384,-1338,-1293,-1249,-1206,-1164,-1122,-1081,-1040,-1001,-962,-924,-887,-850,-815,-780,-745,-712,-679,-647,-615,-585,-555,-525,-497,-469,-442,-415,-389,-364,-339,-315,-292,-269,-247,-225,-204,-184,-164,-145,-127,-109,-91,-74,-58,-42,-27,-12,2,16,29,42,54,66,78,89,100,110,120,129,138,147,155,163,171,178,185,191,197,203,208,214,218,223,227,231,235,239,242
2019-06-05,15:37:13.911,-4363,-4295,-4227,-4159,-4091,-4023,-3955,-3887,-3819,-3750,-3682,-3614,-3547,-3479,-3412,-3345,-3278,-3212,-3146,-3080,-3015,-2950,-2886,-2822,-2759,-2696,-2634,-2572,-2511,-2451,-2391,-2331,-2273,-2215,-2158,-2101,-2045,-1990,-1935,-1881,-1828,-1776,-1724,-1673,-1623,-1574,-1525,-1477,-1430,-1384,-1338,-1293,-1249,-1206,-1164,-1122,-1081,-1040,-1001,-962,-924,-887,-850,-815,-780,-745,-712,-679,-647,-615,-585,-555,-525,-497,-469,-442,-415,-389,-364,-339,-315,-292,-269,-247,-225,-204,-184,-164,-145,-127,-109,-91,-74,-58,-42,-27,-12,2,16,29,42,54,66,78,89,100,110,120,129,138,147,155,163,171,178,185,191,197,203,208,214,218,223,227,231,235,239,242
2019-06-05,15:37:14.936,-4363,-4295,-4227,-4159,-4091,-4023,-3955,-3887,-3819,-3750,-3682,-3614,-3547,-3479,-3412,-3345,-3278,-3212,-3146,-3080,-3015,-2950,-2886,-2822,-2759,-2696,-2634,-2572,-2511,-2451,-2391,-2331,-2273,-2215,-2158,-2101,-2045,-1990,-1935,-1881,-1828,-1776,-1724,-1673,-1623,-1574,-1525,-1477,-1430,-1384,-1338,-1293,-1249,-1206,-1164,-1122,-1081,-1040,-1001,-962,-924,-887,-850,-815,-780,-745,-712,-679,-647,-615,-585,-555,-525,-497,-469,-442,-415,-389,-364,-339,-315,-292,-269,-247,-225,-204,-184,-164,-145,-127,-109,-91,-74,-58,-42,-27,-12,2,16,29,42,54,66,78,89,100,110,120,129,138,147,155,163,171,178,185,191,197,203,208,214,218,223,227,231,235,239,242
2019-06-05,15:37:15.961,-4363,-4295,-4227,-4159,-4091,-4023,-3955,-3887,-3819,-3750,-3682,-3614,-3547,-3479,-3412,-3345,-3278,-3212,-3146,-3080,-3015,-2950,-2886,-2822,-2759,-2696,-2634,-2572,-2511,-2451,-2391,-2331,-2273,-2215,-2158,-2101,-2045,-1990,-1935,-1881,-1828,-1776,-1724,-1673,-1623,-1574,-1525,-1477,-1430,-1384,-1338,-1293,-1249,-1206,-1164,-1122,-1081,-1040,-1001,-962,-924,-887,-850,-815,-780,-745,-712,-679,-647,-615,-585,-555,-525,-497,-469,-442,-415,-389,-364,-339,-315,-292,-269,-247,-225,-204,-184,-164,-145,-127,-109,-91,-74,-58,-42,-27,-12,2,16,29,42,54,66,78,89,100,110,120,129,138,147,155,163,171,178,185,191,197,203,208,214,218,223,227,231,235,239,242
2019-06-05,15:37:16.985,-4363,-4295,-4227,-4159,-4091,-4023,-3955,-3887,-3819,-3750,-3682,-3614,-3547,-3479,-3412,-3345,-3278,-3212,-3146,-3080,-3015,-2950,-2886,-2822,-2759,-2696,-2634,-2572,-2511,-2451,-2391,-2331,-2273,-2215,-2158,-2101,-2045,-1990,-1935,-1881,-1828,-1776,-1724,-1673,-1623,-1574,-1525,-1477,-1430,-1384,-1338,-1293,-1249,-1206,-1164,-1122,-1081,-1040,-1001,-962,-924,-887,-850,-815,-780,-745,-712,-679,-647,-615,-585,-555,-525,-497,-469,-442,-415,-389,-364,-339,-315,-292,-269,-247,-225,-204,-184,-164,-145,-127,-109,-91,-74,-58,-42,-27,-12,2,16,29,42,54,66,78,89,100,110,120,129,138,147,155,163,171,178,185,191,197,203,208,214,218,223,227,231,235,239,242
2019-06-05,15:37:18.010,-4363,-4295,-4227,-4159,-4091,-4023,-3955,-3887,-3819,-3750,-3682,-3614,-3547,-3479,-3412,-3345,-3278,-3212,-3146,-3080,-3015,-2950,-2886,-2822,-2759,-2696,-2634,-2572,-2511,-2451,-2391,-2331,-2273,-2215,-2158,-2101,-2045,-1990,-1935,-1881,-1828,-1776,-1724,-1673,-1623,-1574,-1525,-1477,-1430,-1384,-1338,-1293,-1249,-1206,-1164,-1122,-1081,-1040,-1001,-962,-924,-887,-850,-815,-780,-745,-712,-679,-647,-615,-585,-555,-525,-497,-469,-442,-415,-389,-364,-339,-315,-292,-269,-247,-225,-204,-184,-164,-145,-127,-109,-91,-74,-58,-42,-27,-12,2,16,29,42,54,66,78,89,100,110,120,129,138,147,155,163,171,178,185,191,197,203,208,214,218,223,227,231,235,239,242
2019-06-05,15:37:19.035,-4363,-4295,-4227,-4159,-4091,-4023,-3955,-3887,-3819,-3750,-3682,-3614,-3547,-3479,-3412,-3345,-3278,-3212,-3146,-3080,-3015,-2950,-2886,-2822,-2759,-2696,-2634,-2572,-2511,-2451,-2391,-2331,-2273,-2215,-2158,-2101,-2045,-1990,-1935,-1881,-1828,-1776,-1724,-1673,-1623,-1574,-1525,-1477,-1430,-1384,-1338,-1293,-1249,-1206,-1164,-1122,-1081,-1040,-1001,-962,-924,-887,-850,-815,-780,-745,-712,-679,-647,-615,-585,-555,-525,-497,-469,-442,-415,-389,-364,-339,-315,-292,-269,-247,-225,-204,-184,-164,-145,-127,-109,-91,-74,-58,-42,-27,-12,2,16,29,42,54,66,78,89,100,110,120,129,138,147,155,163,171,178,185,191,197,203,208,214,218,223,227,231,235,239,242
2019-06-05,15:37:20.059,-4363,-4295,-4227,-4159,-4091,-4023,-3955,-3887,-3819,-3750,-3682,-3614,-3547,-3479,-3412,-3345,-3278,-3212,-3146,-3080,-3015,-2950,-2886,-2822,-2759,-2696,-2634,-2572,-2511,-2451,-2391,-2331,-2273,-2215,-2158,-2101,-2045,-1990,-1935,-1881,-1828,-1776,-1724,-1673,-1623,-1574,-1525,-1477,-1430,-1384,-1338,-1293,-1249,-1206,-1164,-1122,-1081,-1040,-1001,-962,-924,-887,-850,-815,-780,-745,-712,-679,-647,-615,-585,-555,-525,-497,-469,-442,-415,-389,-364,-339,-315,-292,-269,-247,-225,-204,-184,-164,-145,-127,-109,-91,-74,-58,-42,-27,-12,2,16,29,42,54,66,78,89,100,110,120,129,138,147,155,163,171,178,185,191,197,203,208,214,218,223,227,231,235,239,242
2019-06-05,15:37:21.084,-4363,-4295,-4227,-4159,-4091,-4023,-3955,-3887,-3819,-3750,-3682,-3614,-3547,-3479,-3412,-3345,-3278,-3212,-3146,-3080,-3015,-2950,-2886,-2822,-2759,-2696,-2634,-2572,-2511,-2451,-2391,-2331,-2273,-2215,-2158,-2101,-2045,-1990,-1935,-1881,-1828,-1776,-1724,-1673,-1623,-1574,-1525,-1477,-1430,-1384,-1338,-1293,-1249,-1206,-1164,-1122,-1081,-1040,-1001,-962,-924,-887,-850,-815,-780,-745,-712,-679,-647,-615,-585,-555,-525,-497,-469,-442,-415,-389,-364,-339,-315,-292,-269,-247,-225,-204,-184,-164,-145,-127,-109,-91,-74,-58,-42,-27,-12,2,16,29,42,54,66,78,89,100,110,120,129,138,147,155,163,171,178,185,191,197,203,208,214,218,223,227,231,235,239,242
2019-06-05,15:37:22.108,-4363,-4295,-4227,-4159,-4091,-4023,-3955,-3887,-3819,-3750,-3682,-3614,-3547,-3479,-3412,-3345,-3278,-3212,-3146,-3080,-3015,-2950,-2886,-2822,-2759,-2696,-2634,-2572,-2511,-2451,-2391,-2331,-2273,-2215,-2158,-2101,-2045,-1990,-1935,-1881,-1828,-1776,-1724,-1673,-1623,-1574,-1525,-1477,-1430,-1384,-1338,-1293,-1249,-1206,-1164,-1122,-1081,-1040,-1001,-962,-924,-887,-850,-815,-780,-745,-712,-679,-647,-615,-585,-555,-525,-497,-469,-442,-415,-389,-364,-339,-315,-292,-269,-247,-225,-204,-184,-164,-145,-127,-109,-91,-74,-58,-42,-27,-12,2,16,29,42,54,66,78,89,100,110,120,129,138,147,155,163,171,178,185,191,197,203,208,214,218,223,227,231,235,239,242
2019-06-05,15:37:23.133,-4363,-4295,-4227,-4159,-4091,-4023,-3955,-3887,-3819,-3750,-3682,-3614,-3547,-3479,-3412,-3345,-3278,-3212,-3146,-3080,-3015,-2950,-2886,-2822,-2759,-2696,-2634,-2572,-2511,-2451,-2391,-2331,-2273,-2215,-2158,-2101,-2045,-1990,-1935,-1881,-1828,-1776,-1724,-1673,-1623,-1574,-1525,-1477,-1430,-1384,-1338,-1293,-1249,-1206,-1164,-1122,-1081,-1040,-1001,-962,-924,-887,-850,-815,-780,-745,-712,-679,-647,-615,-585,-555,-525,-497,-469,-442,-415,-389,-364,-339,-315,-292,-269,-247,-225,-204,-184,-164,-145,-127,-109,-91,-74,-58,-42,-27,-12,2,16,29,42,54,66,78,89,100,110,120,129,138,147,155,163,171,178,185,191,197,203,208,214,218,223,227,231,235,239,242
2019-06-05,15:37:24.158,-4363,-4295,-4227,-4159,-4091,-4023,-3955,-3887,-3819,-3750,-3682,-3614,-3547,-3479,-3412,-3345,-3278,-3212,-3146,-3080,-3015,-2950,-2886,-2822,-2759,-2696,-2634,-2572,-2511,-2451,-2391,-2331,-2273,-2215,-2158,-2101,-2045,-1990,-1935,-1881,-1828,-1776,-1724,-1673,-1623,-1574,-1525,-1477,-1430,-1384,-1338,-1293,-1249,-1206,-1164,-1122,-1081,-1040,-1001,-962,-924,-887,-850,-815,-780,-745,-712,-679,-647,-615,-585,-555,-525,-497,-469,-442,-415,-389,-364,-339,-315,-292,-269,-247,-225,-204,-184,-164,-145,-127,-109,-91,-74,-58,-42,-27,-12,2,16,29,42,54,66,78,89,100,110,120,129,138,147,155,163,171,178,185,191,197,203,208,214,218,223,227,231,235,239,242
2019-06-05,15:37:25.182,-4363,-4295,-4227,-4159,-4091,-4023,-3955,-3887,-3819,-3750,-3682,-3614,-3547,-3479,-3412,-3345,-3278,-3212,-3146,-3080,-3015,-2950,-2886,-2822,-2759,-2696,-2634,-2572,-2511,-2451,-2391,-2331,-2273,-2215,-2158,-2101,-2045,-1990,-1935,-1881,-1828,-1776,-1724,-1673,-1623,-1574,-1525,-1477,-1430,-1384,-1338,-1293,-1249,-1206,-1164,-1122,-1081,-1040,-1001,-962,-924,-887,-850,-815,-780,-745,-712,-679,-647,-615,-585,-555,-525,-497,-469,-442,-415,-389,-364,-339,-315,-292,-269,-247,-225,-204,-184,-164,-145,-127,-109,-91,-74,-58,-42,-27,-12,2,16,29,42,54,66,78,89,100,110,120,129,138,147,155,163,171,178,185,191,197,203,208,214,218,223,227,231,235,239,242
2019-06-05,15:37:26.207,-4363,-4295,-4227,-4159,-4091,-4023,-3955,-3887,-3819,-3750,-3682,-3614,-3547,-3479,-3412,-3345,-3278,-3212,-3146,-3080,-3015,-2950,-2886,-2822,-2759,-2696,-2634,-2572,-2511,-2451,-2391,-2331,-2273,-2215,-2158,-2101,-2045,-1990,-1935,-1881,-1828,-1776,-1724,-1673,-1623,-1574,-1525,-1477,-1430,-1384,-1338,-1293,-1249,-1206,-1164,-1122,-1081,-1040,-1001,-962,-924,-887,-850,-815,-780,-745,-712,-679,-647,-615,-585,-555,-525,-497,-469,-442,-415,-389,-364,-339,-315,-292,-269,-247,-225,-204,-184,-164,-145,-127,-109,-91,-74,-58,-42,-27,-12,2,16,29,42,54,66,78,89,100,110,120,129,138,147,155,163,171,178,185,191,197,203,208,214,218,223,227,231,235,239,242
2019-06-05,15:37:27.232,-4363,-4295,-4227,-4159,-4091,-4023,-3955,-3887,-3819,-3750,-3682,-3614,-3547,-3479,-3412,-3345,-3278,-3212,-3146,-3080,-3015,-2950,-2886,-2822,-2759,-2696,-2634,-2572,-2511,-2451,-2391,-2331,-2273,-2215,-2158,-2101,-2045,-1990,-1935,-1881,-1828,-1776,-1724,-1673,-1623,-1574,-1525,-1477,-1430,-1384,-1338,-1293,-1249,-1206,-1164,-1122,-1081,-1040,-1001,-962,-924,-887,-850,-815,-780,-745,-712,-679,-647,-615,-585,-555,-525,-497,-469,-442,-415,-389,-364,-339,-315,-292,-269,-247,-225,-204,-184,-164,-145,-127,-109,-91,-74,-58,-42,-27,-12,2,16,29,42,54,66,78,89,100,110,120,129,138,147,155,163,171,178,185,191,197,203,208,214,218,223,227,231,235,239,242
2019-06-05,15:37:28.256,-4363,-4295,-4227,-4159,-4091,-4023,-3955,-3887,-3819,-3750,-3682,-3614,-3547,-3479,-3412,-3345,-3278,-3212,-3146,-3080,-3015,-2950,-2886,-2822,-2759,-2696,-2634,-2572,-2511,-2451,-2391,-2331,-2273,-2215,-2158,-2101,-2045,-1990,-1935,-1881,-1828,-1776,-1724,-1673,-1623,-1574,-1525,-1477,-1430,-1384,-1338,-1293,-1249,-1206,-1164,-1122,-1081,-1040,-1001,-962,-924,-887,-850,-815,-780,-745,-712,-679,-647,-615,-585,-555,-525,-497,-469,-442,-415,-389,-364,-339,-315,-292,-269,-247,-225,-204,-184,-164,-145,-127,-109,-91,-74,-58,-42,-27,-12,2,16,29,42,54,66,78,89,100,110,120,129,138,147,155,163,171,178,185,191,197,203,208,214,218,223,227,231,235,239,242
2019-06-05,15:37:29.281,-4363,-4295,-4227,-4159,-4091,-4023,-3955,-3887,-3819,-3750,-3682,-3614,-3547,-3479,-3412,-3345,-3278,-3212,-3146,-3080,-3015,-2950,-2886,-2822,-2759,-2696,-2634,-2572,-2511,-2451,-2391,-2331,-2273,-2215,-2158,-2101,-2045,-1990,-1935,-1881,-1828,-1776,-1724,-1673,-1623,-1574,-1525,-1477,-1430,-1384,-1338,-1293,-1249,-1206,-1164,-1122,-1081,-1040,-1001,-962,-924,-887,-850,-815,-780,-745,-712,-679,-647,-615,-585,-555,-525,-497,-469,-442,-415,-389,-364,-339,-315,-292,-269,-247,-225,-204,-184,-164,-145,-127,-109,-91,-74,-58,-42,-27,-12,2,16,29,42,54,66,78,89,100,110,120,129,138,147,155,163,171,178,185,191,197,203,208,214,218,223,227,231,235,239,242
2019-06-05,15:37:30.305,-4363,-4295,-4227,-4159,-4091,-4023,-3955,-3887,-3819,-3750,-3682,-3614,-3547,-3479,-3412,-3345,-3278,-3212,-3146,-3080,-3015,-2950,-2886,-2822,-2759,-2696,-2634,-2572,-2511,-2451,-2391,-2331,-2273,-2215,-2158,-2101,-2045,-1990,-1935,-1881,-1828,-1776,-1724,-1673,-1623,-1574,-1525,-1477,-1430,-1384,-1338,-1293,-1249,-1206,-1164,-1122,-1081,-1040,-1001,-962,-924,-887,-850,-815,-780,-745,-712,-679,-647,-615,-585,-555,-525,-497,-469,-442,-415,-389,-364,-339,-315,-292,-269,-247,-225,-204,-184,-164,-145,-127,-109,-91,-74,-58,-42,-27,-12,2,16,29,42,54,66,78,89,100,110,120,129,138,147,155,163,171,178,185,191,197,203,208,214,218,223,227,231,235,239,242
2019-06-05,15:37:31.330,-4363,-4295,-4227,-4159,-4091,-4023,-3955,-3887,-3819,-3750,-3682,-3614,-3547,-3479,-3412,-3345,-3278,-3212,-3146,-3080,-3015,-2950,-2886,-2822,-2759,-2696,-2634,-2572,-2511,-2451,-2391,-2331,-2273,-2215,-2158,-2101,-2045,-1990,-1935,-1881,-1828,-1776,-1724,-1673,-1623,-1574,-1525,-1477,-1430,-1384,-1338,-1293,-1249,-1206,-1164,-1122,-1081,-1040,-1001,-962,-924,-887,-850,-815,-780,-745,-712,-679,-647,-615,-585,-555,-525,-497,-469,-442,-415,-389,-364,-339,-315,-292,-269,-247,-225,-204,-184,-164,-145,-127,-109,-91,-74,-58,-42,-27,-12,2,16,29,42,54,66,78,89,100,110,120,129,138,147,155,163,171,178,185,191,197,203,208,214,218,223,227,231,235,239,242
2019-06-05,15:37:32.355,-4363,-4295,-4227,-4159,-4091,-4023,-3955,-3887,-3819,-3750,-3682,-3614,-3547,-3479,-3412,-3345,-3278,-3212,-3146,-3080,-3015,-2950,-2886,-2822,-2759,-2696,-2634,-2572,-2511,-2451,-2391,-2331,-2273,-2215,-2158,-2101,-2045,-1990,-1935,-1881,-1828,-1776,-1724,-1673,-1623,-1574,-1525,-1477,-1430,-1384,-1338,-1293,-1249,-1206,-1164,-1122,-1081,-1040,-1001,-962,-924,-887,-850,-815,-780,-745,-712,-679,-647,-615,-585,-555,-525,-497,-469,-442,-415,-389,-364,-339,-315,-292,-269,-247,-225,-204,-184,-164,-145,-127,-109,-91,-74,-58,-42,-27,-12,2,16,29,42,54,66,78,89,100,110,120,129,138,147,155,163,171,178,185,191,197,203,208,214,218,223,227,231,235,239,242
2019-06-05,15:37:33.379,-4363,-4295,-4227,-4159,-4091,-4023,-3955,-3887,-3819,-3750,-3682,-3614,-3547,-3479,-3412,-3345,-3278,-3212,-3146,-3080,-3015,-2950,-2886,-2822,-2759,-2696,-2634,-2572,-2511,-2451,-2391,-2331,-2273,-2215,-2158,-2101,-2045,-1990,-1935,-1881,-1828,-1776,-1724,-1673,-1623,-1574,-1525,-1477,-1430,-1384,-1338,-1293,-1249,-1206,-1164,-1122,-1081,-1040,-1001,-962,-924,-887,-850,-815,-780,-745,-712,-679,-647,-615,-585,-555,-525,-497,-469,-442,-415,-389,-364,-339,-315,-292,-269,-247,-225,-204,-184,-164,-145,-127,-109,-91,-74,-58,-42,-27,-12,2,16,29,42,54,66,78,89,100,110,120,129,138,147,155,163,171,178,185,191,197,203,208,214,218,223,227,231,235,239,242
2019-06-05,15:37:34.404,-4363,-4295,-4227,-4159,-4091,-4023,-3955,-3887,-3819,-3750,-3682,-3614,-3547,-3479,-3412,-3345,-3278,-3212,-3146,-3080,-3015,-2950,-2886,-2822,-2759,-2696,-2634,-2572,-2511,-2451,-2391,-2331,-2273,-2215,-2158,-2101,-2045,-1990,-1935,-1881,-1828,-1776,-1724,-1673,-1623,-1574,-1525,-1477,-1430,-1384,-1338,-1293,-1249,-1206,-1164,-1122,-1081,-1040,-1001,-962,-924,-887,-850,-815,-780,-745,-712,-679,-647,-615,-585,-555,-525,-497,-469,-442,-415,-389,-364,-339,-315,-292,-269,-247,-225,-204,-184,-164,-145,-127,-109,-91,-74,-58,-42,-27,-12,2,16,29,42,54,66,78,89,100,110,120,129,138,147,155,163,171,178,185,191,197,203,208,214,218,223,227,231,235,239,242
2019-06-05,15:37:35.429,-4363,-4295,-4227,-4159,-4091,-4023,-3955,-3887,-3819,-3750,-3682,-3614,-3547,-3479,-3412,-3345,-3278,-3212,-3146,-3080,-3015,-2950,-2886,-2822,-2759,-2696,-2634,-2572,-2511,-2451,-2391,-2331,-2273,-2215,-2158,-2101,-2045,-1990,-1935,-1881,-1828,-1776,-1724,-1673,-1623,-1574,-1525,-1477,-1430,-1384,-1338,-1293,-1249,-1206,-1164,-1122,-1081,-1040,-1001,-962,-924,-887,-850,-815,-780,-745,-712,-679,-647,-615,-585,-555,-525,-497,-469,-442,-415,-389,-364,-339,-315,-292,-269,-247,-225,-204,-184,-164,-145,-127,-109,-91,-74,-58,-42,-27,-12,2,16,29,42,54,66,78,89,100,110,120,129,138,147,155,163,171,178,185,191,197,203,208,214,218,223,227,231,235,239,242
2019-06-05,15:37:36.453,-4363,-4295,-4227,-4159,-4091,-4023,-3955,-3887,-3819,-3750,-3682,-3614,-3547,-3479,-3412,-3345,-3278,-3212,-3146,-3080,-3015,-2950,-2886,-2822,-2759,-2696,-2634,-2572,-2511,-2451,-2391,-2331,-2273,-2215,-2158,-2101,-2045,-1990,-1935,-1881,-1828,-1776,-1724,-1673,-1623,-1574,-1525,-1477,-1430,-1384,-1338,-1293,-1249,-1206,-1164,-1122,-1081,-1040,-1001,-962,-924,-887,-850,-815,-780,-745,-712,-679,-647,-615,-585,-555,-525,-497,-469,-442,-415,-389,-364,-339,-315,-292,-269,-247,-225,-204,-184,-164,-145,-127,-109,-91,-74,-58,-42,-27,-12,2,16,29,42,54,66,78,89,100,110,120,129,138,147,155,163,171,178,185,191,197,203,208,214,218,223,227,231,235,239,242
2019-06-05,15:37:37.478,-4363,-4295,-4227,-4159,-4091,-4023,-3955,-3887,-3819,-3750,-3682,-3614,-3547,-3479,-3412,-3345,-3278,-3212,-3146,-3080,-3015,-2950,-2886,-2822,-2759,-2696,-2634,-2572,-2511,-2451,-2391,-2331,-2273,-2215,-2158,-2101,-2045,-1990,-1935,-1881,-1828,-1776,-1724,-1673,-1623,-1574,-1525,-1477,-1430,-1384,-1338,-1293,-1249,-1206,-1164,-1122,-1081,-1040,-1001,-962,-924,-887,-850,-815,-780,-745,-712,-679,-647,-615,-585,-555,-525,-497,-469,-442,-415,-389,-364,-339,-315,-292,-269,-247,-225,-204,-184,-164,-145,-127,-109,-91,-74,-58,-42,-27,-12,2,16,29,42,54,66,78,89,100,110,120,129,138,147,155,163,171,178,185,191,197,203,208,214,218,223,227,231,235,239,242
2019-06-05,15:37:38.502,-4363,-4295,-4227,-4159,-4091,-4023,-3955,-3887,-3819,-3750,-3682,-3614,-3547,-3479,-3412,-3345,-3278,-3212,-3146,-3080,-3015,-2950,-2886,-2822,-2759,-2696,-2634,-2572,-2511,-2451,-2391,-2331,-2273,-2215,-2158,-2101,-2045,-1990,-1935,-1881,-1828,-1776,-1724,-1673,-1623,-1574,-1525,-1477,-1430,-1384,-1338,-1293,-1249,-1206,-1164,-1122,-1081,-1040,-1001,-962,-924,-887,-850,-815,-780,-745,-712,-679,-647,-615,-585,-555,-525,-497,-469,-442,-415,-389,-364,-339,-315,-292,-269,-247,-225,-204,-184,-164,-145,-127,-109,-91,-74,-58,-42,-27,-12,2,16,29,42,54,66,78,89,100,110,120,129,138,147,155,163,171,178,185,191,197,203,208,214,218,223,227,231,235,239,242
2019-06-05,15:37:39.527,-4363,-4295,-4227,-4159,-4091,-4023,-3955,-3887,-3819,-3750,-3682,-3614,-3547,-3479,-3412,-3345,-3278,-3212,-3146,-3080,-3015,-2950,-2886,-2822,-2759,-2696,-2634,-2572,-2511,-2451,-2391,-2331,-2273,-2215,-2158,-2101,-2045,-1990,-1935,-1881,-1828,-1776,-1724,-1673,-1623,-1574,-1525,-1477,-1430,-1384,-1338,-1293,-1249,-1206,-1164,-1122,-1081,-1040,-1001,-962,-924,-887,-850,-815,-780,-745,-712,-679,-647,-615,-585,-555,-525,-497,-469,-442,-415,-389,-364,-339,-315,-292,-269,-247,-225,-204,-184,-164,-145,-127,-109,-91,-74,-58,-42,-27,-12,2,16,29,42,54,66,78,89,100,110,120,129,138,147,155,163,171,178,185,191,197,203,208,214,218,223,227,231,235,239,242
2019-06-05,15:37:40.552,-4363,-4295,-4227,-4159,-4091,-4023,-3955,-3887,-3819,-3750,-3682,-3614,-3547,-3479,-3412,-3345,-3278,-3212,-3146,-3080,-3015,-2950,-2886,-2822,-2759,-2696,-2634,-2572,-2511,-2451,-2391,-2331,-2273,-2215,-2158,-2101,-2045,-1990,-1935,-1881,-1828,-1776,-1724,-1673,-1623,-1574,-1525,-1477,-1430,-1384,-1338,-1293,-1249,-1206,-1164,-1122,-1081,-1040,-1001,-962,-924,-887,-850,-815,-780,-745,-712,-679,-647,-615,-585,-555,-525,-497,-469,-442,-415,-389,-364,-339,-315,-292,-269,-247,-225,-204,-184,-164,-145,-127,-109,-91,-74,-58,-42,-27,-12,2,16,29,42,54,66,78,89,100,110,120,129,138,147,155,163,171,178,185,191,197,203,208,214,218,223,227,231,235,239,242
2019-06-05,15:37:41.576,-4363,-4295,-4227,-4159,-4091,-4023,-3955,-3887,-3819,-3750,-3682,-3614,-3547,-3479,-3412,-3345,-3278,-3212,-3146,-3080,-3015,-2950,-2886,-2822,-2759,-2696,-2634,-2572,-2511,-2451,-2391,-2331,-2273,-2215,-2158,-2101,-2045,-1990,-1935,-1881,-1828,-1776,-1724,-1673,-1623,-1574,-1525,-1477,-1430,-1384,-1338,-1293,-1249,-1206,-1164,-1122,-1081,-1040,-1001,-962,-924,-887,-850,-815,-780,-745,-712,-679,-647,-615,-585,-555,-525,-497,-469,-442,-415,-389,-364,-339,-315,-292,-269,-247,-225,-204,-184,-164,-145,-127,-109,-91,-74,-58,-42,-27,-12,2,16,29,42,54,66,78,89,100,110,120,129,138,147,155,163,171,178,185,191,197,203,208,214,218,223,227,231,235,239,242
2019-06-05,15:37:42.601,-4363,-4295,-4227,-4159,-4091,-4023,-3955,-3887,-3819,-3750,-3682,-3614,-3547,-3479,-3412,-3345,-3278,-3212,-3146,-3080,-3015,-2950,-2886,-2822,-2759,-2696,-2634,-2572,-2511,-2451,-2391,-2331,-2273,-2215,-2158,-2101,-2045,-1990,-1935,-1881,-1828,-1776,-1724,-1673,-1623,-1574,-1525,-1477,-1430,-1384,-1338,-1293,-1249,-1206,-1164,-1122,-1081,-1040,-1001,-962,-924,-887,-850,-815,-780,-745,-712,-679,-647,-615,-585,-555,-525,-497,-469,-442,-415,-389,-364,-339,-315,-292,-269,-247,-225,-204,-184,-164,-145,-127,-109,-91,-74,-58,-42,-27,-12,2,16,29,42,54,66,78,89,100,110,120,129,138,147,155,163,171,178,185,191,197,203,208,214,218,223,227,231,235,239,242
2019-06-05,15:37:43.626,-4363,-4295,-4227,-4159,-4091,-4023,-3955,-3887,-3819,-3750,-3682,-3614,-3547,-3479,-3412,-3345,-3278,-3212,-3146,-3080,-3015,-2950,-2886,-2822,-2759,-2696,-2634,-2572,-2511,-2451,-2391,-2331,-2273,-2215,-2158,-2101,-2045,-1990,-1935,-1881,-1828,-1776,-1724,-1673,-1623,-1574,-1525,-1477,-1430,-1384,-1338,-1293,-1249,-1206,-1164,-1122,-1081,-1040,-1001,-962,-924,-887,-850,-815,-780,-745,-712,-679,-647,-615,-585,-555,-525,-497,-469,-442,-415,-389,-364,-339,-315,-292,-269,-247,-225,-204,-184,-164,-145,-127,-109,-91,-74,-58,-42,-27,-12,2,16,29,42,54,66,78,89,100,110,120,129,138,147,155,163,171,178,185,191,197,203,208,214,218,223,227,231,235,239,242
2019-06-05,15:37:44.650,-4363,-4295,-4227,-4159,-4091,-4023,-3955,-3887,-3819,-3750,-3682,-3614,-3547,-3479,-3412,-3345,-3278,-3212,-3146,-3080,-3015,-2950,-2886,-2822,-2759,-2696,-2634,-2572,-2511,-2451,-2391,-2331,-2273,-2215,-2158,-2101,-2045,-1990,-1935,-1881,-1828,-1776,-1724,-1673,-1623,-1574,-1525,-1477,-1430,-1384,-1338,-1293,-1249,-1206,-1164,-1122,-1081,-1040,-1001,-962,-924,-887,-850,-815,-780,-745,-712,-679,-647,-615,-585,-555,-525,-497,-469,-442,-415,-389,-364,-339,-315,-292,-269,-247,-225,-204,-184,-164,-145,-127,-109,-91,-74,-58,-42,-27,-12,2,16,29,42,54,66,78,89,100,110,120,129,138,147,155,163,171,178,185,191,197,203,208,214,218,223,227,231,235,239,242
2019-06-05,15:37:45.675,-4363,-4295,-4227,-4159,-4091,-4023,-3955,-3887,-3819,-3750,-3682,-3614,-3547,-3479,-3412,-3345,-3278,-3212,-3146,-3080,-3015,-2950,-2886,-2822,-2759,-2696,-2634,-2572,-2511,-2451,-2391,-2331,-2273,-2215,-2158,-2101,-2045,-1990,-1935,-1881,-1828,-1776,-1724,-1673,-1623,-1574,-1525,-1477,-1430,-1384,-1338,-1293,-1249,-1206,-1164,-1122,-1081,-1040,-1001,-962,-924,-887,-850,-815,-780,-745,-712,-679,-647,-615,-585,-555,-525,-497,-469,-442,-415,-389,-364,-339,-315,-292,-269,-247,-225,-204,-184,-164,-145,-127,-109,-91,-74,-58,-42,-27,-12,2,16,29,42,54,66,78,89,100,110,120,129,138,147,155,163,171,178,185,191,197,203,208,214,218,223,227,231,235,239,242
2019-06-05,15:37:46.700,-4363,-4295,-4227,-4159,-4091,-4023,-3955,-3887,-3819,-3750,-3682,-3614,-3547,-3479,-3412,-3345,-3278,-3212,-3146,-3080,-3015,-2950,-2886,-2822,-2759,-2696,-2634,-2572,-2511,-2451,-2391,-2331,-2273,-2215,-2158,-2101,-2045,-1990,-1935,-1881,-1828,-1776,-1724,-1673,-1623,-1574,-1525,-1477,-1430,-1384,-1338,-1293,-1249,-1206,-1164,-1122,-1081,-1040,-1001,-962,-924,-887,-850,-815,-780,-745,-712,-679,-647,-615,-585,-555,-525,-497,-469,-442,-415,-389,-364,-339,-315,-292,-269,-247,-225,-204,-184,-164,-145,-127,-109,-91,-74,-58,-42,-27,-12,2,16,29,42,54,66,78,89,100,110,120,129,138,147,155,163,171,178,185,191,197,203,208,214,218,223,227,231,235,239,242
2019-06-05,15:37:47.724,-4363,-4295,-4227,-4159,-4091,-4023,-3955,-3887,-3819,-3750,-3682,-3614,-3547,-3479,-3412,-3345,-3278,-3212,-3146,-3080,-3015,-2950,-2886,-2822,-2759,-2696,-2634,-2572,-2511,-2451,-2391,-2331,-2273,-2215,-2158,-2101,-2045,-1990,-1935,-1881,-1828,-1776,-1724,-1673,-1623,-1574,-1525,-1477,-1430,-1384,-1338,-1293,-1249,-1206,-1164,-1122,-1081,-1040,-1001,-962,-924,-887,-850,-815,-780,-745,-712,-679,-647,-615,-585,-555,-525,-497,-469,-442,-415,-389,-364,-339,-315,-292,-269,-247,-225,-204,-184,-164,-145,-127,-109,-91,-74,-58,-42,-27,-12,2,16,29,42,54,66,78,89,100,110,120,129,138,147,155,163,171,178,185,191,197,203,208,214,218,223,227,231,235,239,242
2019-06-05,15:37:48.749,-4363,-4295,-4227,-4159,-4091,-4023,-3955,-3887,-3819,-3750,-3682,-3614,-3547,-3479,-3412,-3345,-3278,-3212,-3146,-3080,-3015,-2950,-2886,-2822,-2759,-2696,-2634,-2572,-2511,-2451,-2391,-2331,-2273,-2215,-2158,-2101,-2045,-1990,-1935,-1881,-1828,-1776,-1724,-1673,-1623,-1574,-1525,-1477,-1430,-1384,-1338,-1293,-1249,-1206,-1164,-1122,-1081,-1040,-1001,-962,-924,-887,-850,-815,-780,-745,-712,-679,-647,-615,-585,-555,-525,-497,-469,-442,-415,-389,-364,-339,-315,-292,-269,-247,-225,-204,-184,-164,-145,-127,-109,-91,-74,-58,-42,-27,-12,2,16,29,42,54,66,78,89,100,110,120,129,138,147,155,163,171,178,185,191,197,203,208,214,218,223,227,231,235,239,242
2019-06-05,15:37:49.773,-4363,-4295,-4227,-4159,-4091,-4023,-3955,-3887,-3819,-3750,-3682,-3614,-3547,-3479,-3412,-3345,-3278,-3212,-3146,-3080,-3015,-2950,-2886,-2822,-2759,-2696,-2634,-2572,-2511,-2451,-2391,-2331,-2273,-2215,-2158,-2101,-2045,-1990,-1935,-1881,-1828,-1776,-1724,-1673,-1623,-1574,-1525,-1477,-1430,-1384,-1338,-1293,-1249,-1206,-1164,-1122,-1081,-1040,-1001,-962,-924,-887,-850,-815,-780,-745,-712,-679,-647,-615,-585,-555,-525,-497,-469,-442,-415,-389,-364,-339,-315,-292,-269,-247,-225,-204,-184,-164,-145,-127,-109,-91,-74,-58,-42,-27,-12,2,16,29,42,54,66,78,89,100,110,120,129,138,147,155,163,171,178,185,191,197,203,208,214,218,223,227,231,235,239,242
2019-06-05,15:37:50.798,-4363,-4295,-4227,-4159,-4091,-4023,-3955,-3887,-3819,-3750,-3682,-3614,-3547,-3479,-3412,-3345,-3278,-3212,-3146,-3080,-3015,-2950,-2886,-2822,-2759,-2696,-2634,-2572,-2511,-2451,-2391,-2331,-2273,-2215,-2158,-2101,-2045,-1990,-1935,-1881,-1828,-1776,-1724,-1673,-1623,-1574,-1525,-1477,-1430,-1384,-1338,-1293,-1249,-1206,-1164,-1122,-1081,-1040,-1001,-962,-924,-887,-850,-815,-780,-745,-712,-679,-647,-615,-585,-555,-525,-497,-469,-442,-415,-389,-364,-339,-315,-292,-269,-247,-225,-204,-184,-164,-145,-127,-109,-91,-74,-58,-42,-27,-12,2,16,29,42,54,66,78,89,100,110,120,129,138,147,155,163,171,178,185,191,197,203,208,214,218,223,227,231,235,239,242
2019-06-05,15:37:51.823,-4363,-4295,-4227,-4159,-4091,-4023,-3955,-3887,-3819,-3750,-3682,-3614,-3547,-3479,-3412,-3345,-3278,-3212,-3146,-3080,-3015,-2950,-2886,-2822,-2759,-2696,-2634,-2572,-2511,-2451,-2391,-2331,-2273,-2215,-2158,-2101,-2045,-1990,-1935,-1881,-1828,-1776,-1724,-1673,-1623,-1574,-1525,-1477,-1430,-1384,-1338,-1293,-1249,-1206,-1164,-1122,-1081,-1040,-1001,-962,-924,-887,-850,-815,-780,-745,-712,-679,-647,-615,-585,-555,-525,-497,-469,-442,-415,-389,-364,-339,-315,-292,-269,-247,-225,-204,-184,-164,-145,-127,-109,-91,-74,-58,-42,-27,-12,2,16,29,42,54,66,78,89,100,110,120,129,138,147,155,163,171,178,185,191,197,203,208,214,218,223,227,231,235,239,242
2019-06-05,15:37:52.847,-4363,-4295,-4227,-4159,-4091,-4023,-3955,-3887,-3819,-3750,-3682,-3614,-3547,-3479,-3412,-3345,-3278,-3212,-3146,-3080,-3015,-2950,-2886,-2822,-2759,-2696,-2634,-2572,-2511,-2451,-2391,-2331,-2273,-2215,-2158,-2101,-2045,-1990,-1935,-1881,-1828,-1776,-1724,-1673,-1623,-1574,-1525,-1477,-1430,-1384,-1338,-1293,-1249,-1206,-1164,-1122,-1081,-1040,-1001,-962,-924,-887,-850,-815,-780,-745,-712,-679,-647,-615,-585,-555,-525,-497,-469,-442,-415,-389,-364,-339,-315,-292,-269,-247,-225,-204,-184,-164,-145,-127,-109,-91,-74,-58,-42,-27,-12,2,16,29,42,54,66,78,89,100,110,120,129,138,147,155,163,171,178,185,191,197,203,208,214,218,223,227,231,235,239,242
2019-06-05,15:37:53.872,-4363,-4295,-4227,-4159,-4091,-4023,-3955,-3887,-3819,-3750,-3682,-3614,-3547,-3479,-3412,-3345,-3278,-3212,-3146,-3080,-3015,-2950,-2886,-2822,-2759,-2696,-2634,-2572,-2511,-2451,-2391,-2331,-2273,-2215,-2158,-2101,-2045,-1990,-1935,-1881,-1828,-1776,-1724,-1673,-1623,-1574,-1525,-1477,-1430,-1384,-1338,-1293,-1249,-1206,-1164,-1122,-1081,-1040,-1001,-962,-924,-887,-850,-815,-780,-745,-712,-679,-647,-615,-585,-555,-525,-497,-469,-442,-415,-389,-364,-339,-315,-292,-269,-247,-225,-204,-184,-164,-145,-127,-109,-91,-74,-58,-42,-27,-12,2,16,29,42,54,66,78,89,100,110,120,129,138,147,155,163,171,178,185,191,197,203,208,214,218,223,227,231,235,239,242
2019-06-05,15:37:54.897,-4363,-4295,-4227,-4159,-4091,-4023,-3955,-3887,-3819,-3750,-3682,-3614,-3547,-3479,-3412,-3345,-3278,-3212,-3146,-3080,-3015,-2950,-2886,-2822,-2759,-2696,-2634,-2572,-2511,-2451,-2391,-2331,-2273,-2215,-2158,-2101,-2045,-1990,-1935,-1881,-1828,-1776,-1724,-1673,-1623,-1574,-1525,-1477,-1430,-1384,-1338,-1293,-1249,-1206,-1164,-1122,-1081,-1040,-1001,-962,-924,-887,-850,-815,-780,-745,-712,-679,-647,-615,-585,-555,-525,-497,-469,-442,-415,-389,-364,-339,-315,-292,-269,-247,-225,-204,-184,-164,-145,-127,-109,-91,-74,-58,-42,-27,-12,2,16,29,42,54,66,78,89,100,110,120,129,138,147,155,163,171,178,185,191,197,203,208,214,218,223,227,231,235,239,242
2019-06-05,15:37:55.921,-4363,-4295,-4227,-4159,-4091,-4023,-3955,-3887,-3819,-3750,-3682,-3614,-3547,-3479,-3412,-3345,-3278,-3212,-3146,-3080,-3015,-2950,-2886,-2822,-2759,-2696,-2634,-2572,-2511,-2451,-2391,-2331,-2273,-2215,-2158,-2101,-2045,-1990,-1935,-1881,-1828,-1776,-1724,-1673,-1623,-1574,-1525,-1477,-1430,-1384,-1338,-1293,-1249,-1206,-1164,-1122,-1081,-1040,-1001,-962,-924,-887,-850,-815,-780,-745,-712,-679,-647,-615,-585,-555,-525,-497,-469,-442,-415,-389,-364,-339,-315,-292,-269,-247,-225,-204,-184,-164,-145,-127,-109,-91,-74,-58,-42,-27,-12,2,16,29,42,54,66,78,89,100,110,120,129,138,147,155,163,171,178,185,191,197,203,208,214,218,223,227,231,235,239,242
2019-06-05,15:37:56.946,-4363,-4295,-4227,-4159,-4091,-4023,-3955,-3887,-3819,-3750,-3682,-3614,-3547,-3479,-3412,-3345,-3278,-3212,-3146,-3080,-3015,-2950,-2886,-2822,-2759,-2696,-2634,-2572,-2511,-2451,-2391,-2331,-2273,-2215,-2158,-2101,-2045,-1990,-1935,-1881,-1828,-1776,-1724,-1673,-1623,-1574,-1525,-1477,-1430,-1384,-1338,-1293,-1249,-1206,-1164,-1122,-1081,-1040,-1001,-962,-924,-887,-850,-815,-780,-745,-712,-679,-647,-615,-585,-555,-525,-497,-469,-442,-415,-389,-364,-339,-315,-292,-269,-247,-225,-204,-184,-164,-145,-127,-109,-91,-74,-58,-42,-27,-12,2,16,29,42,54,66,78,89,100,110,120,129,138,147,155,163,171,178,185,191,197,203,208,214,218,223,227,231,235,239,242
2019-06-05,15:37:57.970,-4363,-4295,-4227,-4159,-4091,-4023,-3955,-3887,-3819,-3750,-3682,-3614,-3547,-3479,-3412,-3345,-3278,-3212,-3146,-3080,-3015,-2950,-2886,-2822,-2759,-2696,-2634,-2572,-2511,-2451,-2391,-2331,-2273,-2215,-2158,-2101,-2045,-1990,-1935,-1881,-1828,-1776,-1724,-1673,-1623,-1574,-1525,-1477,-1430,-1384,-1338,-1293,-1249,-1206,-1164,-1122,-1081,-1040,-1001,-962,-924,-887,-850,-815,-780,-745,-712,-679,-647,-615,-585,-555,-525,-497,-469,-442,-415,-389,-364,-339,-315,-292,-269,-247,-225,-204,-184,-164,-145,-127,-109,-91,-74,-58,-42,-27,-12,2,16,29,42,54,66,78,89,100,110,120,129,138,147,155,163,171,178,185,191,197,203,208,214,218,223,227,231,235,239,242
2019-06-05,15:37:58.995,-4363,-4295,-4227,-4159,-4091,-4023,-3955,-3887,-3819,-3750,-3682,-3614,-3547,-3479,-3412,-3345,-3278,-3212,-3146,-3080,-3015,-2950,-2886,-2822,-2759,-2696,-2634,-2572,-2511,-2451,-2391,-2331,-2273,-2215,-2158,-2101,-2045,-1990,-1935,-1881,-1828,-1776,-1724,-1673,-1623,-1574,-1525,-1477,-1430,-1384,-1338,-1293,-1249,-1206,-1164,-1122,-1081,-1040,-1001,-962,-924,-887,-850,-815,-780,-745,-712,-679,-647,-615,-585,-555,-525,-497,-469,-442,-415,-389,-364,-339,-315,-292,-269,-247,-225,-204,-184,-164,-145,-127,-109,-91,-74,-58,-42,-27,-12,2,16,29,42,54,66,78,89,100,110,120,129,138,147,155,163,171,178,185,191,197,203,208,214,218,223,227,231,235,239,242
2019-06-05,15:38:00.020,-4363,-4295,-4227,-4159,-4091,-4023,-3955,-3887,-3819,-3750,-3682,-3614,-3547,-3479,-3412,-3345,-3278,-3212,-3146,-3080,-3015,-2950,-2886,-2822,-2759,-2696,-2634,-2572,-2511,-2451,-2391,-2331,-2273,-2215,-2158,-2101,-2045,-1990,-1935,-1881,-1828,-1776,-1724,-1673,-1623,-1574,-1525,-1477,-1430,-1384,-1338,-1293,-1249,-1206,-1164,-1122,-1081,-1040,-1001,-962,-924,-887,-850,-815,-780,-745,-712,-679,-647,-615,-585,-555,-525,-497,-469,-442,-415,-389,-364,-339,-315,-292,-269,-247,-225,-204,-184,-164,-145,-127,-109,-91,-74,-58,-42,-27,-12,2,16,29,42,54,66,78,89,100,110,120,129,138,147,155,163,171,178,185,191,197,203,208,214,218,223,227,231,235,239,242
2019-06-05,15:38:01.044,-4363,-4295,-4227,-4159,-4091,-4023,-3955,-3887,-3819,-3750,-3682,-3614,-3547,-3479,-3412,-3345,-3278,-3212,-3146,-3080,-3015,-2950,-2886,-2822,-2759,-2696,-2634,-2572,-2511,-2451,-2391,-2331,-2273,-2215,-2158,-2101,-2045,-1990,-1935,-1881,-1828,-1776,-1724,-1673,-1623,-1574,-1525,-1477,-1430,-1384,-1338,-1293,-1249,-1206,-1164,-1122,-1081,-1040,-1001,-962,-924,-887,-850,-815,-780,-745,-712,-679,-647,-615,-585,-555,-525,-497,-469,-442,-415,-389,-364,-339,-315,-292,-269,-247,-225,-204,-184,-164,-145,-127,-109,-91,-74,-58,-42,-27,-12,2,16,29,42,54,66,78,89,100,110,120,129,138,147,155,163,171,178,185,191,197,203,208,214,218,223,227,231,235,239,242
2019-06-05,15:38:02.069,-4363,-4295,-4227,-4159,-4091,-4023,-3955,-3887,-3819,-3750,-3682,-3614,-3547,-3479,-3412,-3345,-3278,-3212,-3146,-3080,-3015,-2950,-2886,-2822,-2759,-2696,-2634,-2572,-2511,-2451,-2391,-2331,-2273,-2215,-2158,-2101,-2045,-1990,-1935,-1881,-1828,-1776,-1724,-1673,-1623,-1574,-1525,-1477,-1430,-1384,-1338,-1293,-1249,-1206,-1164,-1122,-1081,-1040,-1001,-962,-924,-887,-850,-815,-780,-745,-712,-679,-647,-615,-585,-555,-525,-497,-469,-442,-415,-389,-364,-339,-315,-292,-269,-247,-225,-204,-184,-164,-145,-127,-109,-91,-74,-58,-42,-27,-12,2,16,29,42,54,66,78,89,100,110,120,129,138,147,155,163,171,178,185,191,197,203,208,214,218,223,227,231,235,239,242
2019-06-05,15:38:03.094,-4363,-4295,-4227,-4159,-4091,-4023,-3955,-3887,-3819,-3750,-3682,-3614,-3547,-3479,-3412,-3345,-3278,-3212,-3146,-3080,-3015,-2950,-2886,-2822,-2759,-2696,-2634,-2572,-2511,-2451,-2391,-2331,-2273,-2215,-2158,-2101,-2045,-1990,-1935,-1881,-1828,-1776,-1724,-1673,-1623,-1574,-1525,-1477,-1430,-1384,-1338,-1293,-1249,-1206,-1164,-1122,-1081,-1040,-1001,-962,-924,-887,-850,-815,-780,-745,-712,-679,-647,-615,-585,-555,-525,-497,-469,-442,-415,-389,-364,-339,-315,-292,-269,-247,-225,-204,-184,-164,-145,-127,-109,-91,-74,-58,-42,-27,-12,2,16,29,42,54,66,78,89,100,110,120,129,138,147,155,163,171,178,185,191,197,203,208,214,218,223,227,231,235,239,242
2019-06-05,15:38:04.118,-4363,-4295,-4227,-4159,-4091,-4023,-3955,-3887,-3819,-3750,-3682,-3614,-3547,-3479,-3412,-3345,-3278,-3212,-3146,-3080,-3015,-2950,-2886,-2822,-2759,-2696,-2634,-2572,-2511,-2451,-2391,-2331,-2273,-2215,-2158,-2101,-2045,-1990,-1935,-1881,-1828,-1776,-1724,-1673,-1623,-1574,-1525,-1477,-1430,-1384,-1338,-1293,-1249,-1206,-1164,-1122,-1081,-1040,-1001,-962,-924,-887,-850,-815,-780,-745,-712,-679,-647,-615,-585,-555,-525,-497,-469,-442,-415,-389,-364,-339,-315,-292,-269,-247,-225,-204,-184,-164,-145,-127,-109,-91,-74,-58,-42,-27,-12,2,16,29,42,54,66,78,89,100,110,120,129,138,147,155,163,171,178,185,191,197,203,208,214,218,223,227,231,235,239,242
2019-06-05,15:38:05.143,-4363,-4295,-4227,-4159,-4091,-4023,-3955,-3887,-3819,-3750,-3682,-3614,-3547,-3479,-3412,-3345,-3278,-3212,-3146,-3080,-3015,-2950,-2886,-2822,-2759,-2696,-2634,-2572,-2511,-2451,-2391,-2331,-2273,-2215,-2158,-2101,-2045,-1990,-1935,-1881,-1828,-1776,-1724,-1673,-1623,-1574,-1525,-1477,-1430,-1384,-1338,-1293,-1249,-1206,-1164,-1122,-1081,-1040,-1001,-962,-924,-887,-850,-815,-780,-745,-712,-679,-647,-615,-585,-555,-525,-497,-469,-442,-415,-389,-364,-339,-315,-292,-269,-247,-225,-204,-184,-164,-145,-127,-109,-91,-74,-58,-42,-27,-12,2,16,29,42,54,66,78,89,100,110,120,129,138,147,155,163,171,178,185,191,197,203,208,214,218,223,227,231,235,239,242
2019-06-05,15:38:06.168,-4363,-4295,-4227,-4159,-4091,-4023,-3955,-3887,-3819,-3750,-3682,-3614,-3547,-3479,-3412,-3345,-3278,-3212,-3146,-3080,-3015,-2950,-2886,-2822,-2759,-2696,-2634,-2572,-2511,-2451,-2391,-2331,-2273,-2215,-2158,-2101,-2045,-1990,-1935,-1881,-1828,-1776,-1724,-1673,-1623,-1574,-1525,-1477,-1430,-1384,-1338,-1293,-1249,-1206,-1164,-1122,-1081,-1040,-1001,-962,-924,-887,-850,-815,-780,-745,-712,-679,-647,-615,-585,-555,-525,-497,-469,-442,-415,-389,-364,-339,-315,-292,-269,-247,-225,-204,-184,-164,-145,-127,-109,-91,-74,-58,-42,-27,-12,2,16,29,42,54,66,78,89,100,110,120,129,138,147,155,163,171,178,185,191,197,203,208,214,218,223,227,231,235,239,242
2019-06-05,15:38:07.192,-4363,-4295,-4227,-4159,-4091,-4023,-3955,-3887,-3819,-3750,-3682,-3614,-3547,-3479,-3412,-3345,-3278,-3212,-3146,-3080,-3015,-2950,-2886,-2822,-2759,-2696,-2634,-2572,-2511,-2451,-2391,-2331,-2273,-2215,-2158,-2101,-2045,-1990,-1935,-1881,-1828,-1776,-1724,-1673,-1623,-1574,-1525,-1477,-1430,-1384,-1338,-1293,-1249,-1206,-1164,-1122,-1081,-1040,-1001,-962,-924,-887,-850,-815,-780,-745,-712,-679,-647,-615,-585,-555,-525,-497,-469,-442,-415,-389,-364,-339,-315,-292,-269,-247,-225,-204,-184,-164,-145,-127,-109,-91,-74,-58,-42,-27,-12,2,16,29,42,54,66,78,89,100,110,120,129,138,147,155,163,171,178,185,191,197,203,208,214,218,223,227,231,235,239,242
2019-06-05,15:38:08.217,-4363,-4295,-4227,-4159,-4091,-4023,-3955,-3887,-3819,-3750,-3682,-3614,-3547,-3479,-3412,-3345,-3278,-3212,-3146,-3080,-3015,-2950,-2886,-2822,-2759,-2696,-2634,-2572,-2511,-2451,-2391,-2331,-2273,-2215,-2158,-2101,-2045,-1990,-1935,-1881,-1828,-1776,-1724,-1673,-1623,-1574,-1525,-1477,-1430,-1384,-1338,-1293,-1249,-1206,-1164,-1122,-1081,-1040,-1001,-962,-924,-887,-850,-815,-780,-745,-712,-679,-647,-615,-585,-555,-525,-497,-469,-442,-415,-389,-364,-339,-315,-292,-269,-247,-225,-204,-184,-164,-145,-127,-109,-91,-74,-58,-42,-27,-12,2,16,29,42,54,66,78,89,100,110,120,129,138,147,155,163,171,178,185,191,197,203,208,214,218,223,227,231,235,239,242
2019-06-05,15:38:09.241,-4363,-4295,-4227,-4159,-4091,-4023,-3955,-3887,-3819,-3750,-3682,-3614,-3547,-3479,-3412,-3345,-3278,-3212,-3146,-3080,-3015,-2950,-2886,-2822,-2759,-2696,-2634,-2572,-2511,-2451,-2391,-2331,-2273,-2215,-2158,-2101,-2045,-1990,-1935,-1881,-1828,-1776,-1724,-1673,-1623,-1574,-1525,-1477,-1430,-1384,-1338,-1293,-1249,-1206,-1164,-1122,-1081,-1040,-1001,-962,-924,-887,-850,-815,-780,-745,-712,-679,-647,-615,-585,-555,-525,-497,-469,-442,-415,-389,-364,-339,-315,-292,-269,-247,-225,-204,-184,-164,-145,-127,-109,-91,-74,-58,-42,-27,-12,2,16,29,42,54,66,78,89,100,110,120,129,138,147,155,163,171,178,185,191,197,203,208,214,218,223,227,231,235,239,242
2019-06-05,15:38:10.266,-4363,-4295,-4227,-4159,-4091,-4023,-3955,-3887,-3819,-3750,-3682,-3614,-3547,-3479,-3412,-3345,-3278,-3212,-3146,-3080,-3015,-2950,-2886,-2822,-2759,-2696,-2634,-2572,-2511,-2451,-2391,-2331,-2273,-2215,-2158,-2101,-2045,-1990,-1935,-1881,-1828,-1776,-1724,-1673,-1623,-1574,-1525,-1477,-1430,-1384,-1338,-1293,-1249,-1206,-1164,-1122,-1081,-1040,-1001,-962,-924,-887,-850,-815,-780,-745,-712,-679,-647,-615,-585,-555,-525,-497,-469,-442,-415,-389,-364,-339,-315,-292,-269,-247,-225,-204,-184,-164,-145,-127,-109,-91,-74,-58,-42,-27,-12,2,16,29,42,54,66,78,89,100,110,120,129,138,147,155,163,171,178,185,191,197,203,208,214,218,223,227,231,235,239,242
2019-06-05,15:38:11.291,-4420,-4353,-4285,-4218,-4150,-4083,-4015,-3947,-3879,-3811,-3743,-3676,-3608,-3541,-3474,-3407,-3340,-3274,-3208,-3143,-3077,-3013,-2948,-2884,-2821,-2758,-2695,-2633,-2572,-2511,-2450,-2391,-2331,-2273,-2215,-2157,-2101,-2044,-1989,-1934,-1880,-1826,-1774,-1721,-1670,-1619,-1569,-1519,-1470,-1422,-1375,-1328,-1282,-1236,-1192,-1147,-1104,-1061,-1019,-977,-937,-896,-857,-818,-779,-742,-705,-668,-632,-597,-562,-528,-494,-461,-429,-397,-365,-335,-304,-274,-245,-216,-187,-159,-132,-105,-78,-52,-26,-1,23,48,72,96,120,143,166,188,210,232,254,275,296,317,337,357,377,397,417,436,455,474,493,511,530,548,566,584,601,619,636,654,671,688,705,722,738,755
2019-06-05,15:38:12.315,-3603,-3522,-3441,-3360,-3279,-3197,-3116,-3035,-2955,-2874,-2794,-2714,-2634,-2555,-2476,-2398,-2320,-2243,-2167,-2091,-2016,-1942,-1869,-1796,-1725,-1654,-1585,-1516,-1449,-1382,-1317,-1253,-1190,-1129,-1069,-1010,-952,-896,-841,-788,-736,-686,-637,-590,-545,-501,-459,-418,-380,-343,-308,-275,-243,-214,-186,-161,-137,-116,2324,-79,-64,-51,-40,-31,-25,-21,-19,-19,-22,-27,-576,-45,-58,-6908,-8554,-8626,-8674,-8720,-8759,-8802,-8846,-8890,-8938,-8987,-9031,-9083,-9139,-9192,-9256,-9310,-9021,-8400,-7808,-7262,-6803,-6351,-5881,-5417,-4965,-4578,-4232,-3887,-3556,-3297,-3052,-2737,-2464,-2223,-2230,-2333,-2438,-2544,-2652,-2762,-2873,-2985,-3099,-3214,-3331,-3448,-3567,-3687,-3808,-3929,-4052,-4175,-4299,-4423
2019-06-05,15:38:13.340,9207,9144,9081,9017,6020,404,176,103,32,-32,-98,-164,-231,-305,-371,-422,-466,-527,-619,-742,-793,-797,-641,-434,-336,-227,-116,-5,70,164,270,356,377,398,445,544,598,601,603,596,595,597,573,534,503,469,450,468,497,567,641,683,616,851,1197,1339,1339,1416,1507,1578,1628,1675,1702,1756,1852,1958,2067,2151,2227,2287,2339,2413,2490,2556,2625,2694,2764,2823,2892,2956,3014,3060,3118,3175,3229,3293,3353,3420,3483,3560,3631,3676,3711,3763,3832,3905,3981,4060,4037,4012,3988,3963,3940,3916,3893,3870,-1366,-4814,-4855,-4891,-4915,-4938,-4966,-4984,-5015,-5038,-5053,-5064,-4949,-5120,-5160,-5180,-5197,-4719,-3561,-3193,-3019,-2868
2019-06-05,15:38:14.365,208,407,533,656,725,792,873,951,1001,1051,1101,1144,1174,1205,1240,1274,1304,1325,1358,1387,1419,1450,1478,1502,1523,1520,1529,1549,1569,1588,1591,1563,1571,1578,1588,1593,1604,1609,1610,1624,1637,1636,1643,1643,1651,1664,1687,1692,1693,1703,1698,1674,1633,1597,1571,1542,1520,1527,1525,1530,1519,1480,1384,1236,1452,1872,2064,1692,1120,1020,1141,1269,1334,1369,1413,1445,1467,1470,1461,1415,1370,1326,1282,1239,1197,1156,1115,1075,1036,997,960,923,886,851,816,782,748,715,683,652,621,591,562,533,505,478,451,425,399,375,350,327,304,282,260,239,218,198,179,160,141,124,106,89,73,58,42,28
2019-06-05,15:38:15.389,3699,3630,3562,3494,3425,3357,3289,3221,3154,3087,3019,2953,2886,2820,2755,2690,2625,2561,2497,2434,2371,2309,2247,2186,2126,2066,2007,1949,1891,1834,1777,1722,1667,1613,1559,1507,1455,1403,1353,1304,1255,1207,1160,1113,1068,1023,979,936,894,853,813,773,734,696,659,623,588,554,520,487,455,425,394,365,337,309,283,257,232,208,185,163,142,121,101,83,65,48,32,16,2,-11,-24,-36,-47,-57,-66,-74,-82,-89,-95,-100,-104,-107,-110,-111,-112,-112,-111,-109,-107,-103,-99,-94,-87,-81,-73,-64,-55,-45,-33,-21,-9,4,19,34,50,67,85,104,124,144,165,188,211,234,259,285
2019-06-05,15:38:16.414,5095,5056,5018,4980,4943,4907,4871,4836,4802,4768,4735,4704,4673,4643,4614,4586,4559,4534,4509,4485,4463,4442,4422,4403,4385,4369,4354,4340,4327,4315,4305,4296,4289,4282,4277,4273,4271,4269,4269,4271,4273,4277,4282,4288,4295,4303,4313,4324,4335,4348,4362,4377,4393,4410,4428,4446,4466,4486,4508,4530,4552,4575,4599,4624,4649,-2470,-3953,-3996,-3944,-3894,-3862,-3839,-3818,-3790,-3764,-3736,-3709,-3682,-3654,-3627,-3601,-3573,-3515,-3423,-3331,-3246,-3165,-3083,-2997,-2919,-2843,-2768,-2700,-2631,-2562,-2499,-2433,-2365,-2306,-2247,-2190,-2119,-2066,-2013,-1956,-1904,-1863,-1814,-1732,-1662,-1602,-1543,-1488,-1436,-1390,-1334,-1287,-1236,-1186,-1144,-1101,-1060,-1022,-986,-948,-912,-880,-843
2019-06-05,15:38:17.439,1277,1285,1292,1312,1326,1328,1330,1319,1291,1280,1274,1267,1263,1249,1210,1123,1046,1163,1633,2129,2135,1385,960,937,1044,1131,1135,1127,1126,1124,1116,1104,1100,1089,1079,1066,1057,1048,1036,1023,1012,1000,987,973,955,939,921,905,894,879,863,848,834,822,805,780,759,740,725,709,695,681,668,656,649,638,616,598,585,565,553,536,522,505,487,472,456,444,428,419,412,406,395,384,375,374,383,373,361,350,335,299,282,272,260,238,217,162,62,-1,234,704,1126,843,179,-81,-79,17,86,94,87,90,91,90,90,86,86,89,89,85,86,91,85,82,81,92,94,92
2019-06-05,15:38:18.463,2288,2260,2234,2200,2161,2121,2078,2034,1995,1944,1896,1847,1808,1764,1729,1697,1669,1643,1615,1591,1563,1522,1488,1451,1412,1384,1354,1326,1300,1272,1240,1208,1177,1144,1112,1088,1060,1031,1011,993,971,956,942,920,895,866,830,787,758,734,707,678,647,595,497,418,534,914,1275,1109,521,243,175,242,325,374,374,368,361,355,343,330,323,315,307,298,284,277,267,262,260,255,251,246,246,240,238,231,214,194,184,179,156,120,95,73,52,24,6,-1,-13,-22,-25,-29,-34,-41,-47,-52,-56,-59,-68,-77,-79,-80,-80,-81,-83,-81,-82,-89,-93,-98,-108,-103,-103,-103,-95,-85
2019-06-05,15:38:19.488,3364,3311,3256,3200,3130,3058,3000,2950,2899,2844,2767,2653,2526,2499,2822,3214,3339,2791,2293,2134,2152,2194,2197,2149,2103,2056,2006,1960,1915,1871,1834,1790,1748,1713,1675,1631,1598,1565,1522,1489,1454,1416,1373,1338,1302,1261,1226,1183,1146,1102,1058,1017,968,924,881,846,810,776,745,709,680,652,627,595,570,546,516,488,464,437,407,385,361,344,323,304,285,272,250,234,222,212,200,185,178,172,164,139,125,104,64,37,18,1,-13,-39,-88,-184,-266,-146,310,799,847,172,-259,-326,-248,-175,-154,-156,-154,-151,-157,-158,-156,-159,-155,-156,-155,-156,-163,-162,-156,-145,-141,-147,-148,-154
2019-06-05,15:38:20.512,3857,3802,3744,3693,3635,3573,3509,3438,3379,3311,3249,3190,3118,3040,2987,2915,2858,2804,2748,2691,2632,2569,2510,2456,2402,2349,2291,2236,2184,2128,2076,2023,1971,1928,1872,1819,1769,1721,1680,1646,1605,1565,1515,1468,1441,1410,1362,1329,1299,1236,1173,1147,1120,1089,1069,1030,956,825,737,995,1496,1773,1410,753,458,443,546,619,617,615,660,606,543,503,466,438,415,382,348,324,286,269,254,221,214,200,184,173,157,157,143,114,103,74,58,26,-3,-31,-65,-85,-114,-142,-151,-165,-177,-189,-193,-199,-229,-235,-232,-244,-250,-250,-243,-255,-260,-256,-271,-279,-295,-295,-289,-290,-299,-295,-294,-301
2019-06-05,15:38:21.537,3750,3704,3648,3591,3547,3487,3415,3356,3301,3212,3136,3083,3030,2963,2883,2804,2691,2553,2550,2929,3310,3238,2641,2227,2072,2097,2151,2159,2129,2092,2044,1993,1961,1918,1869,1826,1777,1740,1704,1665,1627,1597,1551,1497,1463,1432,1390,1362,1340,1319,1278,1245,1209,1171,1108,1029,976,928,882,847,808,766,726,699,669,643,602,562,538,520,497,468,444,420,393,385,346,314,294,261,242,229,220,197,178,166,145,112,88,70,68,67,52,36,50,58,43,18,10,-21,-58,-74,-77,-87,-103,-142,-216,-299,-265,169,623,696,122,-347,-466,-382,-264,-211,-203,-192,-202,-205,-196,-189,-189,-186,-178,-186
2019-06-05,15:38:22.562,3656,3614,3565,3507,3440,3390,3341,3289,3234,3188,3145,3089,3041,2979,2924,2866,2800,2717,2660,2573,2521,2451,2382,2330,2277,2220,2156,2118,2059,1998,1949,1892,1847,1805,1755,1706,1654,1608,1564,1511,1466,1425,1377,1326,1288,1237,1194,1167,1125,1081,1041,997,968,939,904,887,873,839,788,757,718,660,617,592,568,537,499,433,307,199,343,837,1300,1195,517,116,20,104,178,199,191,169,165,159,144,120,107,99,78,73,72,67,65,32,46,42,33,36,38,48,54,25,26,32,7,-29,-49,-73,-101,-112,-120,-132,-162,-169,-189,-197,-200,-202,-197,-205,-204,-200,-217,-213,-215,-226,-234,-234
2019-06-05,15:38:23.586,3275,3218,3168,3115,3061,3009,2952,2908,2854,2798,2750,2691,2638,2587,2536,2483,2440,2397,2368,2329,2282,2232,2188,2132,2072,2023,1968,1916,1861,1779,1668,1529,1470,1804,2275,2479,1940,1329,1079,1082,1179,1231,1228,1207,1174,1153,1117,1089,1063,1035,1016,979,944,917,896,873,848,827,808,785,767,749,729,721,701,668,648,621,580,527,485,446,395,367,333,304,271,243,220,200,175,158,150,132,116,104,95,71,46,34,17,12,-4,-19,-33,-49,-62,-74,-81,-97,-109,-131,-149,-160,-163,-167,-167,-163,-153,-147,-154,-160,-160,-176,-212,-238,-246,-248,-257,-277,-302,-385,-453,-175,271,532,145,-344
2019-06-05,15:38:24.611,2504,2453,2522,2591,2576,2516,2480,2446,2410,2373,2334,2291,2261,2223,2187,2138,2091,2058,2023,1995,1965,1956,1944,1916,1875,1839,1815,1754,1706,1667,1631,1575,1516,1462,1392,1342,1289,1238,1208,1175,1146,1119,1096,1072,1054,1023,966,931,899,866,837,811,781,754,729,702,672,646,620,600,578,549,528,507,485,459,441,425,410,392,387,378,350,349,319,274,229,212,191,172,154,127,67,-26,-81,188,651,949,619,55,-193,-199,-97,-33,-26,-25,-25,-25,-23,-35,-43,-36,-40,-39,-34,-69,-63,-64,-81,-88,-74,-81,-73,-51,-39,-39,-40,-37,-40,-54,-72,-87,-112,-144,-172,-186,-197,-227
2019-06-05,15:38:25.636,2231,2198,2163,2135,2100,2054,2016,1984,1946,1901,1867,1830,1790,1751,1705,1661,1620,1580,1543,1508,1473,1436,1403,1377,1346,1316,1284,1254,1222,1196,1165,1134,1115,1091,1072,1057,1030,983,931,887,859,824,795,736,645,517,455,706,1191,1550,1240,583,291,280,385,464,474,464,465,458,445,431,416,402,396,384,377,371,353,345,333,329,331,327,321,316,312,302,294,282,270,253,219,186,156,125,102,83,66,57,52,41,33,34,15,4,-2,-7,-6,-11,-11,-18,-20,-28,-32,-37,-47,-48,-45,-43,-38,-22,-6,-16,-29,-43,-62,-66,-76,-72,-69,-70,-70,-60,-66,-65,-73,-82
2019-06-05,15:38:26.660,1999,1958,1919,1888,1852,1810,1722,1600,1503,1694,2118,2504,2305,1696,1388,1325,1379,1404,1394,1367,1333,1301,1288,1270,1253,1229,1192,1166,1137,1117,1106,1107,1085,1061,1063,1007,975,951,926,908,891,878,844,802,768,726,687,646,612,569,520,480,443,410,401,409,400,385,364,351,331,307,271,261,256,227,208,207,194,170,159,159,140,129,105,107,111,80,58,51,48,46,36,46,69,50,29,27,7,-22,-42,-48,-53,-61,-65,-102,-175,-252,-231,146,585,689,170,-259,-395,-348,-242,-170,-147,-134,-131,-120,-108,-106,-107,-106,-102,-88,-81,-84,-90,-84,-83,-75,-66,-61,-49,-37
2019-06-05,15:38:27.685,1708,1691,1667,1635,1603,1571,1524,1479,1436,1389,1348,1313,1279,1254,1227,1198,1173,1148,1120,1097,1075,1049,1025,1006,982,964,943,920,904,884,861,844,821,799,777,759,736,713,694,673,652,639,617,600,588,571,562,556,550,529,515,490,451,426,409,385,365,336,281,177,104,242,699,1184,1211,592,177,89,139,183,187,180,168,157,143,133,124,120,115,114,114,111,109,109,104,96,92,92,93,89,86,85,85,79,80,75,66,47,28,7,-12,-30,-43,-57,-67,-67,-70,-67,-66,-72,-76,-77,-83,-85,-87,-93,-94,-101,-102,-103,-103,-103,-109,-114,-120,-118,-119,-125
2019-06-05,15:38:28.710,1292,1271,1252,1231,1214,1195,1171,1153,1148,1138,1119,1097,1072,1039,995,970,953,928,909,874,807,694,612,769,1243,1715,1621,906,502,422,502,579,606,600,585,577,561,550,541,532,517,501,490,480,471,456,452,441,433,427,426,412,411,406,399,393,387,373,360,333,296,266,246,230,205,189,182,170,162,152,139,134,118,108,97,92,85,67,57,47,39,30,26,18,9,9,3,-1,-5,-5,-6,-9,-13,-20,-20,-22,-18,-18,-25,-17,-13,-14,-19,-25,-38,-62,-68,-76,-82,-89,-101,-142,-224,-287,-138,297,718,622,37,-286,-337,-264,-181,-128,-119,-110,-105,-98
2019-06-05,15:38:29.734,950,934,915,901,886,876,860,851,841,830,822,813,809,802,800,797,795,789,782,769,755,730,701,673,636,604,582,558,534,514,499,485,471,458,447,432,417,404,394,380,365,355,344,337,328,318,307,295,282,268,259,247,236,225,217,207,197,186,181,181,177,172,179,174,170,159,144,121,91,83,76,70,61,38,-14,-108,-175,27,500,895,691,50,-262,-295,-191,-95,-54,-48,-49,-42,-34,-38,-39,-45,-46,-38,-41,-34,-30,-28,-30,-15,-6,2,8,19,26,40,39,42,45,40,26,3,-14,-33,-47,-63,-73,-76,-79,-82,-85,-89,-88,-90,-93,-96
2019-06-05,15:38:30.759,610,599,591,588,578,574,565,554,545,536,528,515,503,489,475,467,453,435,423,414,399,390,390,392,383,381,384,379,373,371,350,325,313,306,300,287,265,214,111,35,180,662,1174,1211,545,117,28,92,156,174,169,165,163,156,156,152,154,151,151,145,142,140,139,137,143,144,143,142,145,142,141,141,137,133,131,120,100,79,59,41,31,16,8,3,-10,-22,-31,-35,-35,-38,-35,-33,-33,-31,-35,-40,-47,-50,-55,-53,-52,-54,-53,-55,-59,-60,-59,-59,-64,-66,-73,-71,-72,-70,-67,-57,-52,-41,-30,-28,-32,-33,-53,-71,-77,-84,-81,-85
2019-06-05,15:38:31.783,266,224,136,69,221,676,1101,963,327,-9,-64,23,114,169,177,184,183,186,183,179,171,170,165,163,163,168,174,180,191,195,196,205,213,223,227,234,232,231,218,200,178,152,128,110,96,87,78,72,74,76,71,72,74,70,62,52,49,41,35,33,36,34,33,29,28,31,26,21,14,20,19,20,19,20,14,13,9,5,5,0,5,10,13,10,8,0,-14,-19,-23,-24,-29,-42,-79,-157,-221,-82,348,782,735,174,-161,-229,-166,-94,-54,-47,-39,-30,-30,-27,-22,-21,-21,-15,-13,-10,-11,-7,-1,-4,2,8,19,34,38,50,55,61
2019-06-05,15:38:32.808,163,159,154,135,110,92,80,64,51,47,46,40,40,41,39,41,39,37,36,35,33,30,26,21,18,15,17,14,12,10,7,2,-3,-6,-5,-3,-5,-2,-2,-5,-7,-5,-6,0,1,1,8,11,10,4,4,-10,-24,-28,-30,-28,-31,-55,-109,-197,-234,60,560,909,559,-65,-313,-302,-190,-98,-76,-73,-66,-60,-55,-50,-43,-45,-46,-35,-32,-24,-27,-18,-13,-4,1,7,19,24,25,30,37,40,45,41,37,28,14,3,-7,-13,-19,-22,-26,-24,-25,-31,-33,-36,-42,-41,-41,-45,-41,-38,-39,-38,-34,-33,-29,-27,-29,-18,-14,-20,-31,-28
2019-06-05,15:38:33.833,-114,-113,-115,-111,-112,-109,-108,-105,-98,-93,-90,-82,-73,-74,-71,-66,-69,-92,-107,-104,-107,-108,-115,-145,-208,-294,-287,100,601,878,412,-120,-286,-252,-178,-131,-125,-118,-111,-108,-105,-95,-89,-80,-74,-67,-59,-50,-43,-37,-25,-14,-7,3,18,28,43,54,61,68,77,78,72,58,36,14,-8,-21,-34,-41,-43,-48,-48,-51,-50,-49,-54,-56,-52,-49,-41,-42,-38,-36,-37,-43,-41,-39,-47,-46,-42,-44,-44,-43,-41,-40,-44,-44,-43,-43,-41,-40,-45,-40,-28,-24,-21,-21,-22,-38,-53,-57,-58,-61,-64,-83,-123,-192,-242,-58,349,669,426,-117,-358,-377,-278,-172
2019-06-05,15:38:34.857,-404,-381,-360,-341,-321,-307,-293,-276,-264,-244,-231,-219,-208,-196,-184,-167,-147,-133,-124,-113,-106,-100,-95,-93,-83,-82,-82,-91,-106,-118,-130,-139,-133,-130,-137,-134,-132,-130,-126,-125,-121,-111,-109,-108,-104,-100,-97,-99,-101,-103,-107,-110,-109,-115,-114,-113,-110,-114,-115,-110,-110,-106,-102,-100,-94,-93,-91,-86,-82,-72,-69,-78,-77,-79,-93,-93,-88,-84,-90,-121,-190,-246,-125,311,768,787,222,-150,-218,-143,-72,-41,-40,-36,-34,-29,-24,-22,-19,-18,-16,-12,-3,3,8,15,21,34,47,58,65,73,80,80,80,80,85,85,73,61,45,30,20,10,4,-1,-4,-10
2019-06-05,15:38:35.882,-447,-436,-434,-429,-422,-419,-413,-411,-413,-404,-399,-392,-389,-386,-384,-380,-368,-362,-353,-344,-339,-327,-321,-311,-310,-306,-300,-300,-296,-290,-295,-289,-275,-266,-261,-256,-248,-257,-262,-253,-250,-242,-235,-255,-303,-368,-389,-46,504,857,402,-229,-443,-395,-262,-167,-141,-130,-118,-107,-102,-95,-87,-81,-76,-63,-56,-44,-34,-24,-4,8,20,34,48,59,68,74,79,86,86,81,67,54,44,35,27,16,7,3,4,-5,-12,-11,-11,-13,-13,-13,-15,-13,-11,-11,-13,-17,-15,-18,-20,-24,-21,-26,-29,-35,-44,-48,-51,-56,-54,-56,-58,-51,-42,-33,-27,-15,-4,-1,3,6
2019-06-05,15:38:36.907,-545,-550,-551,-548,-551,-551,-554,-598,-670,-681,-344,152,479,80,-449,-620,-596,-500,-425,-391,-374,-356,-340,-331,-323,-313,-301,-286,-273,-261,-245,-238,-227,-200,-198,-204,-198,-183,-160,-146,-140,-128,-120,-125,-127,-130,-142,-168,-183,-194,-200,-199,-196,-192,-185,-184,-189,-187,-185,-184,-177,-174,-179,-179,-177,-170,-161,-153,-145,-141,-123,-106,-98,-93,-89,-81,-74,-69,-65,-61,-60,-58,-52,-54,-54,-37,-33,-42,-36,-33,-38,-40,-45,-33,-41,-76,-147,-185,48,453,722,419,-54,-228,-233,-139,-56,-13,0,9,14,14,13,16,19,20,15,14,9,16,23,24,33,49,76,89,101,109
2019-06-05,15:38:37.931,-500,-486,-482,-476,-472,-483,-493,-509,-522,-537,-542,-547,-539,-532,-522,-510,-501,-485,-472,-458,-448,-432,-415,-398,-388,-379,-371,-367,-359,-356,-352,-342,-337,-334,-326,-320,-318,-313,-308,-303,-299,-289,-279,-267,-250,-238,-225,-203,-190,-190,-186,-172,-169,-172,-168,-157,-167,-203,-268,-290,-19,407,663,326,-162,-345,-324,-215,-131,-99,-89,-77,-68,-68,-61,-51,-39,-32,-31,-24,-15,-9,-3,4,18,31,39,40,41,42,38,23,15,1,-5,-20,-39,-53,-62,-67,-63,-59,-52,-43,-32,-22,-10,-2,4,4,12,18,21,24,24,19,12,5,0,-3,-9,-10,-11,-8,-1,0,5,3
2019-06-05,15:38:38.956,-631,-614,-605,-596,-581,-568,-556,-550,-533,-516,-504,-500,-485,-487,-494,-486,-471,-459,-464,-498,-582,-632,-425,55,521,443,-164,-483,-531,-465,-407,-389,-381,-368,-358,-350,-335,-323,-307,-298,-290,-281,-273,-265,-254,-243,-226,-211,-198,-184,-165,-156,-149,-137,-124,-119,-113,-114,-108,-99,-96,-91,-87,-80,-83,-81,-84,-87,-92,-95,-103,-105,-104,-97,-86,-81,-72,-70,-69,-69,-71,-67,-60,-50,-49,-50,-50,-52,-51,-51,-55,-47,-38,-34,-30,-20,-9,1,9,8,-5,-18,-21,-15,-11,-13,-31,-80,-182,-250,-49,463,947,828,111,-265,-311,-203,-104,-62,-53,-42,-28,-26,-21,-23,-25,-18
2019-06-05,15:38:39.981,-675,-664,-651,-632,-622,-602,-580,-560,-536,-515,-492,-474,-457,-445,-436,-424,-413,-407,-412,-415,-416,-417,-423,-425,-420,-410,-406,-403,-400,-382,-376,-364,-341,-322,-311,-300,-290,-281,-278,-271,-259,-259,-254,-240,-235,-230,-221,-212,-207,-203,-191,-182,-174,-166,-152,-134,-122,-121,-120,-127,-138,-129,-133,-143,-141,-154,-195,-275,-323,-99,340,713,495,-53,-297,-318,-229,-152,-118,-115,-109,-98,-93,-87,-84,-78,-69,-67,-55,-47,-39,-26,-10,6,27,44,60,78,95,103,110,113,111,110,96,67,42,18,0,-20,-34,-40,-33,-37,-30,-24,-17,-17,-9,-1,2,5,2,4,5,5,9,10
2019-06-05,15:38:41.005,-638,-631,-624,-615,-606,-598,-590,-575,-567,-548,-529,-523,-506,-490,-477,-462,-478,-470,-476,-485,-481,-471,-466,-462,-487,-538,-570,-412,-55,214,10,-454,-660,-676,-573,-460,-388,-357,-337,-316,-291,-273,-257,-231,-220,-212,-197,-177,-160,-141,-127,-113,-94,-73,-61,-45,-39,-33,-29,-33,-35,-38,-47,-66,-78,-84,-91,-94,-87,-91,-94,-93,-88,-75,-56,-46,-38,-32,-23,-18,-8,-17,-3,15,14,24,26,26,25,27,40,49,58,62,60,72,75,65,58,51,38,16,-1,1,-6,-11,-35,-78,-125,-108,146,430,469,96,-177,-250,-224,-151,-90,-57,-38,-28,-24,-20,-8,-9,-10,0
2019-06-05,15:38:42.030,-610,-596,-579,-563,-553,-542,-534,-519,-502,-490,-476,-460,-445,-428,-414,-395,-384,-380,-386,-387,-390,-392,-391,-390,-381,-368,-357,-348,-344,-333,-323,-322,-315,-307,-300,-295,-299,-302,-299,-300,-295,-283,-276,-266,-261,-256,-253,-245,-238,-239,-239,-231,-221,-209,-193,-182,-170,-155,-155,-159,-152,-150,-157,-164,-161,-155,-168,-196,-246,-280,-144,217,518,373,-99,-358,-373,-269,-163,-119,-102,-82,-57,-38,-16,0,12,25,34,39,46,49,58,64,61,61,61,62,64,69,76,76,79,85,89,89,84,76,68,61,57,52,62,68,67,44,41,50,54,56,57,60,62,62,61,62,61,60
2019-06-05,15:38:43.054,-527,-518,-502,-496,-499,-486,-486,-501,-499,-498,-499,-493,-485,-479,-467,-456,-455,-456,-444,-443,-444,-440,-440,-451,-464,-484,-527,-590,-613,-374,80,458,272,-293,-561,-560,-460,-380,-358,-342,-325,-312,-294,-276,-252,-235,-215,-202,-186,-176,-161,-154,-147,-140,-131,-127,-122,-118,-131,-136,-126,-139,-118,-48,-23,-28,-32,-31,-31,-43,-43,-35,-27,-23,-18,-21,-25,-30,-28,-31,-35,-38,-34,-33,-34,-37,-38,-38,-39,-36,-33,-33,-33,-34,-37,-42,-37,-41,-43,-36,-24,-14,-22,-19,-16,-35,-45,-49,-47,-48,-62,-99,-172,-247,-191,248,742,901,268,-263,-376,-285,-168,-96,-73,-52,-37,-28
2019-06-05,15:38:44.079,-557,-524,-494,-467,-450,-445,-439,-421,-414,-409,-398,-390,-376,-360,-346,-335,-320,-309,-306,-297,-292,-307,-366,-365,-310,-247,-251,-266,-265,-269,-257,-247,-249,-240,-233,-220,-210,-210,-198,-183,-181,-173,-157,-160,-168,-163,-168,-195,-188,-188,-187,-181,-179,-176,-164,-149,-142,-126,-120,-117,-124,-135,-159,-186,-188,-190,-198,-203,-224,-266,-345,-395,-176,328,797,674,32,-280,-293,-189,-102,-63,-44,-27,-17,-14,-11,-4,-1,2,7,7,3,11,9,10,20,28,41,58,76,88,101,110,113,114,112,95,79,56,37,19,3,-2,-10,-12,-14,-14,-9,-11,-7,-6,-9,-9,-8,-7,-7,-4
2019-06-05,15:38:45.104,-469,-461,-452,-445,-445,-443,-435,-423,-416,-411,-401,-393,-385,-375,-366,-354,-346,-350,-351,-351,-361,-369,-372,-373,-372,-382,-412,-481,-523,-381,30,415,327,-234,-532,-569,-472,-343,-257,-224,-204,-190,-174,-164,-152,-134,-125,-115,-114,-114,-115,-111,-92,-81,-88,-80,-62,-49,-30,-17,-5,3,10,8,7,-4,-25,-41,-55,-66,-73,-74,-71,-68,-62,-66,-58,-45,-39,-31,-30,-36,-37,-40,-47,-50,-47,-31,-28,-36,-20,-24,-40,-35,-35,-7,-3,-4,-1,4,15,21,32,25,24,23,13,7,5,-11,-25,-28,-40,-100,-174,-168,153,620,903,482,-45,-223,-195,-119,-62,-41,-30,-37
2019-06-05,15:38:46.128,-419,-407,-391,-377,-362,-347,-336,-319,-303,-287,-270,-258,-252,-248,-243,-235,-217,-210,-203,-194,-189,-192,-182,-180,-191,-201,-215,-216,-210,-205,-199,-190,-189,-185,-177,-198,-208,-202,-192,-175,-169,-164,-171,-170,-151,-154,-159,-168,-169,-147,-145,-158,-161,-165,-165,-139,-116,-111,-101,-92,-81,-77,-80,-75,-80,-87,-87,-86,-91,-97,-130,-195,-297,-336,-21,526,952,626,-81,-354,-329,-202,-114,-82,-65,-57,-53,-41,-39,-31,-20,-13,-20,-14,-22,-29,-23,-14,-8,0,12,26,37,51,63,65,66,67,61,53,47,36,26,12,3,0,-3,-4,-5,-5,-2,-2,-3,0,0,-1,3,1
2019-06-05,15:38:47.153,-271,-269,-274,-265,-252,-246,-247,-245,-243,-235,-236,-239,-233,-225,-211,-207,-202,-189,-175,-174,-176,-180,-187,-205,-200,-189,-157,-177,-175,-274,-358,-411,-324,141,663,802,186,-285,-377,-299,-209,-159,-155,-143,-125,-115,-105,-100,-99,-89,-82,-76,-70,-51,-25,-18,-17,-20,-16,-3,7,37,44,33,24,30,37,29,16,5,4,-9,-14,-14,-27,-28,-27,-24,-21,-22,-20,-15,-14,-12,-15,-23,-29,-30,-38,-40,-43,-49,-64,-70,-72,-71,-67,-67,-72,-80,-85,-84,-84,-86,-65,-55,-67,-66,-63,-74,-85,-85,-88,-83,-85,-120,-187,-225,-29,436,849,656,32,-260,-303,-224,-133,-75
2019-06-05,15:38:48.178,-233,-228,-209,-200,-201,-191,-180,-165,-151,-137,-122,-106,-85,-67,-53,-38,-27,-11,-5,3,2,6,4,5,1,-5,-21,-31,-42,-45,-52,-53,-53,-60,-69,-66,-58,-57,-52,-44,-42,-35,-42,-49,-51,-54,-51,-46,-54,-57,-47,-45,-46,-51,-56,-53,-55,-53,-52,-52,-41,-32,-35,-40,-27,-24,-25,-18,-1,-8,-20,-9,1,9,-12,-73,-151,-151,212,724,1075,650,72,-111,-106,-40,-4,0,0,6,5,7,14,17,24,30,36,40,43,46,54,57,65,81,89,97,100,108,115,120,114,98,93,92,75,61,58,50,45,39,40,44,48,45,43,43,36,34
2019-06-05,15:38:49.202,-180,-189,-196,-198,-204,-201,-193,-196,-197,-200,-197,-195,-185,-179,-183,-179,-179,-176,-172,-170,-157,-145,-147,-137,-112,-108,-112,-104,-90,-101,-105,-100,-82,-81,-116,-203,-305,-309,108,672,1023,516,-126,-318,-272,-171,-107,-85,-69,-59,-46,-36,-35,-35,-33,-28,-23,-13,-14,-11,0,5,5,16,17,25,29,39,41,42,42,37,34,23,16,9,6,2,3,-4,-13,-12,-7,-11,-14,-7,-9,-20,-21,-19,-22,-26,-26,-35,-39,-39,-42,-51,-48,-49,-53,-56,-59,-55,-55,-52,-50,-38,-45,-60,-60,-35,-23,-33,-26,-11,-19,-32,-27,-25,-27,-54,-115,-217,-264,30,559,1039
2019-06-05,15:38:50.227,737,38,-254,-276,-193,-132,-107,-102,-93,-84,-78,-70,-59,-52,-41,-34,-30,-26,-20,-16,-16,-8,5,15,20,37,48,56,56,54,56,49,34,13,-1,-15,-31,-44,-55,-70,-75,-80,-88,-101,-101,-94,-88,-87,-88,-88,-89,-97,-95,-98,-103,-91,-92,-83,-78,-67,-61,-55,-46,-44,-37,-35,-29,-24,-28,-19,-14,-21,-30,-32,-31,-45,-53,-52,-56,-85,-163,-224,-98,347,814,794,174,-195,-268,-203,-111,-48,-32,-25,-21,-11,-4,4,3,8,15,23,30,35,41,44,54,60,64,73,78,79,82,85,90,87,79,67,45,26,15,0,-5,-16,-18,-25,-28,-25
