2019-10-16,06:50:06.094,126,131,103,149,162,79,84,551,1324,1564,1078,461,164,-36,34,20,-52,-63,-67,-54,-43,-40,-76,-109,-162,-202,-279,-304,-246,-198,-195,-237,-221,-175,-199,-87,-102,-59,24,47,72,48,60,114,114,105,-12,-133,-94,-34,17,102,105,-7,87,727,1756,2180,1654,830,460,143,-77,-233,-409,-496,-556,-610,-460,-236,-140,-41,-230,-351,-281,-361,-462,-564,-572,-613,-349,-150,-112,-101,-141,-303,-324,-399,-475,-391,-296,-240,-227,-185,-197,-246,-197,-212,-222,-193,-180,-335,-274,407,1545,1830,1039,299,135,29,-24,-119,-157,-239,-327,-342,-330,-281,-294,-339,-336,-306,-369,-385,-444,-464,-359,-341
2019-10-16,06:50:07.094,-248,-100,-11,-117,-61,-35,27,27,41,33,-25,-34,42,31,54,-28,-34,24,116,53,6,-66,280,1194,2018,1826,1054,415,243,93,-47,10,0,30,-72,-66,-10,-44,-99,-266,-220,-205,-361,-438,-515,-512,-554,-355,-378,-218,-119,-117,-134,-145,-76,-65,-25,1,28,3,-7,50,45,18,69,114,-53,73,-60,9,379,1144,1606,1271,663,222,-8,151,159,100,49,69,51,19,1,-11,5,31,-103,-163,-241,-420,-442,-369,-364,-291,-148,-155,-110,-135,-95,-58,-69,-55,-46,-56,13,89,53,79,150,195,177,154,62,69,-26,52,706,1474,1677,1061,520,447,277,194,85,-17
2019-10-16,06:50:08.094,-173,-104,-223,-171,-232,-462,-496,-612,-729,-690,-699,-766,-735,-636,-603,-540,-413,-269,-233,-274,-268,-226,-256,-226,-219,-162,-76,-201,-259,-187,-110,-70,-161,-185,-119,-102,-262,43,1129,2152,1956,890,176,2,-126,-307,-292,-216,-103,-335,-399,-528,-522,-599,-609,-513,-456,-511,-517,-562,-522,-457,-358,-294,-264,-282,-250,-286,-254,-199,-193,91,188,269,396,399,519,390,303,237,114,43,64,-78,57,875,2013,2456,1722,630,155,22,-127,-247,-238,-296,-359,-438,-457,-501,-471,-396,-399,-463,-605,-514,-465,-418,-381,-278,-163,-70,-37,-4,6,43,11,-88,-12,-85,-7,178,240,128,216,185,171,201
2019-10-16,06:50:09.094,207,216,124,62,237,959,1691,1535,779,273,133,-98,-72,-169,-87,-174,-117,-145,-173,-217,-233,-247,-261,-279,-299,-340,-331,-284,-166,-97,6,75,57,28,161,190,163,130,157,147,254,260,284,355,234,266,398,144,178,107,-192,-141,372,1132,1485,1129,284,-109,-231,-305,-342,-352,-336,-354,-356,-331,-309,-294,-308,-412,-449,-506,-570,-641,-699,-812,-588,-358,-319,-110,-61,-53,-23,-16,34,29,-72,-56,-88,-232,-372,-408,-320,-169,-157,-117,-14,-210,-469,-132,998,2248,2340,1205,171,-206,-436,-467,-493,-494,-484,-491,-462,-426,-386,-295,-241,-232,-285,-445,-488,-563,-555,-514,-433,-382,-197,-81
2019-10-16,06:50:10.094,-32,-81,-130,-124,47,81,227,90,113,86,-7,-168,-217,-271,-240,-210,-223,-311,-346,163,1260,2032,1670,647,184,36,-58,-133,-148,-153,-192,-238,-242,-256,-217,-198,-227,-257,-358,-339,-351,-355,-430,-322,-167,-26,56,82,146,158,118,180,141,109,139,149,246,150,116,107,141,134,124,93,100,3,81,659,1460,1638,991,429,150,-9,-58,85,9,-20,-56,-136,-46,16,7,-36,-77,-117,-180,-175,-184,-80,-25,-117,11,134,177,226,120,71,24,-35,-100,-94,-162,-216,-416,-308,-14,187,246,373,384,232,-165,-417,-235,552,1178,1046,542,200,82,-19,-144,-170,-362,-460,-476,-428
2019-10-16,06:50:11.094,-400,-338,-242,-262,-491,-656,-713,-638,-446,-113,26,278,-95,-227,-218,-409,-292,-131,-138,-130,-150,-141,-250,-223,-255,-208,-160,-176,-168,-84,29,21,-70,90,951,2293,2556,1467,454,173,-91,-147,-222,-285,-327,-276,-164,-181,-211,-303,-326,-468,-372,-508,-567,-710,-486,-402,-388,-473,-354,-251,-187,-222,-192,-145,-146,-130,-54,-11,15,62,68,65,89,74,31,25,-64,-118,-149,294,1287,1917,1617,875,337,138,35,19,-6,-25,-9,-47,-63,-98,-147,-185,-150,-221,-283,-268,-233,-224,-286,-196,-182,-128,-76,-102,-84,-103,-93,-76,-72,-15,-75,13,134,111,156,72,61,47,135,143,138,94
2019-10-16,06:50:12.094,100,758,1382,1384,685,432,318,159,138,84,-13,-2,0,22,-79,-101,-83,-166,-114,-317,-327,-374,-447,-417,-397,-372,-304,-249,-187,-127,-83,-58,-47,-59,-74,-75,-124,-60,-179,-145,-162,-142,-148,-113,-77,-17,-199,-128,535,1501,1767,1169,306,9,-181,-302,-303,-352,-248,-233,-239,-217,-245,-272,-293,-375,-454,-596,-672,-721,-759,-655,-698,-578,-417,-288,-144,26,154,0,37,116,117,146,136,120,-4,-75,-15,-15,-96,41,106,-64,-177,346,1590,2475,1925,571,-103,-314,-373,-552,-410,-486,-543,-561,-543,-461,-392,-392,-427,-418,-498,-584,-605,-612,-642,-583,-396,-326,-237,-145,-153,-165,-64,-65
2019-10-16,06:50:13.094,25,47,14,126,223,298,357,360,400,285,202,114,-35,-139,255,1336,2227,2156,1188,575,246,118,-30,-115,-177,-185,-268,-345,-363,-413,-459,-522,-440,-337,-323,-371,-387,-321,-197,-121,-88,-1,32,74,72,66,133,112,163,125,210,154,147,57,117,100,34,44,51,-12,-110,23,668,1469,1577,1003,419,190,82,-41,-34,-76,-65,-73,-41,-17,-69,-101,-165,-165,-184,-233,-285,-270,-261,-239,-184,-109,-20,28,30,40,48,13,84,-3,16,10,64,93,31,73,2,65,-80,-48,-57,-220,-159,313,1376,2035,1598,636,166,45,-113,-236,-193,-302,-304,-428,-443,-278,-92,12,-100,-240
2019-10-16,06:50:14.094,-387,-444,-703,-676,-772,-576,-388,-306,-52,12,26,71,-86,-117,-305,-383,-514,-609,-592,-598,-503,-387,-327,-62,368,406,426,222,199,996,1940,1534,352,-329,-536,-496,-374,-340,-292,-168,-193,-188,-194,-220,-234,-285,-360,-529,-622,-591,-536,-451,-355,-225,-86,-13,188,2,167,307,121,178,150,107,71,76,-15,-34,-12,-106,-294,-352,-312,-328,-412,-182,660,1875,2286,1570,643,267,19,-142,-160,-164,-152,-72,-15,-136,-10,-60,-115,-199,-87,-108,-302,-270,-356,-394,-366,-295,-190,-92,-56,-38,-2,-49,-42,-4,-6,-5,18,18,86,65,109,123,145,153,79,47,103,520,1244,1622,1120,557
2019-10-16,06:50:15.094,266,142,3,44,20,12,4,61,32,13,16,-16,-53,-28,-117,-265,-431,-355,-273,-248,-168,-175,-124,-109,-64,-37,-71,-56,-9,13,-23,110,155,122,135,92,69,64,36,80,-39,-60,238,1053,1526,1088,547,200,236,77,-100,-48,-130,-137,-157,-218,-303,-296,-341,-429,-502,-556,-611,-628,-641,-654,-585,-478,-353,-293,-318,-342,-229,-147,-108,-217,-221,-211,-167,-173,-280,-235,-190,-233,-155,-89,-100,-163,-262,61,1027,1971,1853,877,84,-58,-142,-279,-274,-209,-121,-188,-288,-342,-422,-524,-499,-503,-686,-607,-586,-570,-559,-526,-454,-316,-227,-199,-179,-103,-65,44,20,122,167,150,106,25
2019-10-16,06:50:16.094,-86,-28,-128,-92,-88,-52,-21,-401,-3,1162,2379,2342,1242,348,-85,-285,-250,-398,-389,-398,-377,-346,-332,-235,-140,-111,-259,-447,-502,-461,-482,-574,-611,-537,-415,-297,-174,-131,-97,-24,24,6,57,107,210,135,199,262,276,346,384,199,34,-11,-180,57,1064,2138,2052,1131,511,244,85,-26,-128,-84,-117,-75,-133,-191,-195,-233,-275,-301,-334,-329,-278,-301,-220,-201,-175,-15,16,47,54,122,147,107,110,156,159,208,153,194,242,139,204,-37,102,87,-28,-38,9,716,1507,1554,907,368,173,22,-28,-50,-92,-104,-97,-88,-119,-151,-152,-156,-183,-191,-261,-297,-372,-285,-258,-247
2019-10-16,06:50:17.094,-193,-104,9,71,117,128,64,3,-4,-22,-83,-84,-101,-38,-63,-37,53,4,2,-18,-121,-64,495,1559,2021,1439,461,50,-128,-240,-194,-177,-302,-176,-126,-236,-250,-282,-288,-431,-537,-647,-644,-712,-800,-769,-634,-450,-268,-134,30,69,47,78,74,-116,-111,-157,-274,-302,-358,-334,-280,-372,-483,-499,-347,-355,-384,211,1543,2211,1443,464,59,-197,-342,-328,-336,-318,-338,-395,-342,-340,-362,-333,-330,-372,-459,-552,-562,-515,-470,-405,-162,96,135,-35,14,121,-3,-226,-293,-49,51,133,153,172,190,184,123,93,-25,-77,-227,-313,102,1210,1975,1687,708,219,129,43,-14,-20,-38,-52
2019-10-16,06:50:18.094,-64,-84,-87,-137,-221,-178,-203,-270,-372,-293,-403,-286,-330,-161,-179,-98,-158,-187,-128,-130,-185,-162,-91,-52,-13,-61,-35,-3,10,38,52,40,33,-43,-54,224,971,1608,1365,677,249,44,-85,-109,-95,-41,-36,11,6,-32,-90,-76,-110,-124,-184,-236,-285,-261,-328,-299,-206,-69,-125,-104,-6,-54,50,58,-26,-21,1,14,-25,-47,-38,-39,-15,16,25,67,21,-73,116,856,1742,1746,1029,424,211,29,-93,-126,-113,-136,-110,-58,-115,-207,-236,-253,-317,-357,-551,-613,-669,-725,-625,-529,-437,-320,-276,-235,-203,-156,-160,-161,-131,-109,-77,-97,-131,-46,-72,-119,-105,-108,-92,-113
2019-10-16,06:50:19.094,-255,-138,692,1873,1963,1069,273,92,-156,-318,-418,-347,-282,-240,56,218,-25,-31,-171,-383,-524,-714,-900,-950,-888,-742,-510,-338,-259,-247,-175,-94,-77,-80,3,74,199,184,216,287,293,374,525,586,326,165,29,-121,35,902,2109,2158,1319,555,327,171,-37,-44,-292,-324,-123,-300,-343,-279,-381,-381,-393,-425,-492,-492,-509,-489,-469,-409,-337,-252,-183,-149,-127,-100,-73,-56,-30,74,94,54,9,33,55,2,12,50,22,-59,-67,85,802,1597,1570,944,328,106,-43,-129,-157,-84,-145,-163,-120,-139,-118,-179,-237,-265,-291,-317,-335,-349,-348,-349,-281,-167,-114,-51,-36,-26,-13,10
2019-10-16,06:50:20.094,9,10,52,85,85,65,106,82,63,114,147,211,153,29,256,785,1481,1366,785,287,33,-130,-203,-292,-251,-398,-362,-325,-280,-291,-317,-333,-305,-296,-246,-144,-90,-154,-186,-267,-276,-322,-370,-472,-505,-381,-309,-226,-165,-112,-102,-106,-104,-138,-106,-79,-258,-407,-321,-47,-58,97,1075,2367,2556,1480,211,-85,-266,-468,-456,-448,-422,-414,-414,-451,-524,-567,-511,-468,-520,-553,-587,-505,-411,-328,-279,-106,75,190,131,104,79,3,-45,-105,-39,63,128,96,118,60,-19,-17,3,-158,-117,-292,-128,907,2150,2456,1430,379,65,-484,-592,-674,-752,-551,-441,-430,-312,-240,-241,-288,-331,-386
2019-10-16,06:50:21.094,-393,-417,-436,-414,-383,-328,-290,-192,-164,-154,-103,-110,-150,-37,45,105,131,196,208,192,141,89,65,76,85,-4,-204,32,850,1803,1879,1077,323,53,-51,-141,-198,-220,-255,-282,-216,-137,-81,-84,-101,-157,-174,-188,-214,-259,-257,-229,-146,-108,-49,-31,0,-17,33,8,27,125,143,38,131,108,76,-43,45,64,-49,10,-100,-129,2,628,1366,1460,820,282,63,-200,-278,-186,-91,25,-8,-119,-116,-148,-182,-164,-157,-180,-296,-379,-429,-345,-278,-228,-159,-118,-80,-23,-15,-22,-16,-1,-106,-76,-10,70,-19,83,198,333,72,75,-101,-221,-309,-191,326,1127,1316,781,199,-43
2019-10-16,06:50:22.094,-139,-193,-213,-232,-197,-311,-280,-219,-210,-229,-262,-396,-409,-542,-616,-510,-361,-375,-22,414,530,217,102,-59,-67,-307,-330,-398,-380,-367,-519,-416,-429,-446,-402,-398,-350,-350,-354,-427,-424,-36,1197,1953,1697,838,354,122,-120,-211,-309,-318,-327,-323,-372,-417,-500,-302,-362,-458,-561,-641,-622,-549,-541,-502,-412,-267,-284,-233,-194,-197,-228,-226,-70,57,21,140,210,145,85,65,-62,-142,-60,21,-108,-117,378,1585,2554,1973,931,656,615,398,153,-139,-318,-426,-552,-583,-580,-201,74,471,735,689,580,417,208,-182,-569,-912,-1025,-1201,-1107,-541,-398,-356,-376,-336,-382,-400,-330,-398,-590,-380
2019-10-16,06:50:23.094,-213,-96,-7,17,72,11,24,346,1270,2041,1847,1091,575,317,117,-242,-229,-100,-115,-70,-37,27,0,-17,-43,-91,-174,-228,-292,-302,-282,-223,-157,-83,-1,22,75,157,125,159,231,278,269,207,186,153,127,67,38,19,12,-35,-94,-88,197,975,1661,1503,858,408,223,144,45,14,45,-1,-117,-125,-143,-200,-219,-153,-80,-170,12,43,-175,-451,-423,-304,-408,-474,-326,-436,-248,-152,-77,-9,-67,-75,-98,-91,-90,-88,-61,-36,-55,-89,-86,-127,-229,-12,887,1694,1693,898,256,67,-207,-278,-346,-846,-816,-630,-898,-440,-838,-405,-387,-565,-785,-537,-622,-453,-361,-319,-391,-307
2019-10-16,06:50:24.094,41,-46,14,11,59,98,112,244,272,154,10,-89,-122,-78,4,-104,35,117,1,-291,-135,1091,2283,2009,1037,623,436,-87,-665,-295,-987,-620,-621,-715,-335,-515,-773,-661,-535,-494,-566,-621,-477,-436,-342,-379,-278,-238,-252,-231,-109,-40,-20,39,302,350,496,443,534,314,8,-56,-180,-301,-233,-263,-399,57,1514,2592,2353,1016,76,50,158,147,148,155,68,-13,21,196,540,739,829,675,164,-246,-640,-1113,-1348,-1313,-1079,-680,-326,-131,-218,-167,-38,-1,-5,70,36,100,163,138,38,19,45,43,-25,23,-109,-17,261,1104,1863,1594,796,268,-38,-174,-167,-107,-135,-29,27,22
2019-10-16,06:50:25.094,10,-81,-220,-507,-580,-654,-631,-657,-634,-495,-402,-316,-159,30,199,316,265,-54,-431,-568,-309,-190,-97,-11,-9,-12,67,143,68,102,30,-154,-185,191,1184,1925,1780,869,258,71,61,70,-161,-281,-432,-477,-620,-715,-650,-537,-348,-304,-317,-374,-361,-393,-397,-145,103,288,275,-169,-519,-397,-264,-270,-289,-86,-17,-26,-46,-19,69,-212,-110,-93,-120,-66,-157,-282,57,1106,2003,1538,742,29,-156,-202,-237,-267,-242,-169,-164,-287,-184,-245,-204,-248,-307,-329,-328,-335,-333,-369,-295,-205,-152,-89,-98,-100,-122,-92,-83,-36,47,77,109,-6,51,20,-25,-39,9,36,33,-52,-82,135
2019-10-16,06:50:26.094,901,1666,1484,740,322,155,95,28,-34,-60,-80,-66,-3,-53,-49,-89,-106,-36,-104,-143,-215,-205,-221,-143,-79,-27,34,110,115,124,99,87,75,79,26,99,81,97,66,81,30,38,34,5,36,-33,45,545,1159,1124,683,246,65,-23,-49,-104,-92,-75,-80,-65,-93,-130,-130,-165,-205,-231,-257,-277,-301,-284,-256,-185,-172,-109,-64,-55,-46,-57,-38,-16,11,-45,15,-67,-8,-15,-7,-6,-30,-62,-87,-128,-262,-200,238,918,1079,731,247,-13,-90,-150,-218,-233,-252,-263,-290,-318,-315,-287,-297,-369,-387,-372,-413,-474,-365,-386,-367,-286,-196,-97,-77,-74,-84,-89,-45,-103
2019-10-16,06:50:27.094,-74,-38,-30,-27,23,31,67,46,39,69,76,-125,-190,357,1345,1696,1329,640,266,157,86,6,10,-62,-141,-156,-133,-140,-155,-206,-251,-272,-334,-364,-361,-347,-318,-235,-159,-106,-58,-46,-84,-65,-18,12,53,91,131,127,144,123,86,77,84,95,78,33,-140,-263,125,1140,1712,1436,622,160,13,-37,-61,-115,-130,-154,-188,-141,-96,-90,-120,-149,-173,-213,-242,-207,-187,-180,-212,-206,-165,-80,46,148,183,126,58,41,53,103,107,98,80,69,52,53,53,63,54,-31,-113,67,739,1333,1188,723,362,145,48,-60,-101,-122,-129,-136,-113,-123,-124,-135,-160,-186,-209,-265
2019-10-16,06:50:28.094,-275,-299,-278,-231,-186,-129,-120,-101,-84,-89,-54,-33,-89,-24,-1,26,9,-1,10,-14,-36,-31,-39,-68,-124,-172,-73,469,1057,1042,594,222,37,-58,-101,-104,-150,-124,-158,-154,-143,-148,-176,-229,-236,-290,-350,-354,-352,-335,-257,-275,-172,-130,-90,-55,-107,-96,-96,-82,-63,-22,0,21,14,5,16,-59,-8,39,50,75,-103,-121,273,885,1026,701,313,60,-36,43,-148,-120,-123,-117,-169,-122,-88,-167,-151,-245,-236,-235,-210,-335,-265,-253,-172,-88,-65,-92,-67,-20,-59,-70,-67,-72,-50,-58,0,4,-59,-12,-26,19,-49,-45,-12,-70,-90,116,722,1249,917,547,234,51
2019-10-16,06:50:29.094,-28,-27,-4,-54,-90,-42,-67,-26,-71,-157,-145,-152,-218,-262,-300,-308,-274,-246,-167,-134,-74,-56,-5,31,0,11,0,13,72,76,106,125,132,111,70,84,33,-27,-47,-121,66,672,1262,1246,753,309,104,-14,-14,-138,-109,-98,-115,-145,-185,-158,-176,-297,-358,-359,-394,-338,-418,-381,-352,-295,-231,-159,-106,-181,-93,-112,-177,-91,0,-39,-45,-17,-46,-63,-120,-86,-158,-144,-160,-130,-317,-401,241,1413,1791,1068,343,15,-78,-17,-44,-148,-223,-223,-168,-293,-224,-235,-280,-317,-344,-367,-320,-385,-382,-387,-324,-258,-159,-150,-119,-107,-131,-92,-101,-94,-42,1,4,-20,1,-10
2019-10-16,06:50:30.094,23,99,91,85,29,-83,-274,-65,775,1528,1421,742,163,-67,-132,-40,-142,-181,-194,-171,-223,-198,-203,-264,-312,-294,-276,-330,-369,-299,-251,-221,-169,-76,-48,-115,-105,-41,69,44,-24,-3,22,57,50,63,94,110,51,32,55,32,75,-83,-54,309,1006,1430,973,524,190,83,29,0,-103,-63,-39,14,22,-1,-15,-141,-167,-198,-231,-246,-297,-238,-292,-173,-113,-128,-84,30,-73,9,-75,-7,-51,-14,41,66,42,82,84,130,47,122,81,43,5,-25,88,617,1199,1177,678,281,3,-94,-68,-111,-142,-175,-161,-174,-188,-200,-168,-183,-191,-233,-316,-351,-349,-344,-332,-205
2019-10-16,06:50:31.094,-104,-123,-154,-110,-112,-124,-137,-144,-204,-188,-179,-223,-244,-208,-111,-91,-30,-57,-51,-34,-161,-228,114,820,1398,1170,582,216,3,-27,-77,-150,-210,-171,-170,-226,-273,-215,-216,-259,-309,-374,-408,-416,-383,-328,-237,-271,-119,-146,-117,-113,-99,-76,-61,-74,-84,-74,28,6,4,-13,-58,18,72,44,117,7,-193,-207,561,1669,1947,1317,424,46,-54,-90,-89,-120,-151,-256,-215,-216,-278,-200,-204,-280,-367,-395,-500,-396,-288,-223,-32,-12,93,75,28,40,-1,41,94,78,51,28,23,-42,-58,-107,-148,-161,-108,-69,-62,-122,-354,-143,858,1809,1859,1010,209,-64,-66,-69,-125,-194
2019-10-16,06:50:32.094,-148,-134,-227,-236,-162,-189,-176,-287,-416,-261,-364,-381,-345,-290,-194,-196,-137,-188,-46,-17,-48,-127,-91,87,133,34,153,138,102,112,48,64,68,32,7,4,-16,291,1083,1611,1252,649,218,75,-70,-53,40,-28,-103,-150,-42,-15,-43,-142,-184,-142,-157,-236,-329,-296,-264,-226,-94,-109,-91,61,73,117,-91,-77,-60,-96,-77,52,81,58,6,14,26,16,-57,-43,-13,-138,-164,129,911,1389,1063,506,152,-26,-69,-115,-199,-209,-201,-235,-184,-197,-261,-289,-401,-376,-460,-496,-509,-523,-389,-290,-328,-193,-162,-138,-152,-128,-160,-177,-170,-145,-148,-164,-27,-53,-41,-56,-77,-61
2019-10-16,06:50:33.094,-100,-139,-127,-271,-312,70,1060,1680,1395,699,169,-79,-143,-193,-248,-224,-202,-217,-325,-321,-306,-250,-377,-383,-418,-462,-507,-505,-490,-265,-243,-195,-158,-136,-134,-159,-175,-90,29,28,148,147,112,17,-9,-9,11,7,-13,-38,11,-126,-282,231,1344,2021,1660,694,129,-27,-142,-181,-167,-191,-137,-110,-177,-225,-257,-271,-327,-413,-513,-516,-454,-469,-381,-328,-214,-140,-88,-43,-52,-54,-41,14,1,-28,-4,38,62,43,62,68,46,78,28,52,-15,-122,-221,166,1122,1772,1512,778,258,94,23,25,-67,-123,-156,-134,-119,-118,-143,-205,-243,-240,-259,-260,-238,-299,-298,-119,-12,-39
2019-10-16,06:50:34.094,-82,38,53,-45,-30,-23,27,40,33,80,174,131,114,110,123,151,67,122,135,52,-62,29,668,1299,1180,674,297,139,65,-23,-84,-101,-91,12,-144,-91,-73,-102,-122,-182,-233,-296,-260,-299,-263,-306,-232,-141,-58,-39,-83,-24,-4,-32,-29,-59,-57,-64,-44,-49,-29,-13,-86,-103,-99,-59,-6,-163,-234,-78,384,1109,1323,823,322,125,-58,-121,-139,-172,-202,-186,-166,-203,-234,-205,-317,-376,-489,-462,-525,-584,-600,-495,-305,-197,-152,-151,-163,-108,-149,-195,-210,-177,-109,-56,-34,38,-21,49,-11,-17,-58,-47,-34,-22,-176,-216,407,1452,1864,1319,394,-9,-175,-207,-192,-162
2019-10-16,06:50:35.094,-151,-204,-239,-227,-280,-340,-338,-300,-377,-450,-568,-655,-627,-536,-434,-348,-376,-239,-208,-67,-153,-164,-196,-181,-76,49,4,-239,-143,106,167,113,211,156,-156,-165,-197,-287,-29,878,1875,1795,933,298,28,-151,-179,-155,-100,-130,-167,-155,-147,-202,-179,-274,-332,-384,-419,-464,-451,-389,-327,-220,-113,-43,-55,-43,31,51,-13,-34,22,29,52,21,6,-11,-34,-19,50,1,32,0,55,10,15,496,1355,1690,1100,439,201,91,50,-21,-144,-180,-54,-12,-53,-101,-92,-115,-128,-139,-187,-251,-282,-300,-223,-139,-106,-15,70,85,97,82,46,77,12,19,50,149,213,189,111,-43
2019-10-16,06:50:36.094,8,96,-18,-21,-4,-95,-98,70,696,1296,1224,714,288,78,59,-29,-163,-122,-83,-191,-211,-196,-204,-219,-283,-236,-86,-427,-372,-344,-349,-249,-114,-137,-193,-234,-174,-232,-145,-88,-79,-16,2,-22,88,146,164,188,105,149,103,-8,-99,-15,-123,-123,202,1181,1706,1293,470,120,-43,-225,-256,-203,-236,-192,-165,-263,-357,-408,-360,-357,-440,-516,-432,-405,-391,-345,-142,-62,40,185,232,208,1,-349,-278,-281,-218,-277,-257,-147,-51,-41,-53,14,66,6,49,120,148,-351,-454,473,1618,1835,1171,383,34,-172,-142,146,138,-152,-195,-241,-259,-242,-359,-458,-463,-464,-568,-621,-564,-496
2019-10-16,06:50:37.094,-429,-314,-115,-74,-1,56,66,-69,-72,-28,-86,-42,23,47,2,13,53,45,53,62,98,81,10,-37,-166,120,1134,1958,1727,952,341,-59,-268,-264,-289,-304,-278,-254,-218,-170,-138,-114,-110,-182,-276,-423,-414,-354,-287,-262,-198,-91,-8,-38,-3,29,47,49,89,0,38,-29,90,151,288,186,132,99,71,45,106,106,-10,-36,267,1045,1562,1209,640,293,79,0,-27,-80,-173,-146,-101,-64,-63,-11,-144,-211,-223,-232,-290,-282,-271,-264,-205,-112,-101,-40,23,-90,-58,-42,-36,0,24,7,-12,-14,-86,-69,-110,-118,-67,-32,-25,65,-28,-153,-182,245,1073,1294,945,452
2019-10-16,06:50:38.094,62,-115,42,-161,-268,-193,-281,-403,-403,-397,-424,-457,-477,-532,-628,-699,-817,-836,-536,-181,103,527,788,660,-2,-1094,-816,-517,-454,-403,-266,-154,-68,-16,-10,-5,91,122,131,114,172,128,-103,-53,757,1846,2020,1174,245,-96,-278,-272,32,344,-209,-238,-18,-156,-651,-849,-530,-214,-201,-282,-595,-689,-733,-635,-478,-299,-115,0,100,146,147,215,-45,141,296,321,225,245,201,-62,-86,-229,-315,-393,-201,-219,-205,-297,-3,1224,2011,2275,1856,665,-34,197,-4,-722,-271,-346,-332,-196,-255,-233,-52,-151,-271,-238,-233,-484,-794,-621,-549,-468,-429,-228,-315,-507,-291,-95,-101,0,112,71
2019-10-16,06:50:39.094,166,86,87,114,37,176,154,-17,65,53,108,-38,-24,215,772,1587,1352,796,335,200,30,25,-118,-64,-49,-33,46,6,-188,-172,-155,-177,-214,-260,-291,-289,-254,-205,-84,-58,-78,15,23,-10,58,52,13,12,19,23,34,58,65,106,6,23,45,5,34,83,-107,-139,5,703,1394,1289,702,217,-20,-84,-105,-194,-236,-270,-169,-140,-163,-56,-103,-109,-143,-206,-307,-416,-517,-487,-412,-398,-323,-217,-182,-168,-157,-162,-78,-177,-144,-73,-45,-32,-49,33,45,89,14,-85,-55,-43,7,-115,-340,-114,916,1684,1403,879,205,-112,-157,-85,-87,-224,-100,-186,-265,-144,-292,-183
2019-10-16,06:50:40.094,-177,-340,-346,-423,-436,-441,-394,-368,-378,-226,-104,-172,66,-31,-96,162,93,126,-174,-185,-116,-118,-52,-98,-96,-101,-152,-60,-47,6,-63,-202,53,1022,2191,1819,905,147,-56,-107,-89,-205,-234,-223,-218,-263,-337,-326,-264,-300,-153,-152,-282,-357,-460,-462,-294,-186,-161,-134,-81,-93,-195,-163,-137,-102,-157,-173,-95,40,69,145,183,142,72,90,62,44,71,40,-190,164,995,1670,1496,827,305,94,39,33,-61,-97,-83,-73,-90,-93,-83,-131,-189,-166,-70,0,-83,-97,-208,-290,-249,-165,-131,-54,5,41,94,75,77,43,19,137,198,161,186,114,88,124,162,147,46,15
2019-10-16,06:50:41.094,-24,-51,75,606,1265,1201,617,275,86,-5,-30,-44,-28,-44,17,13,-55,-75,-118,-83,-151,-310,-273,-261,-418,-339,-377,-382,-328,-245,-213,-300,-273,-240,-300,-205,-195,-52,-98,-102,-98,-140,-169,-147,-106,-80,-78,-50,-59,-10,-14,-12,377,1220,1620,1321,634,224,174,-21,-137,-329,-334,-435,-501,-517,-511,-539,-531,-528,-459,-465,-479,-450,-245,-218,-134,-232,104,372,352,-21,-321,-399,-259,-222,-250,-208,-187,-136,-63,-11,17,56,156,165,202,288,228,-40,-296,-14,1089,1757,1392,298,-115,-278,-212,-129,94,307,521,691,533,324,163,-229,-554,-1060,-957,-1071,-1060,-798,-562,-357,-211,-28
2019-10-16,06:50:42.094,45,48,39,17,65,98,135,104,-94,-216,-199,-122,13,187,327,268,186,-22,-160,22,25,-254,-60,877,1754,1716,885,233,-1,17,-53,-92,-92,-99,-32,-78,-198,-230,-235,-272,-292,-374,-412,-359,-383,-319,-236,-142,-37,51,108,-16,-166,-183,-182,-197,-126,-33,72,117,144,190,158,124,115,102,12,8,-12,-51,-120,-18,593,1347,1469,939,405,160,18,-42,-90,-76,-63,-86,-92,-94,-120,-145,-179,-222,-269,-310,-352,-361,-344,-322,-254,-142,-72,-39,-26,-36,-39,-89,-97,-107,-115,-68,-1,-51,-65,-35,4,72,-35,-34,-83,-49,-5,-122,-138,169,911,1383,1017,479,118,18
2019-10-16,06:50:43.094,-134,-175,-195,-189,-171,-191,-184,-288,-246,-352,-396,-472,-552,-570,-564,-519,-386,-393,-302,-185,-66,-55,-59,-5,22,-113,-51,2,-31,109,176,204,42,-53,-43,36,7,38,93,3,-72,-238,-121,604,1389,1429,868,286,96,-21,-106,-131,-178,-96,-84,-176,-239,-162,-125,-173,-208,-369,-431,-516,-578,-503,-490,-342,-198,-129,-139,-129,-147,-32,-7,-79,-2,-14,155,204,238,158,93,156,136,66,126,100,68,75,-51,-225,355,1396,1890,1397,635,206,107,-94,-117,-120,-176,-190,-193,-179,-142,-181,-249,-317,-326,-366,-466,-443,-424,-425,-267,-143,-164,-45,-2,-7,-32,5,15,-13,3,44
2019-10-16,06:50:44.094,74,118,160,100,165,161,159,119,82,93,66,27,-139,-6,777,1593,1714,1143,430,161,9,-48,10,-71,-136,-121,-120,-98,-118,-154,-101,-226,-347,-372,-404,-409,-362,-328,-263,-179,-80,-25,39,-107,-63,-40,-61,-66,-44,15,39,-33,38,22,13,2,-8,0,0,30,-8,-153,-145,75,776,1346,1156,618,92,2,-81,-57,-102,-172,-126,-48,-233,-222,-208,-220,-247,-247,-321,-457,-410,-436,-327,-368,-300,-284,-195,-134,-99,-94,-67,-76,-71,-79,-65,-53,-14,-12,-10,1,-8,-3,-4,-50,-9,31,14,-202,-122,284,1040,1318,978,477,58,-72,-98,-133,-104,-113,-146,-139,-174,-157
2019-10-16,06:50:45.094,-138,-227,-179,-237,-268,-294,-383,-373,-298,-277,-300,-260,-173,-160,-139,-118,-138,-111,-46,-56,-28,38,14,24,-1,32,87,22,27,96,109,60,39,-181,-169,372,1413,1779,1230,422,11,-106,-139,-91,-130,-146,-158,-166,-146,-252,-232,-324,-412,-458,-466,-456,-432,-416,-390,-298,-203,-126,-84,-57,-32,-37,-40,-44,-14,1,43,85,135,71,2,0,13,15,-13,-71,-66,-68,-54,-184,-204,262,1331,1933,1497,575,-3,-132,-159,-154,-115,-166,-152,-126,-181,-154,-173,-159,-198,-318,-376,-434,-477,-516,-463,-400,-304,-261,-141,-129,-94,-69,-142,-96,-64,-63,-47,-34,17,44,47,54,52,42
2019-10-16,06:50:46.094,70,39,22,24,43,-16,-31,290,1031,1567,1269,600,229,51,-7,-39,-80,-118,-141,-126,-133,-116,-122,-138,-179,-222,-281,-334,-345,-335,-289,-257,-178,-158,-107,-24,12,9,10,-24,-30,-118,-145,-134,37,104,148,177,109,55,-46,-110,-78,-44,-195,-143,-202,-138,467,1232,1267,795,270,9,-42,-145,-167,-168,-168,-186,-233,-235,-201,-177,-398,-388,-438,-433,-412,-390,-296,-257,-356,-246,-186,-173,-206,-220,-152,-4,161,279,349,384,45,38,-6,-52,-106,-212,-242,-279,-245,-248,-186,-149,-227,-171,84,1032,1800,1774,1116,478,285,233,92,-13,-102,-175,-188,-224,-280,-279,-265,-369,-401,-481
2019-10-16,06:50:47.094,-494,-509,-538,-484,-375,-308,-209,-177,-129,-114,-108,-79,-73,-86,-96,-106,-120,-74,-11,64,126,76,63,-2,23,26,27,0,-53,-190,-236,287,1523,2146,1671,638,113,-90,-175,-183,-227,-224,-201,-212,-243,-217,-244,-269,-300,-310,-339,-394,-382,-395,-355,-320,-261,-263,-186,-166,-96,-4,29,27,15,18,20,22,-7,82,188,181,129,85,92,73,55,23,-65,19,-90,-97,248,1146,1807,1512,754,306,108,54,-21,-114,-68,-66,-60,-87,-151,-202,-82,-162,-232,-230,-291,-367,-448,-352,-211,-256,-128,6,26,27,23,67,13,39,1,0,2,-4,-64,-1,67,-22,7,150,100,90
2019-10-16,06:50:48.094,39,-2,-12,-71,-130,-65,628,1320,1263,681,256,12,-95,-157,-172,-158,-232,-170,-130,-136,-189,-244,-263,-309,-389,-434,-482,-506,-408,-366,-329,-293,-207,-225,-280,-197,-119,-71,-117,-136,-39,-69,-115,-75,-40,-38,-11,-52,-87,-215,-113,-95,-272,-21,-7,-193,-284,112,1107,1773,1585,778,258,-43,-168,-189,-215,-228,-243,-290,-273,-295,-329,-325,-357,-405,-479,-542,-531,-592,-464,-363,-375,-323,-149,-112,-112,-85,-84,-78,-85,-100,-91,-47,-53,-13,-42,-78,-124,-68,-7,-88,-105,5,169,146,72,-121,-119,502,1890,2470,1647,585,272,21,-128,-109,-247,-332,-191,-166,-261,-228,-124,-267,-340,-363
2019-10-16,06:50:49.094,-474,-517,-461,-333,-419,-448,-265,-200,-182,-75,-1,-28,-11,34,65,56,68,40,68,115,78,144,213,73,60,52,62,89,84,111,1,-156,2,710,1483,1517,949,335,89,-29,-118,-159,-152,-157,-164,-156,-180,-160,-143,-178,-225,-316,-310,-386,-382,-367,-369,-215,-90,-91,-57,-23,27,14,-52,-11,52,47,-11,-89,89,62,-44,74,128,72,73,62,29,-41,-60,-16,-78,-110,143,894,1510,1222,590,190,-57,-115,-71,-73,-131,-107,-85,-130,-190,-210,-161,-220,-256,-345,-323,-386,-368,-352,-309,-281,-237,-135,-111,-102,-72,-42,-14,-34,-49,-105,-96,-112,-76,-41,25,59,-23,1
2019-10-16,06:50:50.094,-63,-34,-120,-49,3,-1,-131,-198,186,1125,1719,1407,759,223,-66,-188,-92,-163,-295,-188,-188,-237,-251,-273,-282,-375,-522,-354,-526,-516,-555,-526,-434,-355,-251,-188,-117,-85,-75,-147,-108,-64,-75,-77,-57,-33,-45,-12,-41,-75,-40,-35,-58,-47,-86,-37,-61,-76,-202,-314,68,1253,2157,1972,861,53,-153,-263,-278,-307,-291,-304,-300,-319,-367,-371,-379,-408,-482,-490,-469,-512,-459,-410,-324,-209,-151,-120,-70,-76,-232,-150,11,-64,-104,-28,-34,-67,-57,-58,17,108,79,54,95,110,45,51,5,53,-76,-75,386,1360,2196,1857,821,248,92,-8,-120,-86,-88,-87,-134,-242,-229,-234
2019-10-16,06:50:51.094,-208,-169,-231,-325,-398,-427,-438,-419,-337,-221,-149,-89,-19,-2,-3,-40,23,24,0,15,13,29,33,96,93,88,17,17,14,43,31,-36,96,44,-88,-114,335,1239,1729,1335,590,204,32,-13,-78,-108,-193,-101,-75,-98,-173,-151,-234,-222,-291,-330,-308,-361,-368,-329,-313,-255,-195,-214,-67,-91,14,33,-14,-13,-40,-22,-68,-79,17,5,41,82,36,17,11,9,32,-23,6,32,-103,-64,312,1065,1473,1056,530,187,75,-3,-29,-65,-87,-64,-36,-114,-114,-215,-342,-375,-432,-486,-525,-538,-521,-509,-472,-397,-246,-178,-139,-85,-29,-98,-125,-134,-163,-145,-125,-71,3,-3
2019-10-16,06:50:52.094,-40,-55,-45,-42,-40,-42,-78,-54,-3,-23,-108,-121,182,847,1353,1010,494,170,99,-158,-142,-80,-132,-152,-165,-172,-177,-207,-192,-226,-331,-364,-365,-404,-386,-342,-319,-261,-160,-69,-64,-25,50,83,1,1,-47,-76,-27,-29,26,53,29,56,60,153,83,27,46,34,35,27,-60,-84,261,945,1426,1184,584,223,67,-15,-58,-70,-68,-85,-108,0,-111,-148,-169,-256,-287,-377,-441,-377,-376,-297,-264,-257,-175,-100,-97,-44,-39,-16,-1,-40,60,92,69,57,110,161,102,76,111,87,115,157,115,62,23,-17,-82,-173,81,947,1631,1473,836,232,56,28,-92,-106,-82,-53
2019-10-16,06:50:53.094,-53,-209,-230,-258,-296,-294,-283,-305,-495,-528,-552,-461,-465,-343,-247,-170,-125,-110,-63,-81,-164,-86,-52,-13,-20,74,34,33,155,74,-12,-31,-52,-26,-45,-61,-53,-54,-40,-275,-265,393,1511,1699,1114,401,27,-7,-109,-148,-165,-141,-142,-153,-173,-181,-138,-134,-170,-289,-390,-467,-465,-406,-351,-316,-212,-100,-58,-72,10,61,110,0,-22,-13,97,126,90,139,161,145,182,182,153,137,89,41,46,107,109,24,-2,146,938,1536,1338,869,419,154,12,-69,-80,-130,-107,-52,-63,0,-4,-16,-74,-62,-171,-206,-209,-261,-269,-186,-124,-46,-15,33,71,70,58,151,147,112
2019-10-16,06:50:54.094,25,15,25,-63,92,99,70,106,100,113,84,66,39,2,-20,18,-113,-115,278,1032,1405,934,434,139,-37,-107,-88,-69,-118,-118,-78,-86,-111,-159,-145,-219,-162,-298,-318,-378,-405,-404,-367,-275,-175,-104,-60,-82,-49,-25,-51,-41,-47,-45,-158,-107,-84,-63,-7,-21,-14,-25,-32,-43,-49,-41,-27,-3,-29,-129,-28,490,1212,1375,963,349,37,-115,-144,-177,-235,-219,-200,-208,-281,-299,-324,-346,-353,-429,-574,-582,-522,-436,-337,-309,-214,-83,-20,49,66,13,-83,-192,-73,-79,-36,-56,-62,-27,-17,-3,61,56,49,50,41,61,43,-43,-129,-94,-159,-96,609,1615,1729,1115
2019-10-16,06:50:55.094,276,-43,-254,-258,-253,-24,375,546,286,-6,-364,-516,-601,-613,-627,-546,-442,-439,-452,-389,-272,-85,-16,-127,-209,-109,0,27,11,2,20,1,12,-26,-6,32,75,134,422,849,861,406,632,535,294,168,-19,-670,-191,285,1154,1501,1016,277,-23,-78,-40,13,-14,33,99,175,265,147,138,-57,-287,-473,-535,-673,-496,-466,-469,-365,-279,-200,-146,-106,-101,-71,-67,-73,-92,-90,-71,-28,-42,48,124,156,86,5,-4,23,55,40,49,24,65,21,-95,-96,138,789,1379,1117,558,209,-2,-27,-94,-52,-50,-153,-194,-180,-186,-236,-276,-282,-370,-444,-438,-523,-470,-431,-299,-307
2019-10-16,06:50:56.094,-207,-143,-123,-29,-36,-55,-89,-56,-49,11,44,-79,-36,5,-32,-66,-51,-18,46,42,-40,-62,-49,66,19,-28,-208,-11,637,1417,1532,995,300,-35,-117,-131,-188,-196,-209,-278,-270,-237,-186,-221,-285,-205,-274,-524,-532,-555,-551,-549,-486,-297,-279,-158,-103,-104,-91,-157,-64,-110,22,-39,32,27,5,32,82,91,45,105,-11,-54,-8,27,-86,22,35,-19,-178,-36,1020,1908,1671,914,308,12,-132,-125,-113,-71,-187,-154,-71,-174,-165,-138,-205,-295,-376,-438,-454,-481,-497,-363,-224,-126,-8,-18,3,59,63,77,-37,53,134,137,142,3,60,63,101,31,-21,-14,9,-25
2019-10-16,06:50:57.094,-7,36,-17,64,33,-69,-112,165,1020,1676,1552,909,273,55,-9,102,-106,-91,-116,-134,-143,-155,-132,-150,-251,-238,-244,-309,-430,-437,-390,-347,-222,-136,-108,-71,-18,-41,-1,50,108,130,28,26,0,9,80,84,168,86,132,-3,48,43,80,59,14,-24,-19,-31,6,182,833,1414,1200,645,165,-41,7,-24,-81,-152,-131,-143,-79,-49,-34,-66,-139,-236,-316,-362,-410,-485,-415,-286,-266,-207,-94,-62,-15,-27,-50,-26,-9,-157,-101,-104,-118,-104,-74,-83,-79,-57,-46,62,32,0,33,105,84,-130,13,82,-132,102,978,1656,1484,787,375,31,-3,-27,-89,-82,-136,-139
2019-10-16,06:50:58.094,-123,-135,-353,-392,-358,-431,-548,-569,-643,-680,-575,-558,-485,-486,-339,-265,-200,-26,7,-97,-60,-31,8,31,-22,-79,-89,43,168,69,-16,114,169,51,-4,-52,125,-6,-28,-42,-133,-460,6,1201,1771,1412,724,147,-15,61,156,-26,-181,-328,-389,-558,-484,-428,-497,-395,-62,-211,-314,-374,-454,-596,-416,-270,-124,-158,-125,15,18,71,397,400,144,2,-244,96,-178,-467,-577,-600,-521,-361,-216,-86,5,113,266,167,131,138,283,243,225,587,1575,2136,1687,719,172,-26,-29,-21,-109,-79,-141,-214,-303,-310,-117,-89,-162,-270,-275,-312,-399,-355,-312,-317,-170,29,49,3,94,83
2019-10-16,06:50:59.094,0,2,79,65,36,9,4,-31,42,73,8,58,125,173,51,37,48,118,12,-3,9,42,-82,-103,215,983,1391,1053,528,196,22,-28,-33,-38,-55,-75,-188,-111,-62,-105,-119,-152,-248,-326,-413,-425,-340,-299,-364,-326,-177,-82,-78,-61,-18,-39,-52,-22,-27,6,41,2,-53,-25,-19,47,50,55,41,35,18,12,3,27,50,-80,-106,-194,-139,251,918,1264,1021,503,67,-59,-67,-194,-272,-235,-221,-198,-189,-202,-344,-374,-344,-369,-420,-581,-529,-551,-494,-450,-411,-344,-312,-240,-165,-296,-68,-79,-23,34,-12,-139,-36,27,-74,-176,-97,-47,-19,18,35,-74,-26,18
2019-10-16,06:51:00.094,-2,-41,57,-41,-142,-97,167,983,1617,1254,639,178,85,-55,-28,-64,-173,-162,-158,-155,-129,-181,-164,-258,-302,-238,-350,-330,-456,-370,-304,-205,-198,-173,-165,-82,-29,-91,54,94,21,83,122,121,82,43,4,76,144,117,157,139,181,172,78,130,115,39,77,-87,-38,290,1079,1647,1410,724,290,123,-8,-20,-19,-31,23,-48,0,-66,-128,-121,-117,-219,-248,-323,-409,-375,-333,-383,-233,-53,-26,-91,-34,-22,-15,53,59,128,194,37,-18,147,28,119,129,127,90,99,100,38,95,114,79,124,160,51,131,-116,79,756,1767,1892,1251,479,90,-11,-4,-103,-30,-63
2019-10-16,06:51:01.094,-172,-311,-333,-247,-223,-284,-359,-396,-430,-614,-722,-744,-640,-511,-330,-242,-264,-254,-78,-472,-249,102,-42,-241,-329,-78,-70,154,-130,-243,-63,181,240,184,-107,128,-453,-146,34,239,101,39,140,-205,-186,1010,2008,1932,1046,263,56,-116,-180,-178,-202,-167,-180,-168,-125,-257,-203,-160,-204,-398,-461,-523,-670,-558,-562,-567,-322,-223,-194,-84,-3,-26,18,0,-187,-113,-59,-40,84,-146,-74,-94,-114,-67,-47,-14,54,-36,63,279,-43,-119,54,-38,-92,-172,236,1040,1588,1180,643,356,159,-119,130,52,-279,-281,-141,-174,-208,-83,-41,-165,-11,89,38,121,79,-186,-378,-219,51,508
2019-10-16,06:51:02.094,59,53,566,64,-396,-914,-379,-19,-371,-38,11,-212,-76,-37,151,-503,-86,72,49,-11,135,-17,-95,-11,-67,-51,-65,-194,128,765,1415,1064,470,172,21,32,-34,-219,-200,-112,-72,-204,-174,-112,-280,-243,-284,-282,-606,-528,-663,-546,-401,-304,-215,-309,-87,-131,-66,-99,-100,172,-118,-251,112,-110,131,684,610,-175,-86,470,113,-40,106,-212,-73,233,-28,-457,-425,411,-47,-335,373,1009,2204,1548,847,245,-108,-204,-73,-290,-590,-472,-165,-277,-10,110,-287,-455,-218,-785,-367,-237,-409,-380,-529,-432,-275,-260,-265,-378,-108,-129,-75,44,82,5,528,1069,581,-13,-116,10,-236,-396
2019-10-16,06:51:03.094,198,445,47,-240,40,-71,-64,56,-117,-294,-28,-185,19,630,1702,2367,1921,1211,354,5,134,331,16,257,232,5,-189,-132,-343,-255,-22,-719,-464,-417,-378,-47,-420,-351,-558,-288,-381,-681,-346,-309,-258,-149,-227,-244,49,-214,-89,-185,-334,-58,-104,-13,-81,73,64,262,231,232,126,20,56,13,2,-19,-67,-24,149,908,1570,1403,783,386,208,89,-12,-50,72,-39,-140,-231,-192,-236,-152,-153,-114,-193,-300,-274,-316,-350,-273,-186,-88,-74,-27,-87,-79,-137,-128,7,145,-33,0,16,36,3,60,79,407,-170,191,467,-229,-88,-73,-78,126,-25,118,260,40,139,234,372
2019-10-16,06:51:04.094,1129,1261,1262,483,354,-453,346,844,440,-376,-193,46,-383,-495,-501,-482,-329,-620,-7,-478,-536,-666,-281,-947,-522,-388,-80,150,153,321,132,-262,-109,25,243,-21,-125,-207,187,143,-196,-245,-378,252,643,228,-37,-296,-252,167,-60,-118,-169,-32,-107,-548,223,1491,1977,1958,970,612,125,-421,-210,183,18,-401,-496,-14,-559,-50,-203,-193,-721,-548,-521,-329,-678,-452,-279,-939,-420,10,-348,-507,306,-118,-269,-307,27,-285,-466,-81,-132,-70,59,-231,10,-142,52,109,-80,38,106,-319,129,258,-666,-466,163,171,279,-316,135,1699,2444,2004,928,292,-130,-115,58,-119,-150,-159,-297,322
2019-10-16,06:51:05.094,-72,-91,-193,-387,-374,-438,-440,-519,-737,-459,-429,-445,-457,-13,-123,273,34,53,88,82,196,-116,-70,83,-26,54,187,134,-41,111,133,212,254,353,173,59,199,117,294,185,-67,135,-58,87,9,870,1559,1612,888,340,339,61,19,-1,1,120,-86,94,-85,1,-15,-87,-46,-213,-94,-217,-332,-239,-245,-402,28,-177,63,-8,86,83,86,70,-75,62,178,72,67,-22,142,5,46,169,-94,260,109,169,94,-17,130,-7,195,-71,135,126,9,-200,-284,1003,1224,1382,1058,462,12,303,-292,-213,-371,-96,-94,-182,-175,-302,-399,-262,-249,-445,-396,-316,-788,-509,-437,-508
2019-10-16,06:51:06.094,-367,-791,-151,-542,291,-405,35,252,-96,-223,-48,-649,309,-454,-260,-405,-73,33,-209,-228,657,-167,678,-883,341,-218,-292,-153,-17,-184,-49,-175,-469,-173,1048,1750,1427,896,427,63,-290,225,-432,324,-692,-52,-741,473,-848,-539,-321,-354,-793,-368,-1027,-911,-881,-1507,58,-498,-258,-305,64,-350,-254,121,-168,-2,-685,-625,-222,-234,-228,-11,-42,-73,-475,140,369,222,-111,-259,82,428,-441,35,240,52,6,298,-327,-239,39,24,916,1985,2214,1539,615,182,28,194,182,16,-55,-27,-144,-464,-73,-357,-154,-127,-147,-240,-173,-424,-205,-487,-175,-347,-337,-197,-254,209,-269,-56,-515,25
2019-10-16,06:51:07.094,29,311,-9,233,325,159,208,251,295,-44,147,-127,125,297,201,54,-88,193,-2,321,181,68,292,62,109,-162,235,1106,1638,1390,703,478,318,206,14,55,-20,-8,146,-54,7,-51,-33,-30,-149,-177,-187,-296,-255,-284,-292,-252,-114,-119,-211,39,-19,8,37,106,126,4,89,203,56,26,-73,-4,142,224,-145,2,-44,361,237,206,59,-69,-300,295,225,-98,-229,87,-55,-224,-361,-66,851,1550,1429,619,158,-188,-345,-201,-67,-175,-327,-214,-172,-257,-177,-49,-168,-74,-312,-582,-463,-500,-806,-378,-299,-467,-238,-322,-361,-148,164,50,-235,-23,-225,-166,247,-118,-48,-263
2019-10-16,06:51:08.094,218,-168,-140,228,-16,34,-264,-264,-87,12,349,19,5,-101,-59,-219,36,-21,130,-182,150,80,1165,1981,2023,1084,188,-150,-8,-36,-289,-241,-329,-302,-192,-56,7,-143,-291,-507,-371,-485,-406,-400,-634,-661,-437,-304,-261,-32,-437,-63,-60,135,-38,-182,-13,93,12,-111,52,-143,-10,-13,10,-117,-28,-264,37,12,366,-218,377,49,290,-62,-247,22,71,69,-22,-41,-18,-30,-293,26,534,1643,1793,1313,465,174,-101,64,-124,-206,-125,-123,-73,-202,-300,-183,-231,-158,-260,-403,-479,-530,-329,-400,-383,-349,-213,-130,-163,-113,-163,21,13,-65,-21,-44,-62,-90,-24,161,8,91
2019-10-16,06:51:09.094,-6,86,41,127,14,34,16,101,138,-54,-55,-67,78,141,-15,36,-163,42,214,120,-61,63,-260,33,511,1023,1788,1224,612,314,133,141,-25,-120,-123,-81,-88,-164,87,-97,-103,-242,-475,-380,-317,-251,-417,-523,-379,-371,-327,-291,-244,-102,-151,-119,-71,-152,70,-45,-38,-92,109,22,-140,12,-47,-52,-104,-3,152,-140,-63,6,28,37,-73,17,76,19,72,77,-11,-18,58,-46,13,-95,-61,25,-23,19,466,1539,1947,1402,534,388,131,-122,-286,-239,-194,-148,50,40,-230,-559,-608,-292,-452,199,-204,-525,-634,-592,-542,-555,-565,-250,85,43,-90,-202,-102,1,78,207
2019-10-16,06:51:10.094,78,-3,73,-82,-43,7,67,73,-85,33,13,68,109,-71,-30,51,78,-35,-146,-15,-12,53,221,49,-116,26,47,62,117,-17,-104,58,-8,-71,-124,-6,1137,2240,2281,1278,284,64,73,-149,-64,-140,-204,-127,-144,-314,-64,-331,-419,-57,-120,-456,-516,-452,-536,-526,-558,-512,-334,-167,-209,-179,-138,145,-136,-31,-78,12,26,214,-187,-26,-113,11,-53,6,-26,125,-109,164,4,-85,70,-83,-4,-15,103,-185,-30,47,-19,-14,43,0,-37,161,-33,-59,4,-37,98,-197,190,-200,45,-92,-43,478,1147,1667,1026,578,28,220,-197,-19,-180,-167,-198,-202,-14,-265,-126,-217
2019-10-16,06:51:11.094,-241,-250,-168,-407,-347,-477,-370,-441,-482,-363,-199,-285,-95,-83,-37,-155,-171,121,-18,-193,-1,-126,131,126,-143,233,-304,96,309,492,377,-29,-203,536,-361,78,61,-89,-43,-21,221,-470,-32,270,-23,-244,31,247,-279,-137,-212,202,-189,-13,1,49,-90,-62,804,1458,1717,1300,329,316,93,-195,-330,-128,-29,-192,-175,-207,-107,-104,-272,-242,-308,-288,-461,-504,-570,-493,-523,-403,-234,-352,-152,-31,12,-39,-14,-40,-10,52,18,-116,-4,-23,3,67,180,-86,-99,258,11,107,93,119,17,96,76,62,-3,107,371,-309,-263,352,141,-133,-69,140,-101,77,-48,150,111,114
2019-10-16,06:51:12.094,273,-405,154,119,-389,410,1406,2403,1645,816,265,50,-74,-139,62,-526,-172,-308,-310,-87,-501,-157,-177,-728,-361,-192,-765,-568,-319,-794,-436,-341,-140,-143,-308,729,-456,-202,14,93,71,25,-154,-360,195,-11,172,156,146,-15,296,4,54,275,-220,146,136,-166,-10,-8,155,126,101,213,-157,-753,2,396,164,203,52,-45,-184,84,-50,194,149,149,77,163,157,242,-21,290,-157,167,189,74,-358,185,870,1770,1835,1350,658,273,77,-113,-63,42,-133,-168,-30,24,-12,-202,-154,-448,-228,-218,-188,-204,-211,-440,-367,-247,-117,-7,-150,-142,118,38,-52,-26,114,179,-221,0
2019-10-16,06:51:13.094,97,-108,-74,-126,76,274,5,-50,69,112,125,128,89,-128,-13,-159,58,49,260,203,-135,-303,-215,301,84,-99,81,-48,-40,75,-25,40,-407,363,154,130,-190,206,-18,102,-115,-219,-6,230,-337,31,-140,266,123,191,-60,-253,-10,-75,-28,86,967,1791,1422,1025,15,-16,-164,-381,208,234,-297,-420,-549,31,169,-116,-866,-862,-348,-648,-356,48,-163,-355,-663,-515,-376,-298,-156,-282,-164,-84,-504,-347,117,82,445,814,-610,-430,5,-268,-574,-362,-503,75,334,172,-20,274,263,230,-265,-352,-219,-96,42,272,130,-293,76,162,-830,-380,460,-109,162,380,-12,130,-495,867
2019-10-16,06:51:14.094,422,629,261,274,266,-331,-208,173,1853,1511,1332,-570,706,843,676,-421,-1185,-1303,527,1220,-24,-1079,-760,-15,167,265,-64,-1025,-547,-274,-389,-213,-652,289,-512,-323,-346,-258,-144,54,249,538,-469,-736,766,240,708,-389,-1042,527,-227,454,-203,-37,67,151,148,108,-210,-316,162,188,328,46,-925,115,9,449,526,-8,268,-27,-598,23,56,283,531,205,159,57,-118,-606,-318,71,400,2194,587,1136,547,463,-14,92,459,20,-281,-395,-418,-284,-225,-16,42,-18,-123,-341,100,-480,-504,-303,-436,-639,-327,-270,91,-263,-214,-188,-88,-146,-28,-120,-217,119,-97,74,-152,-63,-102,165
2019-10-16,06:51:15.094,-279,124,-84,-36,50,-30,10,20,140,-13,25,68,115,-92,113,100,40,-84,159,-116,34,199,47,54,-82,-159,-2,213,-101,-185,536,1433,1524,829,480,-32,-171,-5,-106,-89,29,-3,1,-66,-23,-278,-586,-301,-236,-148,47,-704,-477,-587,-701,227,9,-204,-791,443,-420,-747,278,-243,-514,-84,270,-481,-358,788,458,240,186,335,31,-435,184,1,-277,-388,390,288,481,289,302,71,127,-120,359,-368,-89,548,-59,-54,141,306,360,197,588,0,179,516,311,1343,2343,1881,1577,238,503,221,-203,88,-74,-104,-360,19,-356,-499,-1012,312,83,-929,-403,-456,-32,372,995,-590
2019-10-16,06:51:16.094,-1090,-661,-833,170,154,-131,-97,5,-412,663,364,50,-241,228,-159,-1182,592,-737,-187,-170,604,133,417,-613,775,-557,390,-57,169,-679,-931,949,418,569,-295,-266,567,-533,-405,62,-141,452,262,-14,323,235,-480,3,-1009,-206,1093,1610,1521,1809,844,857,-126,-399,-27,-225,-905,-19,48,841,-299,-89,61,-683,-957,-169,-696,-1089,-59,-344,-450,-747,-627,14,90,-552,-480,-147,-147,-254,-285,155,-164,90,-16,345,-177,483,78,385,-508,56,-314,-116,334,-157,-229,234,527,-118,41,173,152,117,-415,-133,-5,21,219,156,138,109,-163,439,95,-167,229,-54,-141,-140,42,-160,746,1314
2019-10-16,06:51:17.094,1435,775,247,-35,36,-264,-25,-161,-292,-186,-297,-249,-149,38,16,-548,-286,-337,-475,-401,-500,-390,-547,-594,-218,-582,211,-347,-391,-47,200,-246,-677,45,-293,-214,53,0,-252,-127,-419,-69,-159,100,-289,-308,-83,-98,-52,41,36,-102,-231,-5,-239,59,-376,1,178,-375,308,-170,-105,-50,-76,77,-144,-83,-96,-200,-234,245,876,1556,1227,559,283,336,-379,-94,-464,-169,-266,65,-190,-30,-232,-73,-594,450,-890,-298,-378,-415,-349,-643,-503,-324,-322,-275,-101,64,-202,19,142,-38,-41,282,-234,169,169,8,-38,118,-137,-128,108,-162,196,1003,112,-181,626,-163,-457,1091,290,-289
2019-10-16,06:51:18.094,-261,-1007,-246,45,-67,285,419,74,235,-105,59,123,340,-370,62,299,482,1420,1653,1875,459,292,431,528,314,-677,370,-26,115,-6,660,-314,35,-406,-410,-27,48,-370,-356,-468,-582,-19,-336,-1013,8,723,-379,-73,-220,-42,318,53,470,492,80,-20,-348,685,490,360,-272,-240,-480,-58,112,-58,275,68,290,-31,117,-38,171,518,-201,468,-221,-172,199,128,116,35,45,23,106,-37,-57,118,-292,242,1114,1778,1739,968,993,843,-318,-42,-216,-564,-570,-27,-359,-266,-189,-367,-185,-360,-505,-256,-855,-719,-323,-770,-670,-480,-209,-29,-155,-90,-69,-248,-581,-583,266,91,81,205
2019-10-16,06:51:19.094,45,-177,815,70,-320,-501,-407,-133,130,110,-253,360,-96,762,-169,-234,-39,654,-151,-2,236,253,-193,-51,-336,56,75,832,881,6,-1081,-619,-143,-48,701,1193,1394,1496,955,78,-353,-109,317,-431,279,-182,324,-266,138,-276,-259,-243,-308,-511,-265,-858,-888,-426,-164,-478,-576,-120,-544,-26,-270,-161,-17,-323,142,-190,-135,-54,-52,-176,-158,-67,-65,45,-60,-36,80,-88,-34,41,-54,-48,-123,-90,85,99,-75,201,-19,-139,-62,-166,-37,-158,-57,-54,93,-202,-272,-189,-156,716,1341,1236,761,58,-20,-143,390,-480,-337,-324,-222,-373,-64,-200,-189,-299,-255,-203,-437,-516,-506,-353
2019-10-16,06:51:20.094,-502,-417,-269,-50,-183,-205,-235,-292,24,-175,102,-22,30,24,-161,504,-102,-735,-391,-43,-131,231,157,104,-151,-48,-61,159,-248,118,399,393,101,450,132,242,78,-345,39,-158,-626,101,56,-289,-256,933,1794,1863,1339,689,713,1613,84,-1617,-1468,-346,215,-400,197,26,-715,1052,274,-1066,309,-379,-1101,-994,-254,-705,-683,-338,-540,286,179,166,-544,-580,269,1654,-519,250,284,-837,-46,663,-328,394,15,-48,82,14,-4,-80,18,116,188,257,3,68,-123,-392,188,278,400,-520,375,-545,-143,119,-344,-27,-408,238,754,1923,2304,1205,450,1116,723,-462,-966,318,29,144,463,-824
2019-10-16,06:51:21.094,-372,-625,-98,-495,-668,-1,-383,-473,-564,-1019,-562,-298,-207,-919,-287,-454,796,628,-157,-109,-305,137,210,159,-407,60,-97,12,257,-396,-460,383,-16,191,163,-167,109,65,-10,-187,-9,747,1142,721,147,-117,384,258,320,215,81,-191,161,-100,69,570,1571,1195,1434,862,308,-184,-572,-236,-968,-768,-569,-225,-178,375,-547,-357,-156,-340,-512,-300,30,-1002,-360,-342,-433,-344,-204,-545,-166,177,-542,-259,107,252,-439,-149,-136,-178,37,-22,-92,-243,68,-113,-231,39,88,0,-161,-210,28,3,-34,-91,620,-24,94,-155,-457,-460,403,3,-785,-418,-124,363,-207,449,1231,1353,1126,232
2019-10-16,06:51:22.094,-365,-285,-322,-435,-262,-362,-320,-267,-179,-140,-12,-486,-296,-214,-1146,-730,-315,-705,58,-242,-1051,-362,-199,-211,-123,-320,-17,218,-145,187,-699,-70,-224,-312,-122,342,-270,-62,169,-170,60,610,-168,-187,-165,-212,225,373,234,-493,-8,108,476,-392,-150,175,548,132,98,411,229,-174,298,-59,731,2001,2257,1352,762,-308,-634,-219,-37,263,95,151,15,-146,-260,-116,49,-251,-162,-309,-290,-90,-1059,-726,-488,-30,-522,-152,82,47,-66,-240,-256,409,349,-195,40,-112,160,-102,-80,214,-50,616,-107,82,-235,-200,-182,-226,315,318,200,471,320,-436,384,649,415,295,186,-196,-281,109
2019-10-16,06:51:23.094,573,-70,-313,20,-35,-565,61,1191,1959,1479,1160,639,314,581,220,-113,-25,-921,-586,274,914,-63,138,-242,-490,-297,-290,-1587,-277,661,84,-855,-1056,-1173,-1077,343,501,413,-1714,-1401,1705,645,874,1055,-340,50,-236,-49,940,155,-427,-1315,-1190,226,1331,-134,345,590,-311,-623,85,-253,634,346,1008,-3,-1109,-775,-610,-190,-370,113,112,205,-215,-148,-6,74,-119,95,1283,1768,1652,735,62,-13,-125,-225,-33,66,-108,-168,-130,-410,-17,-186,-153,-534,-176,-224,-337,-528,-533,-294,-227,-526,394,-432,42,-528,-338,569,217,-599,40,-122,164,337,-563,-323,-263,203,156,79,-105,-146,68,19
2019-10-16,06:51:24.094,605,-181,233,-82,-333,-239,297,-381,-33,35,264,80,-70,-142,-124,-17,161,-203,-30,417,-98,215,376,811,1979,1165,582,281,-33,-175,480,-183,-119,514,755,-125,-208,-915,-213,593,-144,21,-1215,-847,107,-619,-868,88,-1414,-35,270,519,-618,-177,-467,-499,232,592,-23,25,-297,-38,-37,69,240,478,-586,-289,533,563,-306,-182,8,-1042,-323,1147,713,724,-598,-441,-344,272,1044,180,-276,-127,-221,-441,501,275,-120,-342,-742,-581,2302,3875,1581,159,-1115,-353,2327,319,-242,-1114,-1669,1479,694,-404,-77,-1321,-1738,1322,541,-313,59,-1767,-1797,-100,1604,-708,-753,-98,-122,-698,-1346,-1082,1252,668
2019-10-16,06:51:25.094,54,-387,-105,-1377,-158,1510,82,-422,-293,-363,-425,397,2211,247,-330,60,-423,-693,1586,438,18,-411,-622,-929,319,1674,159,-85,-127,-145,-793,1507,29,566,-602,-620,-695,761,2187,2562,2259,545,818,-330,409,-189,-269,126,-484,-648,938,109,-897,-465,-125,-107,704,-413,-413,-581,-1023,-779,81,-1,-103,-633,-929,52,767,75,128,-753,-545,1323,53,835,338,-478,-115,243,68,79,18,-80,290,68,4,128,146,159,109,83,220,66,147,165,23,135,268,167,204,130,205,117,140,114,74,25,-58,283,1075,1710,1760,919,431,191,271,-30,-47,97,-37,-7,-22,10,-5,24,-190,-129
2019-10-16,06:51:26.094,-169,-303,-282,-356,-648,-405,-449,-16,-246,-171,213,-124,-109,-161,1,-260,155,118,-210,-116,143,11,952,-11,-684,69,-285,-221,-6,132,144,-87,-231,-64,244,56,-30,-46,71,100,153,-49,-310,451,54,35,79,-27,37,71,-286,-258,233,840,1719,2298,1373,455,31,-90,27,547,-1000,19,47,-337,-280,-269,-967,-587,223,-154,-274,-476,-505,-706,-610,-651,-635,-457,-468,-346,-364,-305,-129,54,-84,-76,45,-49,-461,35,124,-54,-234,-120,75,412,140,-72,132,-1392,357,562,91,-461,-1287,-1067,1871,602,-383,-374,-552,-1143,291,2851,-788,-645,-1173,-1011,1277,1473,-228,-419,-653,389,95,1614
2019-10-16,06:51:27.094,4131,1222,302,-510,-742,-1263,1366,211,-559,-648,-1102,-501,2386,69,-913,-1230,-782,-1309,2024,-96,-1293,-2238,-1342,2440,224,-944,-470,-171,-2131,235,1740,-197,248,583,344,-511,332,43,13,153,-212,-164,368,-389,-58,166,10,156,-84,77,104,-422,188,397,48,173,-1059,-713,881,513,733,-618,-470,1222,98,177,24,-273,-174,208,299,11,2838,1895,1166,562,-256,-139,-45,-93,254,-554,-237,-63,-8,-98,-90,3,-186,-266,-477,-230,-479,-573,-259,15,-358,-92,-334,10,-189,-92,103,-484,489,605,-681,-72,421,45,48,-272,174,932,-452,207,56,-326,-43,361,29,-93,-37,838,-290,484,-261,-20
2019-10-16,06:51:28.094,126,357,422,-101,368,217,247,301,196,334,129,177,291,-43,214,1037,1704,1890,1039,559,487,-460,-328,853,47,-66,-563,71,565,-152,30,-569,206,645,-111,-213,-40,-647,-267,327,-254,-150,-133,-233,-105,-156,191,499,-145,-1718,294,1379,197,56,-664,-1213,1809,367,328,347,77,309,-510,136,936,21,-225,211,-192,-267,777,7,151,216,151,30,83,113,118,102,-22,96,52,169,85,-118,-33,628,1793,2227,1175,245,484,641,21,-237,-59,-329,-1559,313,361,-75,-213,-37,-306,-199,-108,-430,-392,-372,-823,-302,-696,-510,-459,-216,-288,-970,540,426,-74,-15,107,-550,-236,21,-122,315
2019-10-16,06:51:29.094,244,92,-93,272,-93,966,320,-89,-268,23,-102,101,-392,-179,285,7,0,-67,-19,211,413,-160,-402,231,764,172,-543,-1296,266,1406,-103,-262,-133,-478,816,4747,3255,1017,-1707,82,-852,1124,-257,-39,170,-561,-249,-367,631,-414,-90,-397,-122,-1255,-518,-171,-407,-710,-470,94,-556,-472,-415,33,-267,49,-5,238,672,395,-1082,276,-236,539,-232,387,100,-569,877,-791,147,-247,178,-206,88,363,-250,63,7,-94,25,729,-184,-113,160,206,460,-494,58,432,36,143,627,36,-166,-579,77,846,1842,1877,512,352,118,154,-139,-30,-57,-136,-142,-154,-39,-136,-169,-236,-242,-63,-262,-345
2019-10-16,06:51:30.094,-193,-1296,699,-333,-562,-162,80,25,-266,-46,-39,222,-36,-130,-355,121,172,-217,86,-60,-61,-19,-115,137,-84,-524,-93,70,228,-1333,-81,1340,-359,89,-879,-127,556,1,140,-267,-168,-35,-260,-125,229,-203,-3,288,84,-1598,791,1599,1592,1471,364,398,-639,-356,962,-318,-451,-1098,659,-1401,-195,923,-351,-817,-1208,737,-957,-1071,640,-555,-770,-1431,299,-711,-1287,1283,-123,-715,-337,707,-771,-1116,1387,287,-710,-1166,1701,435,81,-1508,1375,903,-10,-151,-711,-178,401,84,420,141,-1923,1760,248,25,-99,-901,1118,279,2,169,-118,227,294,-256,-582,756,365,-77,-1118,995,1812,2313,1128,57
2019-10-16,06:51:31.094,1630,138,390,-73,-1143,-1106,366,562,367,-411,-108,414,-168,-271,-422,-796,-899,181,-177,-1793,-1431,1433,76,-789,-447,-23,70,151,-705,-1071,516,-91,-3,357,-681,-130,342,209,-252,-116,214,730,56,15,-52,-908,616,-193,322,673,-352,-590,824,24,-105,264,-176,-150,-150,244,427,-841,-1117,1688,512,-340,-2462,379,2768,1798,1787,1129,60,617,154,158,-94,-1170,868,38,-734,-594,1155,-325,-1199,397,674,-586,-1406,950,-257,-1055,-47,194,-177,-283,-567,127,118,-191,324,99,57,129,306,70,122,177,117,162,362,-74,-58,32,419,13,265,-214,165,445,-15,454,-178,54,280,298,141,15
2019-10-16,06:51:32.094,299,88,51,124,314,80,214,299,110,-20,42,-5,1088,1347,1182,928,336,193,17,60,201,95,-114,148,-168,-280,-186,-15,-330,-411,-235,-460,-380,-309,-174,-464,-439,-215,110,-166,194,36,-176,92,131,116,286,31,144,477,427,99,-850,1083,779,-1089,1952,744,720,1588,-1477,42,852,474,-2708,523,453,-396,435,728,-607,448,-39,-749,-859,1803,739,-44,-2769,875,575,-123,267,1396,2091,747,919,2351,779,-1445,-1241,1632,404,-1727,-514,1610,-852,-2482,-755,2010,-1485,-1978,158,1943,-884,-2076,-851,1492,-827,-1663,-292,1837,-619,-1492,-318,2101,-645,-1584,54,844,-607,-472,1352,1828,-741,-2062,253,1373
2019-10-16,06:51:33.094,1055,-287,-2036,258,2815,135,-1581,-1555,153,2806,-158,-1378,284,1876,887,-1467,-682,861,1106,187,-1030,-530,463,792,1557,1207,1044,1896,1238,301,-490,-566,467,-103,-1056,-1391,356,496,536,-627,-1106,-197,1497,-154,-308,-591,255,-266,-235,-227,-1140,-1156,-1187,190,531,804,-255,-948,-1516,-634,745,1006,-1430,-561,99,347,190,-127,188,159,32,117,95,243,-189,-273,-561,-291,371,752,5,-192,-116,41,-42,-286,-7,-77,-161,-69,-5,-56,185,543,22,2052,1795,623,189,321,396,-159,-958,-253,-300,-277,43,-388,-333,-81,-443,-280,-503,-722,-510,55,-783,-555,-622,-746,-1370,-1764,654,-260,-255,-346,-373,432
2019-10-16,06:51:34.094,635,-791,103,-39,-759,-163,687,-423,-74,834,755,96,44,310,-131,79,519,758,730,219,-122,-149,-666,-673,-849,657,705,-287,-30,-5,445,102,-25,383,2133,2742,1646,566,29,123,1549,1756,681,214,215,-9,-1078,-1151,-440,107,-251,-764,-379,-374,-202,-847,-125,380,273,-6,205,-1255,-591,-183,-729,-1703,-157,-254,-398,-447,-445,16,72,-100,116,1019,641,502,227,-13,-265,861,140,261,551,-337,-395,-1831,-859,-389,56,290,57,448,754,822,514,543,261,-524,9,876,1968,2768,832,92,-310,-626,-465,421,244,-790,-375,-771,-515,209,-772,-712,-85,-83,-1074,982,-346,-1257,-2508,-1033,288,-327
2019-10-16,06:51:35.094,1084,318,363,-217,-317,350,1099,1145,-213,-589,-37,402,668,-122,-162,200,-216,-343,-865,-1027,-606,538,1126,1521,782,-131,-963,-1297,-345,2261,1119,1405,599,-162,-917,119,-1046,-2373,-668,726,1745,1688,1835,1768,856,-123,719,538,459,-8,886,178,116,-287,300,-89,-1275,-997,-275,21,265,-65,214,-1194,-1932,-407,-467,-960,-262,1027,664,-489,-442,-532,-182,-1353,-221,-762,434,-183,-389,-491,-474,-185,107,-369,-535,970,348,29,-312,-21,217,66,88,207,12,84,28,-105,-17,3,-123,475,2084,1149,533,1412,856,711,-1044,-205,-312,162,20,-61,278,1142,-81,937,-1464,-1147,-354,159,1370,1803,544,-811
2019-10-16,06:51:36.094,-112,-321,-551,225,285,-74,607,-230,-845,-278,-586,-1214,-571,-81,378,1183,1660,136,-1949,-558,-136,477,17,1422,560,-486,-415,-133,117,869,1219,389,-821,143,184,58,395,1676,627,-104,-683,298,534,1187,699,-38,364,547,-182,573,-141,279,-393,-219,-177,34,1288,277,-1064,-361,-665,-476,-394,-865,-389,-609,61,-1186,-1076,40,-120,-445,-306,1543,41,-768,-481,109,-145,-425,242,253,-66,193,-35,130,-77,82,-7,-332,-290,183,362,100,-215,-73,-112,174,-239,76,286,38,-167,-410,2426,888,-1139,-1995,1507,2514,216,76,2518,1757,-530,-807,1596,-474,-1975,-478,1797,-574,-1480,411,1588,-1346,-1960,1067
2019-10-16,06:51:37.094,401,-1841,-1512,588,1329,-1829,-1965,614,196,-1146,-662,572,757,-414,-1536,585,1834,-970,-548,689,-216,-121,477,1141,-313,-915,-498,-347,701,-791,-624,969,1019,-1009,1233,3168,581,-566,86,502,572,462,1156,1533,284,-1356,-2936,-218,512,1145,4442,3515,-1377,-3042,-358,-109,530,64,-1376,-803,-729,-372,361,112,2129,1360,-191,-980,-1542,-1320,-1043,1008,-1336,-1239,-349,-120,417,873,-279,-47,296,1237,-232,-596,243,-583,-2554,927,543,-657,-1604,3,-193,4,-129,54,78,-225,197,119,-142,438,107,-7,76,-189,188,433,-55,-2,605,-220,-80,-173,324,569,1211,1480,1296,726,327,340,238,-364,1167,-457,-133,-41
2019-10-16,06:51:38.094,-87,11,85,-248,-49,-87,-171,-180,58,-461,-424,-260,-683,-318,-172,-32,-103,750,-230,-423,-2,265,227,-267,162,10,75,-110,-13,29,-176,215,-181,365,-566,191,79,-149,203,190,-13,-66,360,57,92,720,42,-439,257,-56,21,92,-435,694,213,347,1749,2113,590,265,-851,-175,7,73,-349,-300,-227,-174,27,-471,-296,-361,-10,-55,-289,-698,-376,-720,-470,-32,-225,-711,519,-313,-115,-159,-648,139,109,-350,-23,-207,-152,-181,-135,318,585,346,-834,-459,120,-285,752,706,-1070,-334,-289,720,-95,-422,-762,-101,-38,58,-763,-19,97,-39,-365,-264,-325,-9,-19,10,784,1661,2293,737
2019-10-16,06:51:39.094,326,-65,61,-321,-407,-298,-133,687,-4,940,-1227,-811,-777,-116,-227,-378,-709,-507,414,-354,904,-232,-1854,-787,-1324,-388,-749,-760,115,36,-8,647,-838,848,-393,-626,26,950,-417,-884,163,36,1904,-580,-1259,1276,1624,-403,-1052,-179,1323,-269,381,-538,-123,1334,238,-1111,-1834,-1043,1387,306,-580,721,-602,720,-781,1145,1014,2752,2175,385,394,-381,228,271,-1171,-48,-297,50,-316,-1075,233,-90,187,-173,255,-981,48,-937,-464,100,-186,-880,-795,-333,-1189,597,174,-840,-1206,-253,581,1,87,-261,1599,1469,-599,-1919,-801,173,-80,-669,-102,448,54,-214,370,315,-467,98,344,962,-1033,1038,95,-972
2019-10-16,06:51:40.094,895,-382,-135,-88,-159,703,291,-285,-471,11,203,469,812,1732,1471,237,422,176,-114,-332,333,-282,-490,345,-128,-298,-49,273,-338,135,174,-36,-934,1,-187,61,740,1066,-119,-84,-1178,-453,-507,516,-103,-695,-356,-299,-465,128,128,74,76,-1062,-23,-113,-155,-660,413,-299,-125,-142,-286,-135,-113,334,-443,1,390,-165,52,-186,-50,53,-357,732,-296,112,-321,532,-48,182,-85,-196,726,1234,1832,548,298,842,-660,-256,-287,-833,-341,699,-547,-392,165,-70,319,-711,-703,-494,-286,-320,-575,-615,-652,25,-824,646,575,-1164,-328,-183,-408,-126,-80,-267,586,1523,1238,-539,-646,-290,-187,-1245
2019-10-16,06:51:41.094,4,-458,-123,-31,189,251,458,-806,221,363,136,-111,569,312,567,745,256,-614,432,-450,-156,937,-849,227,-199,6,-16,144,286,-431,128,881,740,2125,1883,864,-51,-321,-19,358,110,32,135,2,-348,78,-104,-577,32,1666,346,-1012,-1113,79,-198,-901,-785,-199,-424,-908,23,760,882,252,-485,-193,-531,475,617,17,-555,-331,410,-12,-432,-104,-305,258,-727,1606,1176,-353,266,-784,568,503,-139,529,-192,-102,1095,-19,800,363,-550,-349,1077,-63,-533,-410,-999,-522,113,1030,-1449,-308,-85,526,-260,-13,1459,2436,1645,931,886,1141,-316,-407,631,271,-569,-460,506,751,-1065,-607,202,324
2019-10-16,06:51:42.094,-1085,-374,368,-342,260,-632,-1466,-236,-400,-1082,-535,-531,77,-23,252,318,849,102,-351,922,292,-359,103,294,-549,854,462,1037,412,1748,798,-1100,-2159,-984,1217,-2,-1069,93,-122,-296,99,-740,1324,1696,-409,-1609,-409,-519,-217,-81,121,189,1194,-710,362,-191,173,215,-537,-335,-50,728,1733,1631,754,555,1113,465,-1221,-35,5,-275,23,906,-1032,-315,184,-216,-162,-229,-165,-87,-306,-210,-165,-501,-373,-294,-191,-293,-108,-377,-206,-17,-23,-162,-165,-61,22,-184,-67,57,-10,-90,-51,-440,263,-10,-31,74,-53,180,29,97,45,-214,237,-92,-172,110,16,418,-118,-100,39,180,-224,-20
2019-10-16,06:51:43.094,145,-88,-65,-161,-326,-185,-17,243,722,-717,972,2036,1836,945,-220,-132,357,956,-152,-1283,-274,237,21,-1964,-636,-705,-256,-348,-190,-272,-420,-464,-484,-666,-588,-660,-238,-456,-573,-418,-82,-75,-498,-72,-141,-523,143,127,-393,-61,-291,157,-254,36,-36,262,42,172,258,-612,103,162,-47,-4,-115,-232,-70,81,-181,525,202,-295,32,161,84,-104,118,-137,186,168,-147,-359,514,-324,-750,68,2347,2772,1559,317,110,501,-279,241,-272,-387,54,-657,-112,36,288,-377,-1191,-689,498,-554,-883,-127,864,-1083,-1431,-1925,353,576,-1054,-1445,-637,620,242,73,-922,429,3303,-1576,-2601,-1223,616,1052
2019-10-16,06:51:44.094,-655,-112,694,1117,-204,-982,330,1383,435,-1454,560,3485,335,-692,-928,2108,149,-1025,1524,1575,-857,-604,1029,376,-1819,-1313,1092,1518,-1491,-966,-946,3270,166,-765,1278,6400,1261,-2341,-1189,5046,-3069,-1826,-1577,5546,-1942,-2685,4144,-1790,-797,-1383,3596,-972,-2401,-769,3890,-4104,-1456,-476,2636,-2644,-1393,729,2141,-1745,-1088,3943,741,-1594,-2145,2747,1761,-1519,-2384,3023,-443,-424,-2256,2397,1046,280,-2671,3092,-511,261,-2576,2663,-298,-438,-1273,2807,-1421,-43,252,-1821,1688,2,-170,-267,-458,1401,341,91,180,-838,-159,1051,873,565,1603,669,1069,1358,728,139,-567,-843,-33,-202,775,807,-596,-1057,-132,-4,-258,265,113,-91
2019-10-16,06:51:45.094,-490,-421,-462,-428,-745,-578,-578,-467,-505,-228,-248,-169,-346,-223,-92,-101,-89,53,55,71,-149,-166,-113,32,-268,-224,-104,-10,135,-56,-62,58,-170,10,128,52,-118,-87,-25,137,-37,-18,-122,-105,227,20,-51,-195,-37,42,-280,-484,410,1708,2075,1559,516,134,50,-125,4,28,-73,-183,-147,-173,-112,-194,254,-101,-441,-374,-247,-378,-481,-484,-572,-518,-510,-700,-404,-288,-343,-315,-331,34,-40,33,152,-18,-143,-308,-151,90,337,186,-91,16,288,41,114,150,-185,-27,247,-119,-19,187,-74,-83,174,84,0,-167,79,96,156,237,57,-41,86,-36,-8,-22,-207,368,1606,2026
2019-10-16,06:51:46.094,1802,1219,227,-88,-28,-25,-135,-128,-50,-129,-161,-276,-96,-96,-161,-96,-77,-529,-274,-444,-620,-680,-718,-618,-542,-548,-388,-272,-235,-327,-289,94,80,-134,-137,0,-197,-35,61,85,113,96,53,-100,72,-160,24,232,-74,-71,-86,-178,-228,-38,54,-30,-36,-159,-24,-128,-24,32,3,-95,-26,168,-94,19,-123,-385,156,1091,1756,1434,840,92,28,-333,-228,59,80,357,-31,-243,-288,-305,-236,-309,-146,-159,-383,-442,-322,-483,-514,-380,-395,-417,-398,-306,-153,-124,-187,63,147,40,-5,130,-98,18,-20,23,86,156,101,67,110,-93,113,105,166,-40,37,0,-35,-206,-66,27
2019-10-16,06:51:48.094,97,236,178,147,292,343,300,123,270,227,57,61,53,204,755,1472,1820,1364,701,350,210,183,124,189,159,-132,-6,188,-60,-131,-127,-176,-282,-171,-287,-112,-254,-381,-559,-353,-323,-113,-135,-217,-70,-67,-17,86,104,-18,81,-31,125,111,103,225,241,224,140,-57,-188,91,121,165,70,6,-27,-56,7,-35,31,180,107,26,202,29,65,257,7,229,66,-43,29,84,-91,-142,50,821,1283,1250,793,526,204,-24,56,77,17,-121,-235,-18,-148,-107,-61,-279,-101,-237,-156,-82,-348,-432,-447,-551,-368,-367,-320,-434,-249,-55,-98,-59,-35,-68,56,-110,9,24,-79,-33
2019-10-16,06:51:49.094,-431,-340,-72,35,-379,-56,-193,21,115,127,-20,54,-17,120,84,126,147,6,211,146,-244,-115,265,-11,-87,71,103,-52,163,68,-57,132,6,107,79,56,168,225,50,-12,167,157,8,-143,139,525,1026,1116,1124,440,275,298,24,16,65,150,-13,-45,-142,84,-111,-208,-50,-122,-270,-194,-195,-214,-414,-435,-387,-358,-465,-273,-160,-223,-322,-118,107,-25,-139,-7,40,-83,26,50,12,183,64,-55,-6,54,6,19,-46,-3,58,0,-139,67,109,241,-46,126,37,70,72,110,113,39,67,100,-183,47,111,492,1064,1539,1235,245,101,183,126,-14,231,162,-108,-407
2019-10-16,06:51:50.094,-319,6,129,-348,-603,-311,-100,-509,-664,-495,-424,-285,-529,-374,-231,-267,-454,-350,-158,-242,-222,-337,47,185,-54,-271,-236,-90,-143,48,69,-25,-264,-137,133,185,-61,-248,-33,45,-44,-70,-50,144,103,-164,110,-230,116,62,-137,-173,-244,-78,53,105,430,1187,1289,1020,517,3,-56,-96,-117,-324,-112,-15,31,-89,-166,-365,-84,-357,-189,-463,-162,-466,-474,-719,-502,-495,-663,-240,-379,47,-381,-258,-374,0,-348,218,158,-190,-39,-553,222,-147,100,-258,188,-244,109,-559,327,-199,12,-228,64,290,-32,15,-256,30,-304,-14,-565,357,-106,209,-119,130,-563,-139,387,1131,1731,804
2019-10-16,06:51:51.094,1055,516,107,-58,19,-369,13,0,-401,98,257,-73,-252,-219,-32,80,70,-645,-1203,-365,413,-460,-65,-324,-1422,-227,596,-20,130,241,-2025,15,940,65,112,23,185,340,-138,161,112,-1839,936,745,-93,45,-341,246,-36,-141,-239,-1143,-131,942,366,-836,384,-678,1037,-335,-1352,-240,807,63,-948,213,2083,2930,506,-1991,926,1612,-749,-1613,105,2188,-256,-1063,636,39,-29,-1809,-587,689,344,-1418,-626,-1877,198,-441,-1733,-461,1542,-1417,-522,-1303,119,764,426,-2161,-31,1071,-576,-2156,1608,576,-515,-1865,1816,520,-1442,119,2533,-90,-1853,-103,1849,1290,-1264,-504,-336,2845,367,-966,-2016,3228,510,-1631
2019-10-16,06:51:52.094,209,544,1926,35,727,207,3958,597,-2266,-832,1541,1695,-967,-1404,802,1458,81,-1487,-723,696,1170,87,-1532,-1457,843,-352,-798,-1276,9,425,-1640,413,1146,-22,-1921,2024,1243,-448,-1576,-1022,1023,1638,255,272,275,-110,-780,304,-1090,-841,321,119,36,121,238,332,227,87,277,44,-141,169,132,114,154,171,17,-656,136,391,1389,1795,1481,754,-58,-92,191,20,126,-87,-22,-100,-105,-135,-248,163,5,-96,-141,-197,-373,-606,-259,-478,-360,-314,-108,-149,-325,-134,-205,-229,-2,124,-128,-171,26,25,-112,-141,215,47,-127,-44,90,235,-100,-371,209,292,119,-117,105,-29,22,190,166,-258
2019-10-16,06:51:53.094,-290,8,192,-21,-32,164,-105,515,1530,1674,1317,369,239,-37,-215,-113,-58,-65,-296,300,-216,-150,-6,-87,-190,-203,-267,-4,-105,-182,-547,-353,-289,-580,-566,-119,29,-324,-109,-26,-24,-137,-16,77,6,71,209,237,34,193,48,-109,77,-144,-15,192,72,120,82,121,-82,54,125,106,154,68,90,41,103,-29,-75,53,602,1253,1920,1466,734,265,22,63,7,-135,-151,-142,-42,-1,71,39,-62,-108,-216,-405,-247,-181,-225,-589,-595,-323,-537,-587,-259,-12,141,-113,-171,77,231,118,113,261,226,-150,270,399,-37,99,69,17,59,71,-94,265,303,39,110,441,324,213
2019-10-16,06:51:54.094,-104,-203,0,248,166,-109,-74,-34,-195,-357,155,1365,2076,1641,1294,625,333,-248,-205,37,6,-174,-328,-314,-202,-266,-349,-307,-44,-72,-215,-229,-563,-582,-503,-351,-694,-548,-421,-250,-122,-200,232,107,-237,8,11,0,-72,-33,-118,78,234,75,123,-88,-144,-30,250,69,-33,-55,94,248,-108,-204,192,210,27,-118,12,-90,7,134,-83,-383,-417,-89,661,1418,1874,1663,649,315,101,-195,-181,-24,-44,-195,-124,23,92,-61,-279,-370,-72,-70,-143,-242,-725,-556,-1433,-464,1079,-452,-697,-1327,-691,3629,531,-392,-166,-150,-1484,-791,1592,516,-473,-1277,-1264,1891,634,-161,-700,-825,-72,1684
2019-10-16,06:51:55.094,910,-304,-792,-615,733,850,472,-63,-468,-448,31,405,338,275,-175,-292,-212,-231,-96,461,1240,1959,1481,642,215,-113,24,-66,-50,-72,343,492,104,-188,-1875,-884,1926,49,-877,-2241,2391,-67,-751,-1953,1727,-579,-750,-316,-2370,1714,51,-561,-1702,1267,73,-492,-589,1896,-155,11,-72,-187,288,-1422,-374,1139,86,-649,-976,652,289,811,-1350,142,1211,-102,19,-930,733,-393,-1537,2421,671,-121,293,-1556,-447,1246,706,319,364,1304,2968,729,-305,-2596,287,2193,-390,-1939,-1098,1380,1400,47,-1981,-1666,-85,1346,-186,-1013,-1676,-960,1744,-247,-639,-1511,-1840,804,667,135,-556,-1610,1260,620,-427,-1048,470,554
2019-10-16,06:51:56.094,144,70,-221,-166,966,809,1,-1218,-1355,1903,917,-1879,-1030,272,2159,709,-1101,-1104,586,2107,240,-1974,-358,629,1136,206,-1783,-239,563,1903,2414,177,1010,76,676,54,-870,-314,416,630,109,-671,90,23,-6,-216,-249,-261,-473,99,-86,-559,-830,-26,-592,-459,-505,-42,-312,-164,-83,-155,266,-503,44,-240,232,59,24,-798,3,62,-189,496,-488,-39,7,-196,138,-34,-201,43,-54,-91,-332,131,-44,90,-141,-134,-114,62,-67,-201,-266,-223,322,1180,972,1261,306,283,-118,-407,6,-141,-176,66,-313,-404,-139,-455,-276,-374,-131,-587,-318,-282,-1178,-320,-703,-290,-270,-773,-578,-412,-325,147
2019-10-16,06:51:57.094,-574,765,249,-622,51,248,-63,275,147,-589,-81,-494,-760,1329,1381,262,-694,-1298,372,855,275,485,-1182,-729,-289,555,895,563,-314,-1034,-55,1882,152,-841,-660,175,1073,1449,1432,460,1003,1195,-553,643,1550,200,-141,-1778,-336,122,1027,-1210,727,-154,693,-611,-1638,-1890,-104,1478,-807,-1919,-958,654,-4,-303,-987,-1292,-48,78,807,557,-308,-1779,189,226,1030,939,-634,-1660,320,-395,1813,231,-511,-1362,-888,715,1435,-395,-146,-865,-1667,1494,47,-26,280,98,-771,203,-829,128,1538,287,-1692,-674,255,325,2115,3381,1377,-1116,203,842,2205,474,-1028,-2339,1196,1975,-90,-1510,-1921,1499,1714,-57,-1326,-2422
2019-10-16,06:51:58.094,1120,-47,956,-736,-2280,-1064,254,2055,447,-1341,-1094,-1545,-1122,3124,131,-672,-2979,-1915,2568,2606,216,-764,-1781,-1964,2107,766,2304,170,-320,-787,-1827,-1492,1968,1225,-99,-45,-481,-2402,1339,881,-288,-215,-1116,-1322,1933,640,-69,63,-379,-786,208,553,1065,1577,2044,1435,215,361,-355,1155,-73,-1376,-487,-310,119,-887,-128,127,-152,-388,50,-607,-599,-343,203,635,-1353,-556,-503,-594,-323,215,1251,-1481,-339,-674,-109,536,-212,183,67,467,261,183,165,12,-29,353,-585,81,456,289,200,151,48,55,663,263,149,-328,-135,453,653,158,-343,93,-341,736,767,-965,-250,-79,404,1326,1749,1095,577,258
2019-10-16,06:51:59.094,376,696,383,-539,-310,-208,17,636,440,-563,-89,-149,-153,1399,946,-1613,-327,-588,-745,1267,1924,-745,-805,-786,-329,1101,-27,-516,-250,-1205,167,484,1203,-762,590,110,-969,-1365,1767,1555,719,-607,-2866,-1693,2577,2203,623,-403,-984,-1709,-801,944,5,907,935,-110,-1502,-2250,326,1997,65,155,988,-805,-1825,-454,712,3821,2721,1486,654,-1235,-2720,-432,303,280,2396,582,-2787,-2563,688,2084,123,657,-2568,-2832,374,2154,588,-963,-2657,-1790,-873,451,1737,-880,-1998,-1117,-208,638,2145,300,-449,-1712,-2540,-252,762,1710,912,-625,-2019,170,337,1677,1955,79,-1418,-3512,-693,1042,-573,870,564,-766,-990,-50,-378,955
2019-10-16,06:52:00.094,1892,-180,-1707,-1883,-157,1539,955,-320,-1323,1462,3550,4120,619,-1059,1292,545,-774,1020,-771,-1162,-1247,-1443,1720,2050,-70,-1878,-1719,-1293,1519,1351,86,-2055,-3630,-1571,310,937,1231,122,-714,-1110,-929,-77,2975,1239,-386,-1290,-1910,-1117,1340,2664,210,-2103,216,633,1898,-10,-368,576,-567,1174,993,119,-390,-1850,-855,1768,1885,414,-292,-845,-932,-1198,731,-122,1490,141,-1207,-269,912,-826,797,1748,2147,4359,722,-2069,16,-446,1546,1164,-1002,-1246,-1361,30,326,218,-306,-999,-1095,-499,-1157,-184,933,-1001,-930,-1011,-1302,-639,669,-94,-777,247,22,-198,-73,-148,344,546,-131,-414,-581,1251,670,-163,-709,-265,-417,-976
2019-10-16,06:52:01.094,273,-222,569,1192,151,-257,85,277,60,-82,1561,1756,-164,-198,-1020,84,-57,-318,654,-15,1170,-26,-191,556,1523,2001,1227,620,-573,32,-239,-163,-154,87,-125,540,-346,-250,87,366,-266,190,-154,-112,-148,-196,1263,51,1,-450,-1528,-697,586,401,51,-159,-1258,-397,1109,1471,-352,-863,-1286,-570,929,1306,-166,-562,-821,-431,362,2263,-696,-328,-1340,-923,678,3239,-1089,-874,-1553,-952,3266,1333,-980,-1500,-1221,-1110,1286,691,723,-1542,-869,269,1455,338,1873,711,185,22,1644,1335,-872,-1640,-423,1002,1048,-1426,-814,-334,-1752,66,1085,-130,-911,-704,-389,1551,-1575,-674,-331,-1383,-1073,656,-1153,-57,-650,-723
2019-10-16,06:52:02.094,-1093,2389,1635,-698,-1904,-2092,-452,3253,-166,-1010,-2,78,993,1231,1870,-1777,-2024,-1130,-122,2347,626,-438,-2182,-710,3116,1007,-620,-1048,-1851,1628,269,355,104,-1118,7,1018,154,72,-346,-927,1337,4495,4141,-418,-1308,-2395,-172,1395,2711,-365,-1065,-3479,-606,2815,3616,-286,-4131,-2034,-473,1693,1311,-1226,-2358,-877,-11,352,254,-499,-1305,-1233,135,2514,133,-1602,-1078,-653,1005,2520,275,-1166,-991,712,2051,311,345,-828,-1738,1360,1113,168,420,-2710,-1729,2451,1684,113,-42,-3346,-693,1417,1420,1652,-293,-3025,497,1717,1301,-186,-1026,-1666,1013,2170,313,-1620,-1421,3303,4226,1651,541,-1661,-1061,1542,1334,-760,-370,-287,419,-288
2019-10-16,06:52:03.094,-123,8,-2062,613,-8,-400,171,-539,-2798,1513,1092,-1211,-814,-1495,-38,907,-920,-729,-280,-1510,188,-10,76,1299,-210,-1410,1843,1624,-1661,-1039,-691,1346,1058,-591,-1154,-739,909,2050,-125,-2237,-1190,133,1679,-677,80,-902,-241,511,902,-462,-901,-351,-463,553,276,-387,-63,613,-128,-398,-333,-82,1931,2771,1096,42,-767,-224,-57,0,-151,-285,-312,-163,-348,-23,-49,-407,98,-674,621,317,-1065,-720,-1101,11,-360,248,-879,-11,51,-501,-512,-873,400,72,-132,124,-131,-165,-397,139,183,-870,-235,258,482,235,-979,-182,660,-284,-324,385,-231,267,3,-411,445,458,-337,-59,-70,-681,641,57,278,-88
2019-10-16,06:52:04.094,-353,-460,256,66,-174,591,146,-1427,817,1266,1673,1293,-74,1014,594,121,191,-526,-1040,228,-217,1077,-932,-602,-13,-668,179,-6,-548,-32,-534,-960,159,-337,-801,-166,-700,-557,122,-700,594,-215,-1170,523,1522,-1211,-114,-70,-932,82,625,356,-681,-481,53,851,-113,-454,-128,209,184,626,-845,-977,638,726,761,-359,-612,-27,-392,-452,733,-785,75,373,-188,-248,436,93,-254,-313,-435,1237,-1631,122,815,1332,2222,1633,1377,-365,-698,-636,937,590,-1221,-1620,1176,1410,-1321,-1209,-456,-635,175,-268,-734,-514,-493,-1211,777,-811,-1077,-676,-136,121,-572,-579,503,-837,567,-279,-981,1105,-422,-482,471,-493
2019-10-16,06:52:05.094,1566,-1543,420,251,-642,330,-69,-117,-78,-345,-578,-61,1393,-424,-1105,-1205,817,1246,429,-587,1161,-415,344,-359,-486,165,723,219,-595,-528,-1694,2199,1195,-1079,-311,-2153,622,1337,1797,1504,2408,1999,-724,213,-390,-50,319,-1126,261,855,816,-2175,311,201,-157,778,-872,-1283,114,-363,-1296,-374,402,-694,-1047,-588,505,-1476,-74,394,-503,-495,-789,-1268,1762,381,-1015,116,-478,236,815,-1908,-146,376,1654,501,-969,-1081,2141,-179,-230,-913,1721,-935,-320,-473,934,1561,-1313,402,-139,-949,1809,-532,300,-703,138,635,499,-140,-528,-171,103,897,-183,-1223,-1199,3031,1641,907,931,1327,1298,1555,-519,-827,230,-1209
2019-10-16,06:52:06.094,990,244,-108,-81,-2197,1587,260,255,-423,-401,-339,-149,497,-540,-496,221,-619,-1183,-1832,526,1656,-235,-352,-1962,-316,2420,364,-1946,-579,-333,1362,473,-1332,-1299,2910,519,-729,-1981,3058,789,-370,-1028,-1421,786,2010,-61,-149,-1325,1031,1567,-701,-483,226,-1259,-65,1733,154,-373,-1429,-196,2408,262,213,-1132,-1698,1422,1718,-160,-2700,-216,1799,4249,2220,254,-1237,204,1451,501,-1260,-935,1766,68,-690,-1375,-796,226,1201,-130,-1037,-508,-272,880,-252,-1998,-522,-275,684,112,-1386,-1084,742,1370,-290,-1309,0,643,705,-168,-398,-103,378,105,-833,-373,945,1054,-937,-1190,1084,908,163,-1421,-13,881,822,-799,-386,391
2019-10-16,06:52:07.094,982,-144,-1435,1189,931,-641,-488,819,410,-64,-627,-149,558,908,265,287,893,-670,-381,-415,262,1952,1414,888,1878,-256,-106,-218,10,638,-268,-357,254,170,-674,272,-482,437,-178,-311,52,32,-793,-353,236,-236,-1000,141,34,-587,-425,51,156,-398,-275,374,29,320,-734,399,163,-391,138,291,-10,-489,609,149,-75,-412,455,64,-409,530,39,200,-547,-398,499,0,281,-444,614,-584,622,-34,-256,354,98,-130,-375,466,217,-318,103,-214,519,943,931,1275,1045,407,536,-457,228,-186,144,261,283,-350,-44,-223,-331,-289,-345,362,-25,-179,-279,-390,-128,-1014,-511,-399,130,-157,-567,-148
2019-10-16,06:52:08.094,171,35,-66,-319,39,34,411,114,1116,50,-951,-76,-704,372,728,-23,-552,574,998,-462,-182,892,1001,-1590,63,-94,642,112,-77,-258,26,591,-33,-227,0,-602,1222,146,-488,108,-770,52,577,70,431,-506,1795,2924,1034,1030,-218,1846,771,-738,-235,-866,1579,-928,-330,87,-1125,583,375,-759,305,-623,-301,1690,-1717,-761,22,-606,1542,377,-2157,-901,-276,-545,502,1341,127,-106,-171,-1263,-763,1067,2637,-895,-818,-1187,368,1643,-488,-298,-138,-480,2566,-239,-1292,-197,423,-34,1452,-634,184,-602,-269,2657,-500,-1581,765,489,2531,534,-1510,-102,-221,-390,-248,1259,986,-638,-48,718,2796,1707,-57,1316
2019-10-16,06:52:09.094,-150,-1393,601,193,-257,515,-298,-292,-264,-1249,1361,-248,-345,-1798,-300,1541,-68,-2682,-467,887,926,-670,-1143,824,-848,846,-265,-699,-1356,96,546,1131,-494,-391,-49,-1296,-791,2367,668,-568,373,1518,-1880,-714,899,-380,-121,-1293,-490,1881,221,303,-1089,-978,2269,272,-683,-2757,2475,2098,-732,-1709,-2302,-232,1469,1944,493,-2072,329,787,531,716,874,331,1267,675,2463,266,-2797,2968,621,-558,-2209,1720,655,-942,-2386,211,1447,927,-888,-1722,-278,1491,-263,-2807,109,60,574,-835,-1068,-385,752,-380,514,-137,-22,1124,-171,-1349,-673,450,1163,-134,-1604,-352,935,969,-131,-479,71,397,-159,980,339,-855,-308,984
2019-10-16,06:52:10.094,573,-408,-129,396,-327,139,33,-159,-40,43,-620,443,187,-26,176,-494,-328,399,409,422,1232,1810,1246,-340,597,-384,507,-24,-637,4,223,114,-733,107,-237,285,46,-579,-360,246,-103,-1333,258,30,-195,-1346,-268,434,242,-1051,-160,536,-446,428,-541,321,456,-690,-107,349,390,-253,-981,390,1003,-457,-512,-150,1092,-339,-1062,-11,953,571,-570,-205,-76,909,-598,-11,360,373,38,-1032,743,616,158,-1394,-416,1916,-199,-2004,849,1872,614,395,2016,2177,146,-2022,1260,1143,-870,-528,91,260,1006,-1746,-288,1130,-404,-1095,292,805,-1918,-688,776,670,-844,-1475,-57,-396,838,-259,-1339,36,1156,581
2019-10-16,06:52:11.094,-593,-125,-3,-643,677,812,-260,-495,-82,-511,1218,-531,-274,-206,152,1341,-544,-504,-95,560,274,-130,449,-1017,498,540,-213,696,201,-925,-1022,46,826,564,-111,-1201,51,570,979,-1351,-541,2373,1720,425,1234,718,1503,-189,-1329,67,-281,1223,-283,-1155,440,791,-1303,-727,1923,-35,-820,-1479,1603,-733,-1387,-205,275,848,-1405,-1145,1230,-700,-1356,-1008,1615,-658,-1869,2029,-263,-1302,-278,1806,758,-2404,856,984,-2183,55,2422,220,-2898,151,2730,600,-658,-1099,1155,-883,-1463,2265,1157,-992,-1790,912,2469,74,-2881,-24,1106,1443,140,-3071,1239,2227,-319,-1249,-1220,3768,3625,102,-2271,-513,3267,555,-2692,-1037,2537,1050
2019-10-16,06:52:12.094,-2729,-1518,2688,1311,-661,-2000,-2727,406,2067,-166,-2634,-2179,-603,423,836,70,-1602,-2182,770,325,859,-59,305,-960,-748,1429,145,-1443,-2409,119,1622,1410,-380,-2645,-430,1131,185,1693,-100,-2070,237,1119,-253,1103,-856,-931,996,919,400,-211,-1195,1542,-654,640,-508,-882,952,1596,122,624,-1548,-1647,1940,1117,1921,2271,-574,-191,469,132,273,1733,-396,-1413,-422,-243,575,27,-991,415,-262,432,-162,-899,-70,-845,-1482,-141,758,-387,-862,-1609,2235,473,-1226,222,-1163,1268,629,-283,-310,-245,1406,1422,-1694,-463,-576,210,1512,-790,10,-348,1433,1151,-1338,-616,70,493,2781,-1835,-648,-656,115,966,154,-86,-675,-174
2019-10-16,06:52:13.094,916,-286,-434,-105,-630,241,330,-456,211,930,1068,869,217,-450,1292,578,-806,-1438,-1175,198,-439,-260,-121,426,-252,-462,-156,-1183,-520,88,-469,-1213,-705,-55,87,-555,-1025,-603,194,315,100,-1410,1545,-16,-814,-802,-1057,161,1839,724,-2455,-265,144,141,-517,2026,863,-2178,-1081,-234,1356,-1242,-450,65,-973,1250,714,-818,-676,-1747,-380,1079,1745,-982,-443,1917,-992,-1358,114,-1017,186,2144,2462,228,722,1774,928,255,-894,-1448,-1949,1860,1854,-856,-1445,-1113,679,1022,-440,-1298,-407,-313,-1256,-623,408,35,-726,-1343,506,147,-170,-562,-123,-288,1211,451,-1341,-79,-322,-969,902,482,-939,-109,-524,-613,428,1051
2019-10-16,06:52:14.094,-208,381,301,607,496,-141,-641,411,-2169,184,1377,900,-18,-247,-1767,-314,2000,1015,6,-77,-2230,671,1658,921,-665,351,-1785,1439,4598,1496,1078,150,-2782,345,2230,598,-368,-2230,-616,3315,163,-402,-2262,-871,631,1581,-438,-2128,-2153,1905,959,-313,-1051,-2076,-768,1581,519,-1494,6,841,824,-322,1461,621,-2874,82,239,178,164,1655,-1243,741,184,-1225,-86,257,1333,-321,415,-323,-932,752,1013,-465,-839,436,-529,1419,583,-1424,-40,-645,1730,423,-927,-306,3513,-81,-212,-1532,-1774,3466,2012,2120,632,-857,1666,1143,460,-1089,423,2241,114,-1596,-1577,-117,518,1695,-730,-1829,-185,1019,-47,-859,-67,-572,-43,144
2019-10-16,06:52:15.094,-567,462,-862,-1068,297,149,-788,313,-29,-1375,29,109,609,379,-1742,821,559,121,18,-883,167,11,257,-226,338,367,-258,-261,371,-157,-176,39,-243,274,-1095,429,-244,-86,719,-703,-3,-101,183,180,-227,-243,-73,-563,906,825,1975,125,708,352,2,269,36,-119,-191,-394,-356,199,666,-4,-723,-272,-354,-388,-121,-286,-372,-463,-59,-447,-587,-388,-161,-494,-233,87,-308,-202,-130,83,-136,-269,-51,165,-224,-224,-439,319,298,-439,359,39,-307,-118,422,-344,67,289,-508,-473,480,-247,7,-207,-265,-309,-62,442,-230,-220,356,-85,405,-20,-484,-253,149,-87,-185,-440,969,1680,1354,1399
2019-10-16,06:52:32.094,-109,-525,-1646,1099,1040,-911,-3187,-2427,-178,3174,-269,-642,168,70,100,-1884,182,-263,1662,787,415,-1475,-809,1368,445,-212,827,-2535,2618,620,-331,85,251,-109,-836,-181,687,-1749,44,1078,-343,10,525,-777,-390,2066,-106,-434,-1796,551,1220,74,-976,-187,798,-28,-621,-369,1267,-231,-1155,344,2434,1672,500,409,1896,-378,-1426,895,874,-659,-726,285,1110,-721,-1387,-1320,515,884,-290,-452,957,-490,-495,-676,-690,421,-859,-1819,-365,868,-201,-1308,-782,1904,-304,-2203,229,1048,678,-746,-1467,1590,1105,-1196,186,44,537,511,-250,105,306,-175,-84,-186,-232,55,9,-710,-1400,1975,504,-1743,1851,483,-196,-585
2019-10-16,06:52:33.094,289,-193,-127,65,71,528,554,-217,-132,-27,-528,380,703,1789,3154,946,225,-286,757,-224,-274,91,339,-391,-659,-98,120,398,-1095,-72,204,320,-1267,-688,585,-686,-355,-1503,291,-27,467,-452,-1122,-758,1092,-352,-1413,294,1582,13,282,710,529,-1311,56,-2526,1826,1350,328,-525,-160,163,82,-836,1053,-2349,3031,556,-306,106,81,-684,-1216,1915,526,-549,-2331,3002,1354,7,-55,195,1271,342,139,951,280,-428,-261,341,1159,1878,1099,1775,1946,1285,62,-618,-1605,287,2669,511,-562,-126,-163,-1518,2799,286,-104,350,-64,-786,-2155,3674,668,-1284,-196,54,-3235,2717,1337,-139,-352,-108,-1361,1448,2201,214
2019-10-16,06:52:34.094,256,-226,-161,29,34,489,514,-257,-173,-70,-572,334,656,1740,3104,895,173,-339,702,-279,-331,32,278,-452,-722,-162,53,330,-1164,-142,131,245,-1343,-765,505,-767,-438,-1588,203,-116,374,-546,-1218,-856,990,-455,-1519,185,1470,-100,165,590,407,-1435,-71,-2656,1692,1213,188,-667,-305,14,-69,-990,894,-2510,2866,388,-477,-68,-97,-865,-1401,1726,333,-744,-2530,2798,1147,-203,-269,-22,1049,116,-89,718,43,-668,-505,92,907,1622,839,1511,1678,1013,-213,-897,-1888,0,2377,215,-861,-429,-470,-1829,2482,-34,-428,20,-397,-1123,-2497,3327,316,-1640,-556,-311,-3605,2342,957,-523,-741,-502,-1760,1043,1791,-200
2019-10-16,06:52:35.094,-503,-2875,1733,2472,-241,-1028,-2484,1877,2472,97,-426,-1215,-2698,3417,1125,-42,-505,-1201,-1191,3482,568,-319,-1511,-2519,3302,850,-396,-3163,1455,2569,77,-1912,-1679,3283,899,-2395,1128,1384,200,-2803,-1292,3100,2075,2092,-115,5206,733,-73,-1311,-2514,3382,342,-189,-566,-1730,3810,66,-1849,-1387,-129,1941,908,-124,-308,-253,-383,-859,-2219,1232,-533,-1342,-8,739,1956,-138,-2096,-1471,429,1977,1857,-1429,-1117,14,-44,-2492,2202,623,-568,-79,-413,1925,-199,-1138,-426,328,182,-1099,-664,-134,2510,-305,-1045,-1001,-1053,2300,451,-959,1376,1778,-514,-939,-59,708,-534,1007,-587,-1330,71,745,58,-1160,1507,3446,1203,722,225,-788,1353
2019-10-16,06:52:36.094,136,-372,-758,-2099,2932,15,-761,-952,21,-650,-344,-647,-1798,2363,702,-542,-1590,-1744,1125,-254,-1644,1640,-354,-990,-805,-505,-1910,1396,-263,-1757,1138,1741,-184,-1299,-1493,1472,711,-627,-2013,-12,1762,-13,-1794,1070,725,-589,-1907,1204,755,-1442,-350,1562,221,-1229,-409,1489,-203,-954,-1806,1943,645,454,-1628,-989,1971,-195,474,-2254,1934,16,-1715,-734,4610,2691,817,-1105,1227,1261,-99,-265,-20,-1576,541,410,-444,-721,-1100,1450,-374,-650,-951,-1607,2203,-152,-651,-315,-308,-682,-281,645,-589,-480,-2505,1844,326,-81,-237,578,272,-2231,1522,886,1249,513,-2653,-2309,877,520,1472,-2423,-1063,1568,425,-685,-258,-1701,2602,592
2019-10-16,06:52:37.094,-392,139,233,-2309,1142,584,-1389,-1172,1753,1112,-1687,-500,851,-211,-42,-3022,3193,2982,-94,-1962,-1045,1947,6548,822,-783,194,-598,-1092,3328,-350,-855,-885,-1557,-358,2765,-565,-366,-422,-1804,2028,-224,-863,-607,-668,-2114,2193,-245,-400,-803,-2365,2330,-430,-610,-1850,1983,757,-645,-1739,-1479,2594,554,-154,-1904,-366,1998,-28,-134,-1222,1507,428,-606,-2150,1268,1432,34,-119,-27,-1127,-833,2499,149,-807,-1998,800,2368,138,-653,-2554,1657,2049,308,-2376,1188,1655,216,-622,-1880,1515,2249,-785,4939,2038,439,-14,141,-188,-329,585,-400,-1707,-273,2163,421,-1034,-2251,484,2092,-215,-1006,-2093,2776,314,-835,-92,-512,-908,169,35
2019-10-16,06:52:38.094,-223,-433,-1338,-703,1722,-373,-349,113,16,-977,82,558,-4,-198,-100,-121,93,-93,-1757,-788,399,1135,66,-406,-1374,829,615,-136,-20,37,-27,-59,133,104,-51,-493,-126,232,-188,-171,-151,-12,-260,-17,-336,-539,80,979,1539,1531,787,180,-5,-249,-155,-49,-296,-403,-115,-106,-202,-787,-75,-4,162,-683,-1403,622,-402,-186,33,-1708,-386,67,-474,-415,-234,-579,-1056,-170,-189,-259,-78,-177,123,-705,-1504,87,1111,-74,-743,-433,-746,1120,-69,-431,-283,-52,-111,-137,-2,-316,368,-657,-671,381,190,-64,-639,-1707,1665,-115,-2684,1221,1374,-372,-624,-2417,1124,881,-264,-1727,-1317,2111,667,1569,2397,1336
2019-10-16,06:52:39.094,117,-2103,648,1170,-9,-1782,-1730,2857,649,-279,-273,-225,354,-1124,-1792,1146,511,-543,-2637,-2040,2601,712,-508,-2145,-2836,2758,368,-2219,-979,2484,6,-672,-2709,-252,3093,-124,-1835,-1960,3769,286,-485,-538,-448,-1322,1623,548,-1396,-2568,3306,617,-523,-2656,1288,1953,66,-632,-2433,1896,1462,-250,-1017,-2693,1721,1966,-130,-1218,-1783,2323,815,-1833,-1581,3133,42,-501,-2011,2767,4578,2131,584,-1655,450,1069,-290,-394,-144,-577,-1454,-1898,984,2402,-55,-2126,-1400,2737,-361,-314,-74,-1287,-2464,2007,239,-978,-1054,-3391,3295,779,-595,-1443,-2841,3979,848,9,-1535,-3281,3785,1047,-96,-713,-2992,1974,1823,-64,-1112,-2217,3050,739,-948,-3226
2019-10-16,06:52:40.094,2856,956,-335,-486,25,114,-345,-1143,1271,647,-305,-576,1329,-2720,-1288,3517,525,-654,-3090,4151,947,-350,-493,-2183,24,2248,524,1662,1434,-589,4256,559,-78,-46,272,-3101,2361,523,-1853,-2695,3141,586,-720,-3599,1694,1827,-77,-3620,2357,1212,-529,-640,-1207,-2833,212,1696,-78,-381,-1880,-584,1934,46,-2691,-794,2791,987,-395,-2123,673,2226,-706,-1298,-285,794,1218,-314,-1198,-556,783,972,345,193,-11,-1011,-301,698,817,-1362,-162,1700,147,-1669,970,1438,-264,-366,-917,2015,437,-662,-923,1156,391,76,-1602,816,708,327,1584,2020,1601,992,-72,101,647,-977,-1432,862,1060,-396,-2156,1802,1087,-204,-471,-1583,1869,339
2019-10-16,06:52:41.094,-2759,1916,507,-184,-514,-2170,724,1300,-135,-1333,-1334,1696,851,-1721,346,1884,-496,-1835,1660,1573,-29,-594,-1108,1914,335,-88,-2249,2271,1076,-276,-1976,2237,411,196,-68,-673,417,1084,144,-2036,-589,2292,429,2,-690,-1030,-73,1722,1202,108,-1751,-127,2211,-1423,-920,1706,1415,-101,-2916,857,2532,1296,1057,1203,4278,837,-488,-336,-1912,61,2048,-1863,-1356,3021,468,-804,-3243,168,3417,-63,-330,-3015,263,2300,-426,-1092,-3361,1814,1520,-504,-606,-564,-275,-945,1154,-98,-245,258,-347,-1500,2933,-199,-530,-2303,840,719,-1036,2477,771,-68,-1180,-2858,4165,185,-1061,-617,-1985,2673,1964,-786,-1546,-1331,1778,2267,-132,-1265,-2521,1645
2019-10-16,06:52:42.094,2531,-602,-944,-2122,-1333,3343,-689,-1348,-1337,-2223,1093,2819,-616,-1309,-2498,-483,6333,2648,882,-1513,-2252,2283,2141,-373,-1529,-3468,3513,601,-853,-2382,-2209,1433,2513,-954,-1840,-2273,117,3140,-1025,-2251,-2555,803,2278,-868,-1708,-2570,-1604,3844,714,-1258,-1611,-536,-637,4204,-1079,-1110,-2662,2109,407,397,-283,-702,-1242,604,772,-2,-564,-1000,-104,2080,484,-1651,-1866,1227,2530,-446,-725,-764,-1351,3595,787,-515,-175,61,-236,-927,-32,1445,81,-283,-252,-1547,2132,471,-350,-2263,3343,1456,-843,1831,-413,4508,2840,-991,-480,-1374,-111,1557,-91,-805,3653,-808,-867,-678,-2553,2187,1083,-322,-367,140,46,-2732,523,1678,-124,-944,-1441,935
2019-10-16,06:52:43.094,341,-1215,-1089,1376,749,-1088,771,1142,-115,226,-311,-1111,1822,42,5,126,-212,543,-1233,1473,18,371,22,-438,1067,154,-1134,-1122,2520,505,-1158,-578,1899,-31,13,-1405,1670,968,-160,-166,216,-34,-108,909,576,-323,-6,305,173,107,-1031,-492,1136,888,1084,765,2856,1177,141,-2117,1796,278,-332,-126,332,434,-1580,-582,2070,325,-344,-2421,1735,910,-362,-2106,-786,1709,-149,-36,-2109,-493,1639,-203,-115,-823,-1419,1693,-470,-832,-1445,2371,429,-90,-1568,-1427,3071,879,-318,-1665,-1665,3218,124,-431,-2357,574,2070,-320,-963,-1554,349,1674,-316,109,623,-126,-11,-495,147,254,-803,-866,2340,-409,-621,-1093,-1602,2886
2019-10-16,06:52:44.094,-29,34,-51,-2266,1859,150,-330,531,2434,1451,-377,3420,806,-144,-1911,-1142,2705,136,17,283,-1086,-1353,1132,-98,-3244,2719,605,-1129,-404,-2055,355,1515,-961,-1084,-563,-557,-168,403,-277,-212,-35,-185,-1540,-1329,2523,413,-166,-1752,1440,813,-817,-825,-203,-253,1431,674,35,-321,-2447,3050,484,-396,-292,-795,-1051,2309,-428,127,-1887,484,2440,-484,241,83,211,49,302,-685,-2074,2403,391,-52,-224,-504,-707,1521,264,-368,-2519,2847,1982,2893,804,-1063,2571,1121,106,-503,-1334,648,809,-558,-1979,83,1466,213,13,-100,103,-321,-220,-2192,-1794,2937,-362,-661,-1682,-2369,3228,64,-613,-679,-2803,3465,406,-566,-148,-144
2019-10-16,06:52:45.094,-265,-1340,1810,212,-368,364,207,-87,231,-632,-2160,1862,794,-240,-1051,281,1812,-403,-848,-1300,2424,-411,-588,4,40,-704,922,442,-766,-990,-153,1429,596,-193,-931,867,444,-170,-401,-750,366,5,48,288,778,2545,1900,1002,-880,-567,675,309,-158,-159,-67,31,36,-132,-1543,-406,784,-12,46,-395,-1119,1146,70,-225,-1916,-859,863,-129,-422,-1220,-565,784,169,-818,-734,578,-99,-104,210,427,-37,-1156,208,642,80,-41,-580,-142,429,-115,172,104,227,-985,-24,496,198,48,142,-268,-235,816,-80,-1479,1096,223,149,97,-1311,1167,368,119,-19,-760,746,64,-578,-3,-79,-134,687,1465,1631,1195
2019-10-16,06:52:46.094,-986,-13,1108,611,56,-658,270,-54,-295,-205,-26,23,330,-519,-882,1152,-129,-601,10,-1740,816,-421,-820,-92,-963,242,-217,-1664,401,-273,-460,-20,159,-604,231,225,-205,228,115,-123,76,31,196,-1264,-684,1659,377,0,71,-559,-742,1401,668,-67,-1288,1153,-416,-245,-308,-340,51,172,14,-64,26,-9,183,-26,21,-533,-743,561,212,-228,-168,157,647,301,1347,1766,1315,563,37,247,-262,107,-196,-107,-12,-186,253,-224,-355,-197,-194,-287,-191,-292,-313,111,-607,-1785,600,-397,-521,-418,-465,-525,-365,-328,-199,-94,-162,-128,-68,-8,269,-1282,1355,-96,66,-272,-15,-38,434,7,-441,-1
2019-10-16,06:52:47.094,534,343,12,-838,-480,243,701,-1158,-295,360,-129,-118,32,-96,-1037,-179,385,181,271,-284,-1438,1248,635,-264,-342,-61,-175,604,-144,-650,-486,134,1143,2001,1806,1465,101,-86,-256,-258,-1481,-345,1830,-552,-670,-126,263,-303,-403,-331,-203,-341,-313,-1704,-360,873,-278,-512,-291,-588,-1709,332,-75,-205,-51,-1125,-994,956,226,-85,39,-87,-57,-136,-1205,526,535,-216,-225,-1766,1857,577,-142,-20,-97,-1795,283,1189,224,-329,-866,-1332,2074,55,-148,664,-49,-1040,-973,740,1024,-182,-768,-1375,1025,162,-1310,-1079,2375,94,37,-261,93,-684,170,22,461,-258,3770,2757,480,-98,-587,-2216,2102,1298,-124,-625
2019-10-16,06:52:48.094,-210,-1584,-410,1017,194,243,532,-1294,-904,513,-345,-353,-1332,-964,1214,-283,-426,-480,-2178,-982,2027,95,35,-1611,-458,2421,124,-276,-79,-1904,-360,1821,28,188,-450,199,-1309,-6,1156,-143,-135,-1762,1591,1060,-355,-206,680,317,-921,-14,-944,-1063,1872,102,-1338,-51,1803,-186,-231,-81,124,-2120,1441,260,448,-449,317,230,-95,-23,-180,-1905,761,1012,523,1810,2273,1438,-99,725,-161,-1795,1996,6,-273,68,-1815,-732,1693,-178,-946,-1789,1506,-182,-6,-604,-3122,1478,744,-498,-820,-2592,1689,15,-562,-445,-2118,763,742,-971,-1970,-155,2170,280,-402,-2465,1385,1738,63,-394,-845,-2180,1572,1424,-176,-51,69,-754
2019-10-16,06:52:49.094,500,422,41,-1174,-659,1547,-1414,-1009,2469,107,-149,-2481,2617,231,-982,-1204,538,1035,-118,-388,-948,2218,7,-214,-667,-349,2563,-712,-135,-315,-674,47,999,1198,1284,1398,711,-890,701,462,-98,-1623,1944,-91,-416,-216,-941,963,-434,4,908,-414,-315,-1498,480,206,-181,-1650,523,274,-279,-2183,1689,-238,-231,-799,526,-617,-364,1085,632,-362,-427,-409,817,-397,-1034,1453,592,-169,-212,34,-427,-1582,-19,2234,276,-1179,-1140,2685,174,-1088,-700,2037,-45,-749,-1147,2337,112,-1496,435,1491,-183,-833,-169,437,821,113,-2571,1573,1413,-152,-2094,1649,751,133,-1698,4679,2285,-45,-2020,3325,386,-644,-2135,3026,-285,-869
2019-10-16,06:52:50.094,200,104,117,-215,-316,-490,-1550,815,463,-514,-1586,-53,1238,-740,-1786,1714,107,-1047,61,-1163,-1013,112,1017,-15,192,-662,-41,-556,1143,382,-139,-64,-887,718,1622,-469,-1706,1037,1796,-1239,-1798,1977,792,-852,-660,-1659,1163,878,-521,-63,-156,464,116,-682,-72,63,-1405,3656,-194,-1070,-947,-488,3365,-1059,-1130,854,768,93,-589,-421,201,1064,-209,5169,897,-666,-53,113,-109,644,-40,42,1144,-677,-429,-1185,399,1475,-1348,-410,711,-7,-204,-3325,1996,-518,-1102,-834,190,-65,-274,-972,-1711,1142,368,-276,-228,-229,-565,-1943,609,2236,265,-320,-2851,1568,1761,-233,-775,209,-2553,2888,373,-651,300,-2639,1383,1711
2019-10-16,06:52:51.094,-93,-229,-224,-126,469,-1365,-970,2186,-169,-492,-1840,-194,2667,84,-349,296,-1160,-193,1670,-140,-2602,1330,1640,-456,-1093,-2422,3988,4047,1790,45,-2781,949,2669,-420,-334,122,-2132,317,1614,-786,-2706,273,1758,9,-1558,-2445,3210,322,-422,-67,-412,-1502,629,-137,-887,-654,-314,-476,113,-1949,-969,2591,-201,-389,-17,-998,490,1237,96,55,132,-894,105,-14,346,-107,-81,-1372,-968,2031,329,-139,-1825,2006,431,-809,-723,1228,-119,-529,-416,887,-188,-103,128,-1493,-562,1303,703,-263,-1066,1635,293,-97,-292,-7,-67,-339,1702,2248,1369,163,-699,1265,39,258,-1478,1270,202,-91,-60,-728,-235,645,-867,-1562,1342,215
2019-10-16,06:52:52.094,-109,-2108,1385,226,-506,-1724,-158,921,-378,-211,-213,92,-1489,-397,1012,51,-227,511,-1839,1423,8,-1731,1136,580,-141,23,-376,-638,1115,40,-1313,-1347,1929,314,-348,-441,381,819,-227,-1755,1184,333,-161,-1637,1435,585,-40,-1482,-1854,1492,1389,-6,24,-1838,1693,435,-51,-2010,1600,-31,378,2016,695,572,2163,295,-586,-1597,1180,883,-613,96,95,-111,-233,-69,-241,-1473,1042,271,-468,-523,-773,-1327,1080,-552,-318,-111,-830,-607,-1911,-865,1178,-386,-22,-554,-2113,2366,-132,-783,-81,-1925,2148,-216,-693,-151,-2251,2517,523,-676,267,284,-1749,670,675,-502,-893,1409,57,-41,-138,69,-654,440,-2338,1388,1207,-304
2019-10-16,06:52:53.094,360,317,68,-1686,1148,-135,-324,-1349,1977,242,-15,-198,-210,503,1170,2478,1733,-22,-1166,1924,359,-383,217,-2066,631,999,269,202,-1043,-2182,1868,207,-411,-190,-1632,4,379,-446,-346,-638,-1660,710,11,-468,-1944,-34,287,1133,-1582,-1727,1625,1072,-766,-9,1009,-3052,427,1359,157,-806,-2342,2796,322,-113,-222,131,-2799,2027,443,-191,-300,-2793,2621,462,-215,-219,-153,-115,-245,-2464,1081,1113,-18,-368,-550,-1164,1082,-32,-2160,1268,517,-210,165,218,-1788,680,2828,2207,1491,-963,931,803,-231,-765,-1560,1385,216,-99,-2537,1752,551,-276,-1638,-1914,1652,195,-1401,-1710,1983,-380,-992,-1134,-1948,920,290,-311,-406,-659
2019-10-16,06:52:54.094,-82,-109,-683,-1173,274,1153,263,-339,-2009,1945,459,-329,-2317,2201,827,-2288,231,1922,125,-89,215,207,-2732,1978,1617,153,-462,-832,1043,-129,-2269,2975,-15,-56,-1663,941,1056,-287,-459,136,296,279,168,34,-405,-1775,1830,-95,-64,1269,1903,1615,846,419,-16,27,-371,-800,974,8,51,-102,-192,-72,-1279,-161,772,-445,-2211,1840,-226,-391,-85,-1216,109,72,-341,-1920,1246,-258,-382,-2489,1812,836,-74,-1240,178,1131,-280,-1634,946,946,-17,-192,-101,102,-124,205,-86,688,378,-98,-111,72,-2084,2170,-410,-320,-41,-2104,2332,79,-718,-218,658,-176,323,217,60,-1325,890,495,-132,-476,-45,949,-791,-1578
2019-10-16,06:52:55.094,2143,1247,1383,1464,94,16,1070,-130,-1418,-965,1506,-702,-276,-519,1149,-110,-67,-24,-44,-629,-1782,1716,-143,-1463,-1037,72,548,-424,190,-297,-228,-1069,-1068,758,57,-628,-136,485,73,-735,-674,830,420,265,-244,-70,13,58,0,-1367,-193,739,-752,36,301,316,312,27,-940,111,925,-248,191,-548,-313,-222,201,28,157,296,138,-1042,-601,929,471,-467,-577,-386,15,1163,944,1673,1880,1193,314,-135,-222,-98,92,142,-809,146,-98,-204,-100,-325,-1086,621,-245,-413,0,-140,-624,-649,-393,-111,-636,-1128,139,-125,-424,-828,-397,332,-111,-1176,-595,1110,-285,4,778,-1479,676,502,249,131,142,34
2019-10-16,06:52:56.094,241,89,-19,-403,-468,1166,538,155,124,555,-556,691,563,-190,414,739,87,-1577,1193,991,70,112,-474,-1336,1328,615,273,260,-834,1328,731,312,499,1852,2926,361,370,813,-1043,817,1330,-45,-391,-434,312,-401,-1141,1544,-385,-421,-1194,-533,1601,-22,-255,-2140,1796,-935,1,24,-1748,-396,1082,-244,-2589,2122,370,94,17,-1891,2144,682,-56,39,-2367,2879,-6,-261,56,-254,309,-53,46,25,-169,-102,178,26,165,92,62,440,309,-1801,1643,726,-177,283,287,-104,-63,-252,-194,26,610,-448,74,212,-58,-99,12,-390,1892,2568,1065,705,-261,-857,1212,89,-362,-68,272,-48,-2197,834,681,-200
2019-10-16,06:52:57.094,-402,-54,149,-1447,-36,431,-408,-265,-141,-329,-437,-373,-441,-196,-267,-555,-12,-238,58,-311,-532,1043,359,-312,260,-24,-7,-120,-10,-21,99,-18,-174,53,-54,207,-905,-268,458,410,-146,-67,-43,21,-222,-173,-56,285,-152,156,196,55,-281,279,71,88,-469,-764,578,208,-578,31,921,1786,1580,1124,612,440,-681,-270,333,38,-194,-106,19,-167,-387,307,-50,-261,-69,3,-123,-880,-579,7,-155,-340,-342,-129,-649,-315,-336,-451,-31,-199,-575,-78,-107,-25,39,112,140,-120,-1672,726,735,-84,-61,-8,-34,194,-70,-308,69,-113,77,-240,-119,314,-104,266,-87,-391,172,-185,-114,307
2019-10-16,06:52:58.094,-3,333,0,-58,-169,-247,301,-373,0,-55,-37,-189,164,836,1868,2227,1463,466,27,53,50,-234,-315,-65,-176,-297,12,-687,-963,534,-39,-395,-266,256,381,-43,-775,-301,-318,-1245,-490,446,-339,-118,-497,-324,-202,-63,57,-18,194,64,-223,61,-63,55,-434,-123,-760,-887,1214,134,82,136,-153,-35,155,25,-121,-32,47,3,-87,86,279,231,-278,-23,212,214,-1478,959,1148,-351,-200,135,373,-185,54,720,-116,-310,-2048,1677,1778,2299,2182,1391,461,-268,465,379,-36,-182,-224,-31,-1,81,-178,214,-336,-1003,514,454,-383,-827,-462,499,-134,-467,16,-1948,776,-529,-513,374,-23,-252
2019-10-16,06:52:59.094,130,-177,-144,-82,-1052,-483,1055,-25,15,354,-984,-343,1047,-149,76,60,274,-126,70,262,-180,-15,130,42,53,-935,-1006,1209,202,-1214,-3,985,71,114,-73,-74,-22,212,-137,167,65,23,-29,-34,-207,-49,744,1374,1735,1416,619,282,71,25,17,-207,-97,-80,-27,-27,64,-225,-185,14,-163,91,-206,-187,-304,-207,-335,-232,-538,-289,-263,-366,-250,-346,-227,-141,-140,13,-41,-98,-105,74,-106,82,-117,151,-101,124,-105,-13,79,255,-1818,1519,-75,-25,118,-157,-123,177,-633,-488,1190,-408,-56,190,96,-172,-200,189,210,-404,34,398,-23,-263,100,-78,256,102,-407,-171,697,1287
2019-10-16,06:53:00.094,1640,1187,697,264,-31,-27,-145,-16,-13,-284,-155,5,-38,-201,162,-93,-324,-1110,260,181,-422,-225,-255,-148,-500,-256,-393,-954,-1125,-37,482,51,-61,-829,-835,1541,-219,-412,35,4,112,-113,-130,-307,112,0,-23,106,58,-68,-190,479,-52,265,-27,-485,-160,307,170,-387,301,76,-357,206,90,-576,-70,-464,511,-1228,1093,219,396,-510,-951,-157,811,-1349,537,2234,1590,1413,951,99,-792,1169,406,-222,-324,-934,1086,-186,39,121,-1068,-306,381,-566,192,-851,-308,643,-826,-1412,-833,1073,-408,-278,-157,-2919,1018,-111,-1247,-1696,271,692,-408,281,1404,165,-793,-1283,1923,-438,-433,-368,7,-172
2019-10-16,06:53:01.094,57,815,362,-1996,2405,79,-1127,-144,493,1220,-139,-645,43,2056,253,-758,-2620,3309,-106,-784,438,444,-65,-1560,-111,474,-2069,-23,3763,817,-1494,-1244,1327,1120,237,2925,719,465,1288,1000,539,-192,-457,651,303,-39,-220,-644,-1098,-675,42,1555,-402,-477,-1612,245,1024,-1049,-1820,-779,1664,-222,-1890,429,524,637,-726,-95,-1909,-742,-3,456,1396,292,-25,273,-574,-265,-891,471,538,-144,319,374,-434,-70,-213,-143,27,-141,-262,-42,-315,81,-711,-420,1297,112,-966,74,405,317,82,-1017,237,256,-628,-335,-62,13,-115,176,174,-253,-123,563,1678,1066,1794,897,-704,-857,680,902,115,-973,-1275,-929
2019-10-16,06:53:02.094,960,137,-570,-109,234,67,-119,-633,-186,226,-362,-637,-557,-66,-140,63,337,-505,-737,-3,-683,-639,-38,395,679,-288,-239,-431,-70,231,61,-495,502,-341,-136,106,613,-314,-18,176,-313,-100,381,248,-353,238,-235,97,-90,-95,315,45,-327,-132,254,122,-2,224,122,433,620,205,-827,-221,150,-254,-165,151,-22,477,1767,2274,2076,1131,-1177,190,-38,-407,-780,314,960,229,-487,-225,-379,288,791,130,-1500,-625,285,915,-546,-1298,-1349,21,146,-880,-585,40,-570,318,310,-415,-907,-694,577,1193,-716,11,544,-90,-87,-75,179,45,534,-73,-439,92,156,122,43,276,120,39,238,-1345
2019-10-16,06:53:03.094,120,1636,243,-529,-16,435,-228,-923,-35,530,378,-389,-696,466,1772,253,-521,-618,-87,46,-695,617,56,720,1342,1215,1404,1509,444,350,500,-52,-534,-187,199,-141,6,16,-91,-194,213,-320,-205,-182,303,45,-252,-158,-782,-97,-37,-669,-575,-608,-71,-760,-656,-83,-80,-303,183,-768,869,289,-110,-56,213,-49,-187,-467,293,693,294,-550,-321,462,101,-6,-86,16,47,38,58,-144,369,-116,-297,-24,601,-162,-306,-192,-638,386,464,276,-234,247,-675,-205,1373,107,-306,-643,-641,859,216,1768,2571,556,238,1046,491,-103,339,-186,651,0,-321,-338,-766,7,383,123,-488,-651,-728,616
2019-10-16,06:53:04.094,261,-674,184,-346,-1910,-998,-65,111,-78,-875,-1926,434,321,357,30,-1071,545,961,-652,-56,-4,281,-664,510,-109,-30,-1132,64,1332,-53,-85,343,-688,747,-733,-2146,461,2569,454,-746,-281,-1115,725,779,705,-354,-436,-354,92,-559,882,479,222,223,320,279,-470,-523,-232,-410,-439,-370,2192,2607,1665,1063,639,152,-134,-190,101,-73,-186,-879,699,-202,-1221,-1449,-433,686,-90,-431,-815,-380,-216,-4,697,-399,-426,-692,-649,-77,-22,-628,-496,-206,-94,61,-147,-56,514,-386,-104,44,40,66,-123,-123,43,128,-175,-17,-47,-10,-66,-133,158,-206,-94,19,-98,-90,-16,2,-121,-6,148,-70
2019-10-16,06:53:05.094,96,-8,134,-182,35,93,-88,230,30,98,24,65,-75,-126,-329,727,1390,2100,856,488,100,54,-26,-203,79,52,-426,-4,48,-63,-435,22,-173,-173,-64,-129,-2,-299,-168,-227,-308,205,-862,-420,-321,86,-138,-989,-761,592,-93,-178,5,85,-159,-143,-31,269,-127,202,89,-17,-3,146,376,-322,-16,145,-82,-76,-6,-19,-214,-33,316,-19,-11,151,-25,25,190,53,-19,-275,-259,332,-128,169,-43,6,-133,-76,169,-286,-298,159,990,1353,1677,1736,827,-205,-721,-877,672,-496,-620,29,635,-125,39,41,-350,-554,-75,353,-278,-306,-397,-144,-568,-822,-464,-1234,888,-58,-713,-530
2019-10-16,06:53:06.094,-224,-299,509,616,-30,-695,-1439,941,991,63,-156,99,-157,97,-289,167,484,-1429,-48,872,-281,-39,-69,-877,67,391,41,166,-1178,689,-144,-1558,235,1743,-391,-321,33,294,282,0,47,198,17,-60,-132,-1,-84,243,213,1523,2210,1925,951,148,-210,-25,263,114,-48,-502,-617,-206,442,-40,-308,-374,-329,-126,-12,-279,-817,-935,-186,-394,156,242,-1211,-2339,2208,105,-610,-154,-889,-1532,1691,583,-173,-1072,-583,767,701,-2003,-135,2800,343,-550,-441,-447,-2218,-356,2143,781,-743,-549,-958,517,759,-192,-143,58,-684,999,-59,-420,-767,24,1881,49,-144,59,-352,135,356,207,551,-350,44,-326
2019-10-16,06:53:07.094,-264,1717,2093,1812,1046,87,-272,801,-107,-492,-731,-976,685,413,-245,139,12,-248,-301,-106,-420,-57,-347,-444,-616,-534,-54,-480,-202,-125,-1568,-265,280,-100,-105,-236,20,-124,-218,73,55,-70,-26,-96,-345,66,-275,15,-48,-139,-271,130,222,317,-270,58,-13,282,-194,-176,-62,-325,-84,137,-101,108,337,-396,96,257,-2,-47,272,-107,3,230,-42,-293,64,198,1038,1852,1415,1061,346,245,20,76,-48,-427,132,-303,-272,24,-260,107,-361,-191,44,249,-138,-721,269,-325,-241,-58,-380,-412,-530,-146,-69,0,-338,121,85,-214,-100,407,109,253,-196,-417,35,-406,214,37,110,-22
2019-10-16,06:53:08.094,-127,-237,331,-147,-122,303,104,-218,330,319,156,-50,-12,-176,-187,21,-465,-156,86,323,-233,83,88,69,361,107,116,-148,-780,-406,1812,1901,1411,1210,72,440,884,-674,-180,-955,-500,1689,-56,-748,-1029,-1537,1851,579,-893,-572,-830,-857,228,278,-815,-315,-665,-802,111,-293,-634,-261,-16,-333,-347,-420,-78,297,61,-36,273,105,-161,-217,-88,179,-421,-276,162,-597,-524,1132,152,-51,-99,-703,-1047,2062,908,-395,-415,-1435,783,946,-294,-365,-804,-862,1144,808,-344,4,-191,-1228,1714,330,192,-327,-1727,984,4013,2845,1174,-137,-1236,1597,680,-136,-446,-1250,31,1075,-184,-146,-1022,-2127,1994,163
2019-10-16,06:53:09.094,-1264,-865,-1680,739,1289,-771,-1200,-1016,-951,1166,821,-817,-1050,-1505,1730,253,-1226,-1062,-969,464,1672,-401,-1200,602,915,-384,-329,-897,-661,774,714,-122,-797,-161,-431,723,1027,-715,-854,-851,317,2085,-148,-777,-435,-290,-418,1831,801,-1255,-1076,341,1333,-289,-894,-793,-101,960,529,-1217,-25,2232,2974,2710,480,-385,-883,-84,510,221,-504,-1187,-540,297,1414,-280,-1174,-118,467,107,302,-309,-1160,-107,417,325,-264,-1893,-1042,-233,4,-800,-975,-702,-559,713,432,-232,-582,899,-160,-339,-283,-362,1851,949,-680,-565,-840,-1835,646,1114,-297,4,-48,-454,-629,2117,-28,-341,-239,-642,-526,-635,441,118,18,21
2019-10-16,06:53:10.094,445,-512,-100,-213,-267,1239,226,-1161,-52,27,-95,-409,876,1380,1299,1342,791,-104,11,0,-459,-429,18,287,-380,11,253,-14,-1,753,-268,-36,-371,-804,-50,-354,476,-675,-409,-536,-344,-241,-182,-140,-418,62,769,877,417,-881,-490,-493,-48,410,-130,-339,287,46,3,-78,-7,387,-67,3,-284,-113,1243,157,-448,145,-31,-55,1776,-284,-250,850,450,1605,-373,-237,-335,-542,-235,-573,1075,33,-144,48,232,452,349,167,1087,881,2541,836,543,508,214,16,-143,174,108,-134,416,305,222,340,-996,1015,-262,-263,183,373,-387,245,91,-470,447,17,-402,-415,176,-1120,1259,360,-209,-212
2019-10-16,06:53:11.094,-1101,1403,299,-524,548,-280,-970,528,1026,-51,-100,-207,-111,-617,514,784,-737,98,281,-274,306,-40,186,-937,534,483,222,113,188,-171,-1021,240,1318,369,-9,-708,399,-249,96,502,310,-655,-578,452,863,2170,1642,1252,152,-339,1459,95,-552,430,-641,882,-59,-241,-303,-260,207,214,-606,-607,-517,-147,1054,-474,-848,-437,-360,500,-444,-351,-535,-1304,1091,821,31,-220,-1660,757,2286,165,-518,-1752,636,1592,-595,-173,-254,-1160,1194,914,-191,-276,-100,-669,1190,389,-667,1055,578,137,-701,-1555,2044,817,-229,-844,-1194,1650,978,-81,-575,-1144,542,1826,161,63,-877,-1086,2140,121,-732,-686,410,3988
2019-10-16,06:53:12.094,2949,664,-58,-508,-974,802,716,-376,-1112,-1156,1186,591,-742,-754,-1393,1324,460,-343,-893,-778,-1498,1685,-190,-908,-775,-1154,-1454,1389,34,-398,-436,-1457,-750,1707,-120,34,-408,-844,-1744,2098,266,-34,-741,-430,-1323,797,995,-42,-418,-1598,681,1435,-192,-288,-570,-1799,2689,213,90,-508,-1313,-633,2018,166,-220,-162,9,-530,-1101,974,213,-39,-638,-1772,768,1477,-126,-189,-402,-2217,2610,2308,2026,1634,854,230,-1607,155,1154,103,-177,-844,-1541,1128,996,-310,-278,-674,-1148,66,648,-171,-658,-2209,1572,428,-420,-611,-725,-2118,1788,319,-722,-674,-1290,-466,1346,79,128,-594,-1453,561,647,75,-355,-35,-1405,1750
2019-10-16,06:53:13.094,667,31,-42,-6,-399,-384,826,334,434,-145,-292,506,861,-116,-290,1130,165,1116,216,-1096,611,473,-634,290,-82,395,526,-201,-117,-290,752,683,-341,-70,274,1269,2151,1346,1384,820,24,-534,-185,246,-156,-104,196,317,-134,264,626,-585,167,-115,155,-327,-358,-33,-87,-190,133,-116,-447,-358,-192,-409,-114,-339,220,-482,-104,163,135,-647,851,112,-66,-302,-55,-415,352,259,88,636,12,-283,-785,-362,512,864,-210,-784,785,-858,52,1019,-713,-388,170,-1378,713,605,-188,-219,-291,68,-412,-843,997,-692,-286,278,-268,-488,-38,141,552,1644,1279,804,1831,286,-635,-541,-963,405,673,-52
2019-10-16,06:53:14.094,-252,-129,-498,-923,-130,223,-113,-329,-330,63,-417,-215,-509,72,566,-660,-280,-288,-828,-942,345,574,-432,-132,-175,-212,-22,519,370,-878,-328,52,-67,-668,305,808,229,-1056,58,1600,-72,-238,-227,-942,-575,1539,72,-50,115,78,-1232,-660,1822,434,-47,-37,90,-1743,874,681,142,-97,-80,-785,-726,779,459,-341,-578,714,3539,2302,1012,-1066,187,1552,-342,-255,-240,-2059,928,1156,-288,-214,-624,-1800,514,854,-379,-379,-881,-1481,-66,919,-442,-804,-1965,1057,226,-500,-421,-1758,492,740,-62,-285,-87,-1290,512,936,-251,-319,-687,-1212,1728,181,-598,-1226,254,1390,7,-861,-909,-410,1704,182,-449,-1886
2019-10-16,06:53:15.094,2088,663,94,-332,-1476,1007,1132,-366,-1305,-973,-34,1935,466,-748,-1846,2744,170,-304,-266,-2385,1839,1398,1396,1948,1650,695,-1408,1385,703,-149,-425,-1993,1284,936,-476,-317,9,-104,-1519,-833,1782,25,-365,-729,-1195,-1243,868,187,-355,-702,-1246,-1007,-264,80,-508,-244,143,1043,-133,-926,-383,1726,310,-405,-457,-1218,1890,503,-88,-532,-1516,1987,268,-502,-877,-638,400,68,259,-603,-227,147,284,277,-48,-34,690,50,-298,-474,135,549,242,115,-436,298,1337,-494,302,-367,-671,173,1613,1967,1045,564,590,-20,63,-393,215,1103,209,16,-326,-688,96,614,-307,225,-138,-1296,754,-54,-332,-307,-427,-477
2019-10-16,06:53:16.094,-73,-289,-220,-135,-34,-191,-102,2,-85,46,117,120,201,147,-193,529,118,211,115,-595,1039,248,-170,317,116,257,-780,720,303,191,98,157,-70,-406,886,15,152,161,-883,669,886,164,-240,-71,-377,185,-857,1002,621,318,-246,-442,-154,1138,1317,1222,2137,1209,-1164,53,1054,473,-106,-1386,-468,1638,58,-628,-1500,1031,1021,30,-1299,-1180,1397,192,-410,-2153,226,975,-2,-381,-2442,641,805,-231,-70,-1852,383,1470,-417,-186,-1555,914,1017,-683,-1924,941,1800,-625,-875,-665,2143,993,-783,-1858,866,886,-430,-1324,439,702,-729,-84,-413,315,407,514,13,-1012,-1060,1868,575,-498,-1102,-750,1278,737
2019-10-16,06:53:17.094,-86,-1148,-1067,683,711,2016,1950,324,1142,828,474,-562,-1143,81,886,189,-39,-1704,55,1587,-73,-963,-1455,219,1338,-243,-1261,-1708,543,1117,-316,-1876,-1435,1035,595,-320,-617,-2032,367,1329,-24,-27,-970,-1258,461,1156,398,94,-1136,-1264,532,1370,680,-345,-1810,-611,935,1105,462,-1273,-925,1589,820,-19,-464,-1998,790,1410,-116,194,-1675,-10,1927,-28,-135,48,-2169,1269,1451,-1065,-126,181,-701,-931,2171,2088,2052,1358,674,-73,-813,997,529,-392,-416,-412,-409,-875,315,896,-67,-465,-295,-383,-768,59,975,-253,-534,250,-1074,-1227,-341,-72,-299,-694,-1650,632,788,15,13,-26,-854,-893,643,483,32,-285
2019-10-16,06:53:18.094,-231,-266,-263,1153,496,-61,-1323,960,919,-8,-54,100,-632,-897,1230,303,-1020,-1440,1775,794,-105,-437,-1395,-517,1479,875,261,265,-755,-433,1796,-301,-852,-1355,-639,2229,676,1119,1169,1384,1301,806,568,-49,-119,-420,-929,-783,1122,562,-284,-1077,-1176,2209,521,1,-438,-447,-1770,-494,1463,-55,-641,-856,-1124,-1781,686,744,-591,-747,-568,-1141,-95,1148,102,59,-90,-629,-1204,567,1613,23,-231,162,-341,-1072,-291,85,-115,186,-61,-97,-40,-64,-27,-134,-51,-122,-139,-166,50,75,-556,-221,-276,306,281,130,361,-121,-627,-267,85,424,286,-666,-369,1284,2603,2209,11,-407,166,1206,-318,-704,-206,308
2019-10-16,06:53:19.094,-548,-88,-271,-7,277,-675,228,-262,-762,523,-509,-374,-130,-257,498,833,-1071,-577,-739,-476,830,-928,-440,-251,199,761,810,-1185,-222,-271,-129,578,370,-648,-313,30,-98,388,-406,861,61,-549,-27,-36,-742,-20,383,-206,150,193,-504,-42,-6,-72,119,34,10,-228,158,-232,351,-279,-227,64,216,-86,-48,-507,435,1563,2057,1452,356,-322,179,-481,-256,2,179,-839,-322,194,381,-479,-503,24,-212,-245,40,-682,34,-557,341,-522,-611,-87,-128,-686,-725,-147,-429,-198,154,-746,186,261,-155,-97,85,-378,324,713,-1001,-147,-1,344,-343,-420,68,344,355,-401,-623,-77,179,250,-293,-463
2019-10-16,06:53:20.094,118,221,233,200,-742,-57,332,219,-26,-591,-312,346,492,438,-839,-330,-7,68,316,484,1782,1959,2045,321,230,-314,-243,228,195,-335,43,-204,-52,273,-427,-506,-40,316,-672,181,-132,-1059,-487,318,-90,-464,-1080,-1035,-150,130,19,-514,-644,-554,873,-98,-399,19,53,-620,57,-4,-255,-107,0,-74,107,657,-20,-1046,95,865,353,15,-93,-348,-636,358,411,-126,13,-365,-348,438,207,89,-169,-82,-251,-136,302,397,282,-231,-607,-40,297,136,820,1902,2052,1522,837,227,-25,12,-122,81,-110,-146,106,-296,-428,-152,23,-100,-16,-250,-238,-10,-129,-377,-836,134,-329,-393,-545,-386
2019-10-16,06:53:21.094,-348,-397,-142,-223,-381,-11,23,-32,291,2,-108,133,-149,-401,-172,-122,451,67,18,-571,-918,-312,773,700,527,124,148,-105,-654,1081,714,61,-154,-351,27,-479,-921,285,804,60,-319,167,-27,-2038,-328,1203,301,-85,217,1745,2120,2024,1028,536,223,446,173,-45,-249,-275,-242,10,-412,-482,-643,179,914,179,-84,-128,-138,-557,-559,-279,39,-176,39,-215,-522,-329,-348,-148,-192,13,93,52,-27,122,-16,-220,-889,218,572,-57,185,-263,-83,-74,-29,-454,-74,-186,149,-408,16,75,91,36,188,-341,-173,-152,0,80,419,-146,-179,-182,-45,122,-83,-122,147,-285,-435,-409,303,726
2019-10-16,06:53:22.094,1491,1285,1387,329,379,217,-39,49,-99,14,-132,-213,-53,-97,-87,-249,93,-414,-402,144,-583,-230,-122,-111,-330,-233,-74,-316,-226,-276,-618,-305,-556,-15,-534,50,-374,30,-122,5,-19,203,37,-300,-30,74,-92,-308,238,336,10,124,-240,500,124,-96,-95,-90,-240,-58,82,260,14,75,-78,24,-25,-121,-230,111,310,24,-206,-64,-267,-216,409,1108,1950,1642,436,5,-3,86,-87,216,78,-45,-42,-284,-243,-10,-33,-203,-287,-131,253,-22,-154,-96,-102,-231,-320,-374,-217,-149,-460,-495,-492,106,325,-150,183,-173,-182,269,487,96,-160,-465,-118,490,422,190,-234,3,598,-12
2019-10-16,06:53:23.094,-48,198,199,77,42,-234,-114,67,517,-147,-455,168,-122,14,345,289,134,-218,-291,413,482,267,-164,-496,-25,1304,2913,2434,634,393,981,732,-357,-511,-231,-432,-446,964,489,-60,-117,-868,-1794,567,1027,1078,-66,-637,-1111,-539,1541,-31,-543,-424,-1117,-2303,513,1592,-265,-39,421,-105,-1116,-913,564,1706,441,207,-1129,-2250,79,1200,520,391,548,-412,-950,302,1104,-251,-351,-364,209,144,926,981,691,344,-843,-1095,749,1450,789,54,-1330,-1590,110,913,971,-11,80,388,882,2206,3102,1915,157,382,-271,-1870,320,1825,1588,-215,-1088,-1121,-1953,1814,1605,310,-68,-550,-759,-1593,-1568,-39,872,623
2019-10-16,06:53:24.094,-325,-135,28,-103,-1605,-160,1713,513,-297,127,-1321,-881,2102,446,-500,-365,-545,-1902,-328,955,775,100,122,-287,-1423,150,1764,602,-105,14,-36,-1110,-742,1110,-137,297,130,-67,264,-1025,615,504,39,462,95,-774,-679,245,169,146,1279,2255,1848,1014,-917,117,344,-229,-272,408,-430,-162,-555,1479,379,-660,-805,-334,122,270,-98,-117,-217,-699,-659,-385,344,252,-575,-412,-618,-226,13,-407,1177,370,390,256,-102,-47,-22,-369,-160,7,239,244,289,260,155,-860,728,187,-163,344,112,-130,73,503,10,-505,-48,574,182,-377,-92,-617,298,-106,65,271,252,-106,-236,-221,-33,36,296,2074
2019-10-16,06:53:25.094,2051,1313,426,-117,-35,-39,-4,190,-767,194,-723,-58,-754,-489,469,69,-1076,-234,-288,510,281,807,-370,-103,681,-549,-462,155,-675,-208,-1042,-546,-209,-286,-251,-523,57,-1004,1006,41,-173,-517,-130,291,1052,37,-112,-85,-313,-1042,-1399,194,884,661,134,1342,-263,-122,136,-294,-96,-1,-527,-741,159,739,67,-286,-118,-631,-327,-355,438,153,-385,693,2263,1197,1713,2547,353,92,76,-947,-7,975,311,-204,-515,-609,-244,363,274,-348,-593,-313,-577,-1591,224,1115,-132,-627,12,-1080,-2009,329,891,-217,-589,-437,-991,-1433,1841,801,-375,22,115,-3294,-58,2655,893,-430,-368,-806,-2018,-332,1607,1186
2019-10-16,06:53:26.094,582,178,-202,7,-284,-838,-1602,1350,1544,663,-329,-649,-690,-922,592,1050,822,526,-483,-99,51,736,133,-194,311,-82,1312,2173,2256,1184,131,2360,2124,0,-912,-839,-265,-1434,2544,600,-823,-292,-444,-476,-1731,-693,90,625,396,-544,-608,37,80,-1498,-1211,212,396,-344,601,-150,-855,-417,1425,531,-803,-402,-633,2244,448,-954,-150,-75,-954,-1284,-696,566,733,438,-103,-114,-834,-215,616,-119,-17,189,192,56,57,171,59,70,321,135,51,68,372,135,-77,92,215,64,58,184,326,32,207,667,1216,1507,2224,914,327,16,81,211,-228,404,-52,283,360,393,-210,-264,68,-125,-204,-13
2019-10-16,06:53:27.094,152,-310,-362,-351,-284,-348,-733,-274,-423,-290,-113,-374,-227,-156,156,-71,106,36,-126,-197,211,877,-11,38,-387,301,-114,252,-179,9,366,-202,-640,323,733,218,294,-471,-343,271,166,-129,443,-413,-222,122,-313,-78,-188,-77,-151,-72,-188,50,-21,-329,33,286,-27,-323,191,-156,1140,1952,1608,1253,816,-200,-180,161,205,-217,-408,-219,-242,-635,129,658,-499,148,413,-147,-698,-96,-615,-573,-495,-489,-722,119,-1261,-997,493,-116,-330,-408,-340,102,125,164,-439,-517,-306,3,75,-97,77,139,-80,97,-439,-378,-17,244,-108,-458,-712,964,61,-106,-165,-238,-695,-64,86,-144,-167,228
2019-10-16,06:53:28.094,-63,-115,-62,-20,82,-15,294,-55,-45,0,286,-29,-415,-217,298,-277,11,1055,2333,2194,1451,589,171,102,-477,-119,613,8,-136,-1280,474,347,1,-212,-278,-622,113,-76,-329,-412,-789,-208,-282,-302,-421,-283,-677,-386,-205,-453,9,-171,-377,195,655,144,-3,-682,-222,432,75,61,225,-67,-359,163,485,-82,-145,15,328,-225,-177,-351,155,521,245,389,-421,-471,177,226,-86,-151,-260,-457,187,439,0,231,112,-48,281,45,28,-333,-173,-181,4,-182,-915,78,1784,2674,2984,722,-330,-219,-2,-103,572,473,-680,-898,-50,27,257,-96,-749,-347,-83,-79,-108,-85,19,-184,-744,-756
2019-10-16,06:53:29.094,-106,-375,-788,-396,-324,132,-610,-862,-285,-78,137,559,-238,-309,-447,5,607,-194,-298,-114,5,0,157,21,-385,16,-1,353,495,-209,-272,-72,-230,741,-385,-511,-286,207,338,46,-65,330,-345,268,-68,-323,262,-266,107,65,-328,68,224,-110,-51,-428,12,418,1535,2683,1624,602,197,218,345,-344,-301,-5,166,-381,177,-301,36,-153,143,-331,-235,-76,157,-104,-278,-230,-378,-70,-82,-282,-228,-482,-222,-257,-290,-34,-136,25,-234,19,93,38,77,6,148,142,-181,-174,1,34,-131,-4,137,237,-111,280,81,66,16,442,-189,-54,114,-15,-165,99,-60,-9,12,55,-22,68
2019-10-16,06:53:30.094,-153,170,-90,-186,-50,-29,33,57,-65,-163,-91,-87,861,1775,1718,1231,685,36,205,-139,-223,-285,-148,-133,-323,-250,112,-35,-67,25,31,-348,-236,-132,-179,-276,-190,-57,-261,-383,-427,-434,-198,-372,-228,-219,-3,-59,-40,206,-112,186,14,23,47,129,-25,-88,22,-52,79,2,6,140,-124,28,111,78,59,202,-182,84,3,24,55,-80,79,312,229,85,60,-56,57,-93,35,-43,86,222,396,145,-99,-37,20,780,1788,2237,1948,814,137,236,-82,28,-84,60,12,0,147,136,-317,227,-42,271,1161,-34,214,-69,-708,-482,-597,-487,-602,-729,-363,-450,-342,154,-78,512
2019-10-16,06:53:31.094,-181,-266,-239,-158,-27,58,17,-86,-373,-69,-82,88,102,199,-79,-189,150,143,-166,-177,-167,150,-2,-130,146,-129,-146,-174,-39,-45,63,140,49,-156,-319,1,232,131,-235,-229,70,-2,-36,-175,-361,-65,917,2008,2473,1771,533,26,20,-124,-245,-27,-198,-319,-41,-198,-171,-245,-79,-197,-131,-355,-170,-243,-298,-235,-291,-522,-377,-392,-482,-298,-460,-458,-130,-146,-213,-195,-170,66,16,-18,31,-3,114,-52,-87,61,129,35,17,-61,151,124,56,-19,203,67,38,-61,11,31,60,-8,-65,60,212,-38,143,-26,-3,-105,-4,-33,93,-48,76,-16,101,-140,-120,108,758,1832
2019-10-16,06:53:32.094,1544,818,469,234,-131,-51,54,-138,-203,-157,-53,-68,-208,-254,-38,-128,-72,-124,-325,-180,-222,-329,-276,-345,-275,-344,-352,-309,-262,-342,-291,-167,-201,-141,-117,-135,-62,-15,-21,5,-2,-17,-33,-13,-4,-47,0,16,-15,-302,-311,282,-41,-160,131,93,-7,-55,-64,40,49,52,-139,32,114,-99,159,-97,0,10,-216,151,-168,-7,-130,-270,269,885,1671,1952,1032,413,138,-97,-7,-3,-203,-75,-36,-225,-15,-232,-174,-28,-196,-233,32,-251,-306,-156,-377,-140,-242,-421,-278,-502,-476,-301,-503,-340,18,-209,23,-249,-272,308,-31,-55,-124,-64,34,-383,-2,228,100,6,-197,-74
2019-10-16,06:53:33.094,275,36,21,63,261,157,39,76,134,151,306,-182,-9,295,133,-92,-91,262,288,-18,-67,341,-99,113,80,-123,264,1039,2243,2254,1220,657,251,-117,96,152,-136,15,9,-56,92,-95,-86,-88,174,63,-256,-414,-227,-148,-315,-315,-158,-444,-449,-458,-458,-400,-212,-281,-294,-105,95,12,-96,-199,270,95,102,70,184,-131,-42,-86,81,-74,40,28,-32,186,187,-126,-75,121,179,94,90,45,-71,-34,132,185,82,110,50,103,-42,-54,83,31,100,-63,26,-4,-2,383,1643,2504,1937,679,150,119,68,227,-248,-205,-221,182,-161,-332,-213,-166,56,-207,-212,-447,-396,-187
2019-10-16,06:53:34.094,-220,-348,-353,-328,-535,-488,-462,-311,37,-685,-300,-168,-89,-148,-145,353,249,-62,-556,-99,-140,-58,-1,-131,-173,409,-137,10,320,288,-413,182,48,-124,203,-3,-18,-220,-145,61,155,108,-49,57,246,74,-344,160,79,114,-6,171,115,-328,-208,274,885,1834,1667,1236,307,252,56,-143,118,-195,-170,-171,-159,-81,18,-32,95,-397,133,201,-678,-223,-229,-223,-8,-220,-166,-226,-116,-536,-314,-440,176,-16,-12,-100,-117,185,127,-44,-20,148,144,293,189,-511,-644,-293,0,-319,260,-38,363,249,40,-101,-161,-148,49,-84,190,137,16,22,-221,142,-18,5,144,-329,103,147
2019-10-16,06:53:35.094,-21,39,-49,-90,-55,82,442,1484,1602,778,432,579,40,-103,-10,-52,-51,-471,117,-381,31,-175,-314,35,-140,-290,-434,12,-200,-206,-306,63,-374,-563,-422,-456,-453,-595,-267,-355,69,32,-392,85,-170,101,-190,-49,-171,209,-44,-59,108,565,-424,313,-331,270,-204,421,316,-233,-379,-222,-244,-32,242,484,-732,48,-272,561,110,-175,-39,-25,-21,-107,128,-65,26,-94,-125,134,276,550,1775,1545,789,529,895,99,15,732,265,125,-9,-80,-243,-16,-15,-114,48,-133,-543,-373,-437,-658,-522,-172,-263,-293,-377,-427,-254,-286,-457,-663,-10,-63,-169,19,33,-12,-453,-230,365,68
2019-10-16,06:53:36.094,446,-751,-693,1338,-494,-560,-504,-718,822,778,-902,-618,-599,-13,1182,-311,21,-429,-659,-473,476,446,-118,-501,7,-132,14,1006,386,-320,-598,-32,-207,359,-22,-646,302,1164,1388,1135,764,395,157,88,-59,-64,-48,-48,-99,43,13,-26,-96,-45,103,-20,-214,-190,-74,-141,-155,-305,-367,-236,-162,-246,-355,-285,-278,-98,-166,-17,122,52,7,50,-30,-56,129,59,109,108,68,-26,11,22,28,115,183,109,59,52,209,92,143,83,-40,-48,-20,98,63,18,-40,19,175,12,-79,23,37,-42,19,38,59,-22,-13,60,-71,-243,182,805,1548,1646,1097,471,-102,-38,171,145
2019-10-16,06:53:37.094,77,-73,-22,-21,-95,-45,27,-100,-85,-141,-197,-197,-468,-279,128,-317,-25,-422,-823,-417,-477,-298,-210,-356,-201,-127,-87,-93,-57,-79,-32,-170,-20,79,4,124,156,110,29,-186,58,-75,-162,114,193,162,162,54,-121,-135,-78,5,106,50,-82,107,220,-86,-69,179,1,-179,-17,-47,-223,-22,3,149,14,-138,21,172,355,9,-182,25,215,1405,2039,1815,877,195,304,67,-28,19,-105,-58,-108,86,-230,-492,-111,4,253,-59,-419,-503,-78,-82,-241,-266,-214,-267,-413,-639,-495,-522,-325,-318,-125,124,-249,-370,-310,183,-48,39,9,-30,22,15,-94,-200,46,134,8,-75
2019-10-16,06:53:38.094,86,245,-68,-127,-65,-54,25,66,16,47,-11,-294,-252,0,-46,-166,-94,-48,27,106,-128,-20,15,-129,-198,190,242,-19,117,-6,-71,-5,-56,6,-216,205,1584,2238,1758,1018,406,62,-88,-42,-291,-168,164,-45,-94,-48,-397,-71,-61,-326,72,-48,-53,-233,-26,-53,-224,10,-357,-472,-189,-218,-118,-275,-294,83,-239,-45,-100,158,-28,-97,105,116,-20,81,-6,-58,-32,0,-125,151,-42,-69,-80,247,279,45,-58,181,70,134,-153,-186,-312,-1211,-1661,-905,-224,-125,116,37,-26,311,144,-117,-81,131,211,899,735,746,236,280,120,-59,-19,578,1432,1578,1086,745,384,303
2019-10-16,06:53:39.094,-201,-364,0,-274,-74,58,-16,-273,-662,-507,89,-115,-325,-348,-349,-296,-623,-250,135,-247,-425,-513,-519,-145,196,133,4,23,-147,55,144,-21,-179,134,-141,-175,126,77,-154,-208,-66,-64,-133,-167,-165,-5,-141,71,143,-201,-7,0,-20,-141,47,143,89,104,-49,-145,-151,-30,-69,-112,33,-32,-105,78,-30,-48,47,-72,1,-12,-61,-101,197,1007,1457,1061,391,172,127,-11,-77,-12,-141,90,-103,-244,-10,8,-305,-145,88,69,-197,27,-103,-190,-231,-262,-204,-184,-348,-244,-411,-96,-290,-14,-44,-27,-38,-50,-87,64,-133,36,-14,-27,-79,104,-44,-50,-18,-9,-63,-53
2019-10-16,06:53:40.094,-55,-59,9,83,13,69,-12,43,-22,-24,-15,-53,84,13,36,147,61,-1,-41,-21,-86,-3,-120,63,2,75,21,-57,-198,-94,441,1322,1463,801,254,159,25,-126,9,-127,-109,-94,-159,-133,28,-109,-83,-276,-142,-173,-288,-167,20,-424,-324,-5,-401,-526,-325,-519,-193,-247,-19,-531,-135,-111,127,-242,-141,-47,-82,199,-43,-22,55,-20,13,156,175,366,406,197,4,273,248,160,97,96,-11,-149,-313,-195,-50,45,354,-84,-163,-198,-96,45,-35,-37,-85,-92,-14,-55,-131,80,-171,-168,83,1046,1743,1558,971,440,363,19,-95,-82,-87,3,-33,-79,-212,-224,-201,-140
2019-10-16,06:53:41.094,-70,-281,-268,-218,-289,-372,-383,-375,-381,-396,-428,-258,-309,-407,-254,-68,-37,-26,74,9,-12,11,-59,-103,37,-87,-67,99,70,-125,-78,-71,-86,5,86,24,77,-56,74,-58,-175,-87,-104,-71,-14,140,55,-8,-22,-66,4,37,32,-81,-73,80,38,124,-16,-14,40,-41,-309,-254,152,1060,1960,1811,915,261,201,-57,-168,-8,-208,-157,77,-74,-346,-40,-249,-267,-189,-279,-75,-215,-466,-269,-286,-230,-507,-315,-442,-397,-442,-554,-303,-224,-26,-105,-650,-359,-308,-265,-313,252,211,-92,-130,-97,-55,51,1,-39,90,247,171,-288,41,250,37,-122,91,-95,55,-111,-80,-12
2019-10-16,06:53:42.094,101,22,-479,-133,-129,-42,200,345,284,-253,-571,22,55,6,-21,201,-121,-274,276,872,1848,1894,1330,549,102,88,78,-23,155,163,18,-39,-84,-56,-138,-154,-170,-193,-113,-125,-91,-197,-226,-304,-350,-322,-385,-419,-451,-332,-371,-312,-157,-145,-106,-64,-47,2,39,-39,22,30,2,40,30,-8,-32,30,34,-1,21,-2,-14,70,11,33,-1,-8,-33,71,63,-23,0,9,79,47,-35,-22,-4,85,56,50,61,-4,98,45,-183,35,-36,-186,-28,626,1420,1575,1165,386,90,23,-7,-103,-84,-91,-68,-102,-116,-146,-117,-155,-269,-239,-205,-200,-221,-272,-301,-281,-340,-372
2019-10-16,06:53:43.094,-399,-377,-376,-422,-413,-310,-240,-226,-210,-103,-64,-27,-17,15,41,-46,-56,-68,-62,-77,-35,-39,-91,-59,9,-16,8,9,17,39,53,7,9,-24,12,17,1,43,-35,16,-46,-51,-12,-72,-98,-25,12,30,37,-15,69,63,-90,-222,-29,864,1668,1793,1113,453,226,2,-52,-21,42,-62,-53,-109,-260,-193,-146,-64,-10,-14,-86,-223,-165,-147,-71,-152,-166,-203,-216,-312,-293,-205,-284,-371,-158,-97,3,8,22,37,102,30,56,55,60,38,-16,-6,-44,-73,-85,22,83,90,0,17,8,58,18,-29,114,40,161,163,79,77,12,34,21,-7,81,179,116,27
2019-10-16,06:53:44.094,-87,-122,-29,3,4,-57,-70,144,1004,1493,1191,613,190,21,-28,16,-10,-11,-91,19,-143,-257,-322,-242,-252,-279,-216,-153,-208,-288,-342,-227,-209,-138,-208,-290,-398,-412,-406,-448,-424,-305,-210,45,117,88,47,-27,-35,-26,-63,-4,-72,-83,15,22,12,-192,-239,-261,-155,58,268,296,218,81,-119,-267,-331,-255,-60,131,33,-3,6,-45,-30,41,93,94,8,-30,0,-112,-161,-311,-269,320,1334,1725,1468,820,357,174,0,-87,-123,-214,-252,-281,-116,-123,-124,-66,-107,-60,-79,-136,-137,-176,-195,-316,-363,-376,-395,-547,-533,-558,-474,-319,-224,-225,-267,-183,-141,-115,-10,52
