2019-10-16,08:37:15.738,-69,-57,-43,-101,-90,-83,-60,-62,-83,-87,-85,-77,-53,-81,-150,-106,-85,-65,-51,-77,-57,-38,-20,-76,-59,-63,6,-75,-61,-59,-65,-45,-73,-80,-61,-60,9,494,1468,1535,382,-29,-93,-57,-68,-52,-89,-73,-90,-61,-93,-106,-111,-77,-36,-72,-63,-73,-33,-49,-28,0,58,39,109,105,116,145,133,122,130,55,43,30,22,4,-4,-6,-31,-33,18,-27,-47,-26,-18,-36,-3,-61,-36,-33,-18,-29,-7,-35,-57,-53,-41,-57,-51,-54,-56,-73,-81,-106,-78,-35,-88,-77,-75,-65,-67,-77,-89,-58,-98,-119,-100,-73,-95,-98,-36,-78,-68,-97,-108,-127,-121,-137
2019-10-16,08:37:16.738,-116,-139,-110,-90,-98,-93,-99,-89,-91,-113,-121,-142,-94,-83,-105,-109,-95,-99,-84,-95,6,341,1016,913,13,-117,-72,-61,-99,-114,-84,-86,-89,-89,-79,-117,-96,-36,-63,-66,-37,-38,-6,37,57,98,148,180,218,261,264,239,216,187,126,77,49,8,-29,-50,-60,-89,-57,-41,-63,-57,-26,-32,-47,-55,-59,-73,-20,-15,8,16,0,-15,-9,-80,-107,38,844,901,-124,-165,-90,-74,-53,-78,-106,-88,-40,-52,-34,-26,-13,-24,21,16,43,101,144,171,227,273,303,350,393,312,234,196,182,120,72,11,13,21,-9,-64,-34,-18,-32,-33,-30,-27,-52,-29
2019-10-16,08:37:17.738,-53,-14,-42,-3,-1,7,-20,-29,-23,-24,-18,-53,-34,-29,-53,-66,-69,-63,-53,-60,-50,-46,-60,-54,-25,-67,-42,-59,-66,-68,-77,-97,-77,-71,-68,-63,-43,-57,-75,-57,-71,-74,-45,-56,-28,-68,-46,-50,-62,-38,-44,-106,-90,-92,-79,-80,-71,-82,-90,-76,-96,-59,-89,-80,-100,-94,-96,-98,-113,-109,-127,-75,-81,-105,-59,-47,-34,-79,-82,-60,-63,-53,-47,-59,-59,-92,-89,-96,-56,224,1116,1521,645,-101,-76,-80,-152,-160,-139,-128,-131,-135,-163,-142,-145,-141,-142,-141,-100,-105,-129,-102,-40,-38,-19,37,69,64,86,111,112,100,113,92,94,44,12,24
2019-10-16,08:37:18.738,-3,4,-21,-38,-25,2,-25,-38,-7,-10,-18,16,17,14,11,21,38,-13,-6,-53,-24,-19,-12,-36,-34,-41,-54,-78,-55,-47,-99,-61,-50,-62,-45,-59,-58,-53,-62,-37,-53,-75,-65,-60,-69,-74,-43,-63,-78,21,450,1110,775,-110,-112,-56,-55,-77,-64,-79,-60,-74,-54,-44,-100,-55,-16,-54,-39,-16,-18,54,82,119,187,271,213,263,253,246,219,145,133,104,57,12,-2,-21,-59,-76,-93,-114,-62,-85,-74,-80,-73,-77,-84,-84,-75,-90,-72,-67,-77,-61,-66,-92,-119,-120,-156,-171,-181,-162,-160,-136,-126,-112,-134,-113,-98,-100,-76,-79,-77,-68,-107,-118
2019-10-16,08:37:19.738,-97,-83,-71,-79,-80,24,211,806,773,-63,-266,-143,-113,-125,-112,-105,-107,-90,-58,-97,-82,-68,-62,-59,-68,-38,-3,29,58,120,149,225,287,276,282,312,249,228,194,157,73,56,28,3,0,-14,-19,-51,-36,-48,-49,-69,-70,-62,-48,-35,-62,-48,-39,-87,-33,-59,368,592,-275,-318,-178,-99,-86,-89,-77,-68,-46,-35,-27,-11,0,8,29,43,71,96,145,204,255,315,326,361,339,295,215,163,85,48,3,-29,-21,-31,-38,-40,-40,-51,-47,-62,-55,-62,-73,-73,-67,-72,-80,-90,-66,-63,-64,-77,-89,-80,-66,-72,-79,-84,-69,-60,-73,-56,-60,-79
2019-10-16,08:37:20.738,-86,-92,-70,-84,-82,-91,-92,-91,-107,-78,-103,-86,-82,-83,-70,-75,-75,-77,-74,-75,-79,-84,-107,-95,-113,-103,-79,-60,-59,-60,-48,-52,-54,-59,-66,-62,-69,-79,-84,-88,-89,-79,-80,20,86,551,689,-22,-211,-102,-74,-80,-76,-67,-75,-73,-71,-70,-72,-75,-64,-50,-25,-3,16,48,81,113,160,200,225,250,250,257,236,218,193,163,125,98,73,40,20,3,-15,-28,-27,-16,-21,-19,-16,-6,3,-21,-38,-41,-33,-34,-54,-78,-85,-63,-51,-32,-58,-51,-49,-71,-86,-83,-93,-99,-90,-97,-122,-112,-102,-105,-111,-28,48,418,626,71,-335,-193,-132,-120
2019-10-16,08:37:21.738,-121,-122,-116,-111,-106,-84,-46,-23,-16,-9,4,30,56,77,154,187,261,286,320,311,306,294,231,193,121,68,28,16,-5,-15,-32,-39,-48,-60,-47,-45,-62,-74,-58,-72,-69,-72,-70,-85,-69,-57,-67,-82,-89,-95,-90,-97,-100,-110,-127,-131,-114,-88,-81,-42,-74,-47,-46,-56,-71,-80,-101,-110,-121,-131,-162,-171,-171,-158,-38,145,499,436,-245,-286,-138,-95,-97,-123,-108,-111,-137,-99,-98,-95,-82,-84,-49,-77,-79,-22,57,86,142,200,234,276,297,309,293,213,254,204,123,59,9,-42,-84,-21,-28,-70,-78,-79,-101,-110,-108,-124,-110,-95,-88,-63,-79,-35
2019-10-16,08:37:22.738,-65,-79,237,426,441,60,-443,-290,-145,-127,-99,-105,-74,-72,-92,-81,-59,-60,-36,-17,-6,34,63,97,140,174,240,270,305,342,312,265,223,151,89,64,23,-30,-19,-40,-8,-14,-23,-25,-21,-34,-20,-16,-21,-33,-26,-49,-37,-34,-25,-53,-69,-66,-68,-65,-56,-69,-76,-85,-83,-84,-76,-58,-38,-36,-39,-34,-28,-36,-48,-44,-51,-43,-43,-58,-42,-41,-43,-37,-29,-33,-54,-66,-30,-9,-66,-57,-16,41,21,-32,-11,-73,-178,-223,-171,-65,-5,-6,-17,-27,6,0,-13,-21,-36,-43,-31,-22,-19,-30,-33,-54,-1,275,1254,2010,1110,37,-27,-53,-87,-113
2019-10-16,08:37:23.738,-141,-71,-58,-80,-101,-121,-103,-145,-64,-61,-77,-79,-88,-76,-28,-15,3,42,79,6,76,97,84,22,36,78,107,83,-132,89,57,-139,-117,99,71,-27,-84,-46,-101,-137,81,-55,-39,-63,-246,-235,-12,-19,-35,-26,219,488,547,448,242,-388,-902,-1042,-1092,-1303,-1394,-1143,-935,-501,-26,32,-16,-95,-2,49,-246,148,128,78,87,155,200,273,436,421,672,901,743,955,965,880,765,618,480,338,203,157,0,-11,42,2,-41,-70,-105,-92,-100,-216,-91,-95,-61,-104,-99,-106,-107,-131,-121,-109,-157,-91,-87,-82,-95,-101,-128,-144,-124,-107,-108,-109,-93,-76,-68,-66
2019-10-16,08:37:24.738,-80,-97,-102,-118,-123,-110,-115,-115,-116,-123,-122,-122,-120,-106,-99,-82,-98,-91,-101,-103,-78,-73,-39,119,569,559,-25,-178,-112,-104,-116,-112,-96,-120,-109,-110,-108,-109,-94,-81,-76,-62,-44,-37,-17,30,46,87,128,186,183,167,164,146,117,78,110,68,22,10,-5,-7,-35,-38,-47,-55,-30,-16,-7,-52,-60,-57,-63,-60,-74,-74,-77,-98,-68,-62,-46,-37,-6,-28,-46,-94,-86,-89,-87,-69,-83,-69,-39,-54,-37,2,82,190,408,400,-79,-209,-87,-38,-13,-26,-27,-24,-23,21,-13,54,47,-6,50,71,56,108,117,136,218,291,299,367,353,367,309,277
2019-10-16,08:37:25.738,292,180,132,100,80,28,62,61,3,-21,-30,-20,-77,-62,-44,-35,-81,-69,-56,-57,-87,-55,345,599,-35,-291,-217,-148,-130,-121,-123,-136,-148,-137,-116,-106,-78,-47,-39,-23,13,20,28,51,88,107,110,118,108,109,101,78,25,0,-5,-32,-49,-56,-65,-73,-61,-43,-43,-32,-18,5,8,0,-15,-21,-56,-20,-19,-23,-32,-48,-45,-52,-47,-59,-57,-70,-58,-46,-43,-50,-69,-51,-49,-36,-44,-51,-43,-39,-52,-69,-64,-65,-76,-74,-75,-66,-55,-59,-40,-49,-30,-14,-15,-19,-15,-22,-50,-64,-82,-67,-40,55,180,528,799,324,-151,-76,-60,-82,-76,-103
2019-10-16,08:37:26.738,-82,-87,-77,-66,-57,-46,-57,-52,-54,-35,-27,8,-5,25,83,84,109,132,158,166,152,138,115,110,81,50,22,0,-5,-22,-20,-4,13,4,-4,10,12,-17,-18,-1,-11,-23,1,21,-14,-11,-4,-56,-130,-93,-108,-75,-44,-55,-63,-84,-120,-78,-66,-31,-103,-91,46,310,688,346,-212,-208,-116,-73,-104,-95,-101,-110,-92,-203,-212,-170,-174,-193,-188,-114,-53,9,26,78,94,125,146,181,201,181,179,144,101,57,30,3,1,-11,-38,-42,-10,-2,1,-18,14,19,10,7,13,10,12,1,-16,-2,-19,-6,-30,-22,-34,-27,-12,-22,-4,0,-45,-51
2019-10-16,08:37:27.738,-65,-44,-52,-26,0,14,-28,21,155,636,868,322,-124,-87,-73,-91,-95,-98,-105,-90,-121,-121,-109,-119,-122,-118,-77,-59,-47,23,23,65,82,131,169,185,174,161,139,94,37,14,-33,-48,-41,-69,-61,-83,-82,-98,-66,-100,-103,-92,-76,-46,-54,-50,-51,-45,0,-27,-28,32,22,-8,7,17,42,-23,-1,14,38,18,26,4,4,-48,-9,-4,22,165,729,1136,462,-146,-68,-88,-184,-120,-117,-245,-273,-288,-239,-133,-49,-59,-81,-97,-154,-158,-115,-23,-22,-6,87,104,152,185,143,141,92,62,27,51,18,-54,-70,-52,-33,-38,-33,-88,-88,-104,-168,-87
2019-10-16,08:37:28.738,-125,-57,0,-110,-31,-73,-37,-54,101,-47,85,82,-53,47,23,26,-5,-29,-27,-30,-32,-47,-28,-39,-37,4,204,857,1081,304,-140,-61,-78,-85,-81,-54,-117,-90,-137,-125,-119,-122,-124,-127,-134,-127,-115,-85,-65,-32,4,45,76,105,110,111,110,45,24,25,-14,-70,-68,-59,-37,-52,-48,-50,-21,14,-48,-19,-3,-36,-34,-16,-18,-46,-26,-15,75,23,49,19,-21,-37,6,13,-27,-64,-56,-32,-97,-57,-83,-69,-88,-123,-34,219,1003,1079,111,-72,-91,-133,-69,-135,-119,-96,-130,-62,-134,-180,-92,-97,-143,-121,-87,-158,-61,-45,41,56,119,139,202,158
2019-10-16,08:37:29.738,131,157,80,-53,-83,-62,-54,-130,-84,-72,-143,-91,-23,-184,-96,-31,-69,-76,-114,-76,-105,-45,-185,-133,-129,-109,-115,-157,-94,-82,-93,-119,-122,-84,-104,-99,-56,-98,-75,-80,-90,-61,-77,-25,34,708,1455,959,-9,-42,-32,-75,-84,-72,-65,-44,-81,-63,-70,-75,-80,-78,-61,-71,-64,-50,-25,3,38,67,115,132,166,164,147,118,94,48,3,-44,-63,-66,-80,-80,-69,-62,-72,-73,-71,-58,-61,-29,-16,-26,-21,-15,-13,-28,-13,-38,-38,-15,-29,-45,-65,-66,-34,-55,-64,-54,-58,-54,-54,-48,-63,-48,-42,-49,-64,-3,254,956,963,144,-133,-102,-80,-92
2019-10-16,08:37:30.738,-80,-73,-78,-78,-93,-101,-97,-92,-80,-84,-68,-60,-58,-60,-23,52,94,136,169,205,205,190,167,141,72,61,44,-2,-20,-58,-35,-28,-5,-18,-20,-19,-27,-31,-37,-43,-46,-49,-46,-53,-43,-47,-40,-50,-51,-53,-70,-100,-97,-100,-103,-89,-81,-81,-78,-81,-73,-89,-91,-95,-99,-91,-106,-47,133,757,1070,335,-150,-99,-88,-103,-99,-76,-101,-110,-106,-85,-90,-76,-45,-53,-33,-34,-39,-18,11,45,74,99,159,162,174,162,147,97,86,67,50,36,12,-19,-28,-29,-30,-37,-46,-56,-40,-56,-34,-24,-26,-17,-12,-4,-13,-20,-35,-15,-10,-8,-23,-51
2019-10-16,08:37:31.738,-72,-100,-103,-128,-124,-118,-113,-92,-71,-54,-34,-38,-15,47,198,557,811,281,-181,-112,-100,-97,-88,-104,-92,-64,-57,-68,-94,-102,-103,-103,-113,-102,-90,-87,-16,43,81,124,129,137,151,160,136,122,84,67,53,37,4,-53,-68,-108,-116,-111,-115,-85,-57,-42,-21,-1,0,-19,-4,-3,-20,-66,-89,-117,-83,-96,-61,-51,-15,-41,-27,-16,-21,-5,-40,-24,-47,-39,-43,-24,-21,-19,128,672,1010,435,-142,-113,-94,-89,-71,-81,-70,-58,-54,-59,-75,-89,-118,-105,-106,-94,-102,-73,-53,-25,13,36,45,97,104,107,117,105,87,53,21,21,-12,-33,-33,-23
2019-10-16,08:37:32.738,-27,-27,-3,-13,-11,-9,-17,-11,-11,-40,-67,-97,-119,-106,-64,-5,35,-6,-10,0,-14,-28,-68,-105,-110,-152,-164,-146,-133,-126,-103,-86,-26,153,768,1167,514,-118,-126,-78,-102,-91,-119,-113,-107,-81,-88,-88,-99,-107,-53,-112,-89,-46,-57,-27,-1,10,62,52,105,119,101,76,55,30,-7,0,-8,-4,-36,-34,-41,-56,-46,-62,-50,-54,-44,-46,-45,-55,-66,-80,-85,-102,-118,-83,-74,-97,-68,-62,-53,-70,-72,-74,-86,-99,-97,-115,-109,-81,-75,-55,-34,85,658,1179,706,-75,-111,-60,-82,-74,-73,-92,-122,-88,-78,-97,-92,-97,-109,-108,-102,-64,-60,-27
2019-10-16,08:37:33.738,1,56,100,133,153,123,148,132,107,80,76,47,-51,0,-46,-45,-14,-33,-12,-64,-44,-75,-46,-42,-68,-50,-30,-61,-50,-49,-20,-12,-36,-100,-59,-118,-106,-82,-99,-100,-89,-60,-57,-50,-57,-57,-58,-68,10,568,1203,830,-33,-177,-110,-112,-111,-111,-104,-131,-117,-142,-114,-131,-99,-93,-84,-43,-31,-10,13,44,15,106,204,248,303,261,197,160,130,88,40,35,-1,-8,-43,-138,-96,-189,-219,-187,-87,-13,37,84,3,0,6,-27,-57,-28,-76,-77,-73,-78,-61,-73,-95,-67,-90,-109,-121,-99,-87,-89,-126,-101,-103,-44,435,880,504,-161,-153,-136,-132,-126
2019-10-16,08:37:34.738,-113,-105,-98,-89,-85,-94,-85,-87,-80,-61,-48,-12,3,45,72,119,182,192,211,179,175,154,99,26,-19,-55,-84,-79,-51,-57,-47,-57,-56,-33,-14,-56,-10,-18,-22,-25,-10,-26,-39,-33,-40,-25,-34,-63,-76,-65,-33,-10,-38,-66,-110,-171,-218,-229,-253,-210,-161,-58,88,585,680,155,-26,-24,-36,-74,-49,-89,-76,-86,-102,-100,-75,-77,-68,-85,-64,-16,-8,31,82,110,140,166,163,137,72,102,75,81,46,13,-23,-8,-23,-44,-45,-46,-33,-43,-41,-42,-45,-48,-52,-53,-59,-41,-22,-68,-40,-8,-1,-13,-3,-22,-12,-16,-55,-78,-132,-118,-126,-89
2019-10-16,08:37:35.738,-69,-64,-6,-47,3,228,762,744,73,-123,-36,3,-91,-106,-124,-143,-138,-132,-112,-79,-102,-86,-61,-17,-24,13,50,62,102,117,154,171,136,125,148,122,81,76,79,52,45,63,40,8,4,7,-29,-31,-21,-35,-35,-37,-37,-56,-90,-70,-86,-53,-40,-39,-32,-33,-15,-41,-24,-42,-71,-56,-69,-107,-92,-103,-82,-90,-85,-37,254,868,776,48,-95,-89,-85,-99,-108,-104,-100,-105,-103,-138,-136,-141,-157,-118,-63,-25,-47,21,100,106,217,198,204,183,211,116,63,31,7,-54,-55,-19,8,10,43,61,37,5,9,19,-10,-11,-42,-62,-59,-60,-75,-69
2019-10-16,08:37:36.738,-74,-76,-69,-72,-81,-72,-78,-98,-92,-79,-103,-108,-109,-146,-139,-138,-105,-79,-30,249,691,530,-95,-132,-103,-82,-97,-91,-88,-98,-88,-100,-118,-97,-81,-62,-18,-25,-5,9,60,120,159,185,194,213,179,188,147,123,93,46,17,3,-11,-10,4,8,4,-38,-5,-45,-58,-41,-43,-53,-46,-44,-7,-59,-85,-95,-85,-63,-74,-50,-10,8,-26,-43,-59,-129,-52,-108,-69,-98,-97,-105,-97,-17,25,454,600,88,-253,-159,-122,-113,-121,-125,-141,-130,-119,-99,-74,-91,-54,-50,-30,0,23,54,93,119,147,168,173,193,190,191,155,108,111,57,43,23,11,12
2019-10-16,08:37:37.738,-22,-6,-26,-99,-132,-155,-182,-213,-179,-181,-128,-103,-57,-70,-46,-33,-41,-68,-71,-83,-48,-103,-75,-56,-67,-71,-62,-69,-61,-39,-59,-75,-8,397,1015,828,101,-34,1,-9,-58,-14,-28,-21,1,3,15,25,27,47,23,31,16,31,0,2,34,38,90,92,99,78,43,29,46,52,66,65,53,48,20,-9,-8,9,-16,3,4,-22,-13,-24,-53,-25,-32,-39,-37,-46,-123,-142,-151,-163,-122,-131,-84,-87,-32,-80,-69,-85,-34,-59,-47,-36,35,497,933,465,-134,-82,-30,-54,-33,-71,-122,-107,-71,-85,-67,-107,-101,-95,-39,-31,24,27,143,182,189,165
2019-10-16,08:37:38.738,93,147,132,86,77,55,38,9,-12,-4,-11,-30,-33,-23,-38,-63,-48,-58,-49,-69,-66,-62,-77,-86,-85,-124,-120,-110,-116,-93,-94,-78,-70,-63,-74,-54,-71,-63,-100,-77,-83,-65,-56,-43,8,396,879,546,-121,-96,-68,-74,-36,-47,-19,-8,-42,-21,-5,5,26,18,22,-1,6,50,79,60,96,109,156,172,193,201,192,136,89,90,12,-10,9,-1,-78,-68,-75,-69,-62,-58,-44,-65,-57,-53,-34,-38,-40,-33,-44,-50,-31,-52,-43,-41,-42,-41,-50,-50,-44,-41,-66,-44,-52,-33,-33,-16,54,273,837,838,129,-100,-82,-86,-94,-57,-73,-55,-53,-77
2019-10-16,08:37:39.738,-126,-106,-49,-34,-54,-141,-104,-34,146,126,133,137,182,258,328,303,264,169,166,133,57,-39,-97,-68,-12,-47,-76,-85,-70,-23,-1,7,32,8,27,49,18,-77,-106,-99,-60,-14,8,-21,-40,-84,-79,-49,-39,-43,-50,-32,-76,-69,-87,-117,56,601,1297,978,56,-67,-86,-141,-187,-182,-158,-141,-106,-65,-42,-35,-20,-12,16,3,-4,14,25,63,70,64,44,68,25,58,-4,0,22,17,37,48,-4,38,66,38,34,24,8,-4,-28,-29,-27,-42,-39,-53,-48,-53,-8,33,11,2,7,-12,-18,-43,-54,-52,-18,-54,-56,-37,-28,-69,-73,-53,155,831
2019-10-16,08:37:40.738,1023,267,-131,-66,-57,-75,-94,-79,-120,-126,-122,-158,-165,-165,-192,-200,-146,-152,-136,-117,-82,-55,-33,-13,11,34,36,40,20,12,-22,-47,-45,-46,-17,-33,-41,-87,-101,-110,-105,-89,-70,-52,-70,-75,-102,-96,-92,-52,-62,-55,-64,-62,-28,-34,-17,-33,0,6,-11,-49,-24,-59,-67,-62,-1,77,579,684,115,-207,-111,-108,-82,-70,-24,-1,-8,-25,-53,-47,-50,-38,-33,-35,-4,-12,39,79,112,125,140,109,138,184,116,106,54,24,-6,-48,-60,-90,-80,-82,-94,-68,-87,-68,-45,-43,-71,-81,-81,-78,-57,-81,-95,-69,-73,-78,-62,-71,-75,-87,-76,-109
2019-10-16,08:37:41.738,-34,-68,-50,-72,-47,-47,-60,-78,24,567,1118,676,-52,-59,-47,-25,-20,-39,8,10,34,-15,-39,-84,-117,-102,-79,-19,2,80,168,215,247,222,205,181,171,167,141,86,78,69,72,40,41,16,43,39,43,20,20,5,6,9,-16,2,30,51,34,31,47,27,22,44,12,-1,27,52,68,111,56,39,56,50,44,2,96,603,1311,1024,73,-28,-35,-57,-50,-61,-52,-51,-78,-51,-97,-72,-61,-44,-37,-39,-21,-4,34,42,57,82,92,116,150,108,100,38,36,13,34,38,-3,-5,-45,-31,-41,-89,-115,-130,-109,-100,-41,9,56,100,67,22
2019-10-16,08:37:42.738,-12,-32,-37,-81,-109,-121,-90,-74,-58,-85,-106,-100,-82,-62,-28,-46,10,108,493,839,397,-180,-126,-92,-84,-107,-106,-110,-89,-100,-112,-92,-96,-93,-83,-76,-88,-81,-80,-45,-23,2,38,32,79,52,49,31,18,13,-6,-22,-40,-52,-78,-71,-79,-95,-102,-88,-104,-78,-43,-23,-52,-47,-29,-46,-57,-44,-53,-48,-70,-65,-71,-98,-111,-100,-122,-137,-111,-115,-109,-100,-62,-11,322,690,367,-114,-102,-76,-81,-33,-18,-54,-31,-13,-90,-61,-64,-86,-101,-77,-74,-75,19,58,114,121,173,216,195,168,163,114,74,13,4,-28,-46,-47,-34,-34,-56,-48,-31,-70
2019-10-16,08:37:43.738,-145,-84,-28,-18,-50,-84,-90,-84,-73,-108,-74,-84,-38,-79,-109,-108,-123,-43,-81,-140,-111,-9,-88,-111,-92,0,493,1108,761,-19,-87,-32,-25,-56,-100,-99,-108,-74,-62,-66,-67,-64,-59,-71,-96,-161,-144,-47,-14,62,122,143,243,204,165,101,80,15,4,-1,7,-8,-58,-47,-24,-4,15,11,37,9,15,26,23,27,29,29,0,42,-10,76,33,21,-20,40,40,-25,29,3,10,-32,10,11,-12,69,511,1285,1116,192,-54,-63,-71,-57,-60,-64,-78,-85,-115,-107,-81,-90,-115,-109,-99,-91,-20,2,33,29,38,27,97,106,112,91,5,44,13,13
2019-10-16,08:37:44.738,-26,-46,-40,-95,-70,-43,-86,-39,-77,0,-50,-50,-17,0,1,-22,-42,11,-59,-87,-92,-110,-171,-65,-112,-90,-53,-101,-85,-41,-39,-93,-67,-66,214,657,732,38,-184,-176,-150,-198,-136,-130,-131,-95,-101,-153,-119,-122,-93,-92,-81,-60,-41,-31,-35,-14,33,65,79,65,64,93,64,52,11,36,-17,-2,-53,-49,-79,-58,-87,-75,-92,-79,-14,-20,-32,-98,-69,-45,-61,-31,-53,-87,-59,-110,-89,-77,-85,-42,-40,-37,-42,-93,-25,-1,-70,27,148,681,686,59,-173,-104,-98,-86,-99,-69,-44,-61,-70,-54,-38,-65,-51,-45,-38,-14,33,62,79,94,73,184
2019-10-16,08:37:45.738,103,138,132,75,94,34,23,32,-59,-34,-71,-81,-87,-81,-72,-81,-70,-104,-33,-26,-34,-41,-24,-138,-91,-27,-63,-73,-60,-57,-97,-92,-63,-47,-90,-77,-108,-151,-59,-101,-68,-63,-6,296,1020,851,44,-127,-102,-98,-55,-155,-251,-217,-33,12,10,39,-43,2,3,-3,49,54,13,20,35,107,159,94,64,33,48,65,64,5,50,8,-14,-58,-83,-72,-50,-1,73,83,27,-10,22,20,21,-44,-51,-85,-83,-91,-34,-52,-53,7,-32,32,10,-68,-99,-106,-98,-102,-105,-81,-93,117,861,1225,498,-84,-89,-61,-117,-114,-130,-102,-112,-92,-72,-96,-92,-95
2019-10-16,08:37:46.738,-82,-67,-57,-27,-13,-18,6,-14,17,43,51,32,41,47,20,26,3,-46,12,-10,-42,-28,-58,-21,-7,16,-4,21,-17,-55,-34,-24,-12,-18,-12,-49,-36,-49,0,-30,-28,-3,-31,-56,-39,-33,-70,-92,-88,-77,-79,-80,-18,66,617,864,338,-146,-107,-61,-84,-86,-104,-93,-79,-80,-107,-114,-86,-52,-59,-46,-34,-25,25,32,8,74,107,108,64,82,80,32,27,19,-13,0,-15,-44,-31,-55,-19,-42,-26,-24,-32,-30,-62,-52,-72,-17,-75,-53,-124,-79,-73,-38,-46,-52,-77,-59,-68,-90,-95,-78,-96,-80,-87,-75,-112,-94,134,852,1027,328,-114,-96
2019-10-16,08:37:47.738,-107,-58,-41,-36,-47,-20,-39,-74,-53,-113,-21,-51,-78,-51,-35,-2,47,128,157,190,191,182,161,149,109,49,42,32,-4,-24,-52,-34,-36,-63,-54,-68,-46,-48,-43,-66,-69,-77,-17,-51,-93,-115,-51,-75,-68,-115,-110,-134,-127,-45,-45,-62,-131,-90,-125,-164,-63,-77,-89,-38,-108,-91,179,831,778,-11,-207,-84,-113,-65,-83,-83,-83,-95,-147,-145,-81,-46,-87,-51,-56,-68,-64,-34,9,75,67,146,130,97,180,107,61,42,82,61,-17,-59,-149,-141,-44,-74,-144,-4,24,43,-54,-47,-33,-149,-106,-159,-110,-2,-14,8,-32,-65,-97,-88,-84,-60,-119,-51
2019-10-16,08:37:48.738,-82,-43,-77,-110,-83,19,-6,57,218,816,991,294,-73,-49,-60,-48,-50,-40,-60,-38,-56,-71,-57,-32,-25,-10,-21,-37,-15,-7,20,42,77,81,83,105,154,102,52,-39,-86,-45,-10,54,27,-47,0,-2,5,3,-5,-36,-40,4,-13,-50,-127,-20,34,18,-54,-11,-16,-87,-39,-88,46,-71,-90,-48,-88,-104,-157,-186,-154,-205,-115,-45,167,878,1093,444,-155,-117,-91,-110,-104,-138,-80,-80,-178,-125,-88,-37,-66,-74,-55,-59,-95,-7,57,75,130,71,98,140,115,86,30,-29,34,-49,-30,-37,-67,-61,-62,-45,-112,-20,-8,-38,6,-16,16,-90,-25,-58
2019-10-16,08:37:49.738,-36,-41,-33,-11,-77,-52,-55,-80,-43,-83,-126,-77,-81,-60,-113,-120,-98,-94,-60,-70,33,572,1150,727,-107,-122,-132,-108,-88,-145,-128,-107,-92,-156,-104,-108,-134,-113,-61,-63,-15,39,41,53,22,76,102,154,181,98,63,78,61,11,35,4,10,-17,-57,-40,-24,-40,-50,-53,-11,-44,-4,-43,-82,16,2,-57,-86,-57,-58,-65,-50,-127,-55,-121,-101,-98,-62,-74,-97,-66,-98,-55,-74,-160,34,514,871,410,-150,-161,-86,-90,-99,-107,-68,-138,-105,-75,21,57,-197,-77,15,116,-149,47,90,86,129,128,168,159,161,178,142,111,62,50,31,13,-58,-96
2019-10-16,08:37:50.738,-45,-76,-115,-38,-51,-11,17,16,1,9,-9,-34,-98,-84,-77,-67,-74,-74,-76,-57,-74,-63,-109,-104,-123,-160,-100,-103,-149,-103,-102,-82,-5,330,880,700,-64,-99,-50,-30,-68,-81,-66,-88,-94,-69,-121,-102,-95,-78,-45,-62,-42,-18,47,41,43,64,101,117,129,88,43,36,13,-19,-43,-15,-78,-46,-23,-28,-61,-82,-71,-14,-5,-8,-61,-64,-48,2,-5,-3,-39,-53,-33,-45,-34,-70,-51,-36,-40,-54,-31,-37,-24,-24,-39,-17,0,-61,35,643,1298,828,-85,-118,-85,-50,-116,-97,-94,-77,-86,-124,-146,-143,-134,-157,-193,-144,-75,-43,-17,29,47,104
2019-10-16,08:37:51.738,8,74,128,142,70,110,37,26,-21,-69,-91,-126,-74,-70,-41,-54,6,-29,-17,-20,-94,-93,-136,-134,-121,-116,-111,-92,-66,-29,-46,-42,-52,-63,-34,-50,-47,-41,-134,-99,-57,-58,-36,-136,-31,449,1114,753,-44,-110,-127,-120,-137,-107,-89,-136,-80,-62,-85,-118,-47,-52,-62,-57,-36,38,44,111,106,142,200,188,117,106,147,89,51,13,7,-19,-13,-53,-19,-36,-13,-14,-28,-25,-28,-28,-18,-11,-32,-21,-64,-95,-98,-102,-92,-51,-46,-79,-55,-175,-209,-67,-51,-30,-62,-208,-112,-76,-99,-64,-47,137,725,742,24,-209,-140,-117,-82,158,-246,-133,216,-255
2019-10-16,08:37:52.738,-135,125,-249,-1,3,-153,210,-121,218,49,-60,372,-32,232,193,-45,264,75,131,52,-9,85,-74,16,-22,-14,-19,-21,-1,13,3,54,42,58,20,49,5,-14,-34,-73,-73,-55,-80,-72,-108,-74,-89,-103,-77,-60,-82,-74,-66,-73,-85,-61,-59,-39,113,704,595,-42,-212,-184,-110,-53,-89,-74,-57,-50,-107,-76,-19,-52,-46,2,-38,-32,1,37,-83,37,109,129,113,140,87,74,20,-9,-11,-45,-49,-17,-44,-83,-32,-26,-18,-62,-68,-38,-37,-84,-63,-67,-50,-70,-76,-66,-64,-55,-22,-79,-57,-41,-53,-62,-78,-91,-113,-85,-95,-89,-112,-110,-165,-44
2019-10-16,08:37:53.738,414,1166,929,29,-136,-123,-107,-89,-152,-135,-135,-159,-163,-109,-148,-102,-70,-103,-123,-96,-74,-19,-45,-23,-36,-8,1,17,17,-7,-22,-39,-61,-32,-68,-83,-85,-40,-64,-53,-20,-46,-21,-11,-35,-34,-20,42,-6,-38,-46,-62,-43,-37,-3,31,37,-31,-46,5,-2,-15,-12,-3,1,11,-3,-21,-80,304,1332,1660,709,10,25,45,-29,-50,-71,-65,-7,-54,-77,-39,-87,26,4,-26,-57,-41,-44,-79,-46,-34,12,44,-16,-29,-75,-53,-49,-85,-40,-56,-68,-43,-27,12,-42,-40,-34,-52,-37,-42,-25,39,48,20,-34,-24,-33,-9,29,35,10,25,-33,3
2019-10-16,08:37:54.738,-9,-58,-63,-25,-40,-84,-64,-25,-36,-110,-20,737,1837,1420,253,-2,-33,-27,-91,-80,-134,-96,-91,-94,-101,-89,-96,-92,-90,-107,-81,-94,-80,-82,-138,-102,-136,-124,-116,-116,-100,-105,-78,-83,-74,-40,-42,-63,-44,-33,-39,-43,-24,-35,0,-12,-37,-20,-24,-44,-69,-71,-79,-95,-69,-81,-70,-65,-60,-57,-43,-57,-97,-63,-56,-42,-58,-58,-61,-91,-74,282,1438,1992,825,51,-20,-56,-85,-113,-89,-67,-108,-127,-115,-110,-78,-164,-140,-129,-85,-101,-54,-101,-73,-50,-47,-39,-42,-54,-51,-61,-88,-45,-22,-44,-11,-17,-46,-23,-16,1,-14,8,16,30,-16,6
2019-10-16,08:37:55.738,-13,-37,-70,-77,-94,-43,-39,-38,-31,-61,-78,-79,-72,-77,-80,-60,-65,-58,-89,-60,-37,-65,-139,-101,66,879,1503,797,-24,-104,-79,-91,-90,-93,-105,-94,-75,-75,-62,-70,-65,-56,-31,3,16,18,33,71,79,95,116,98,79,92,39,34,11,-45,-29,-60,-34,-69,-47,-75,-41,-29,-36,-28,-55,-40,-57,-30,-65,-89,-63,-102,-126,-128,-120,-99,-70,-98,-106,-85,-96,-79,-58,-65,-71,-46,-91,-79,-111,-108,-133,-95,115,815,910,134,-140,-87,-81,-71,-67,-85,-43,-72,-83,-38,-100,-60,-19,-15,9,20,56,99,141,134,165,170,162,160,108,78,63,44
2019-10-16,08:37:56.738,34,6,-27,-1,-51,-26,-39,-9,-19,-38,-42,-12,-37,-22,-54,-18,-47,-73,-70,-82,-61,-54,-38,-62,-109,-65,-117,-68,-85,-53,-63,-49,-35,-93,-69,-76,-81,-62,-87,-47,12,759,840,24,-280,-97,-102,-85,-120,-70,-49,-82,-86,-77,-32,-65,-91,-56,-104,-53,9,-8,25,79,93,87,89,63,30,43,29,-63,-18,-14,-58,-27,-87,-107,-53,10,28,-10,36,6,-61,-86,-35,25,49,-105,-126,-67,-111,-120,-99,-68,-73,-59,-15,-101,-63,-63,-64,-46,-50,-81,-88,-108,-72,-57,-80,-89,46,865,1536,776,-30,-63,-23,-81,-53,-95,-66,-54,-52,-62,-74,-90
2019-10-16,08:37:57.738,-86,-51,-62,-28,-31,12,10,26,5,21,-1,53,25,0,-14,15,7,0,-19,-13,-9,24,-28,-25,-24,-8,-51,2,-14,10,27,41,-38,-31,-40,-42,-137,-74,-58,-34,-68,-59,-53,-58,-87,-128,-90,-43,-89,-117,-111,-78,-52,-36,-58,-98,27,876,1429,633,-36,-49,-86,-96,-96,-109,-103,-44,-90,-85,-105,-65,-95,-86,-80,-34,-48,-21,28,35,59,66,76,68,78,9,37,-8,-18,-57,-78,-52,-76,-56,-31,-33,-35,-17,-52,-56,-23,9,-53,-9,-69,-71,-60,-90,-106,-77,-111,-92,-67,-72,-77,-81,-69,-103,-80,-97,-145,-112,-73,-123,-58,-217,10,-208
2019-10-16,08:37:58.738,-39,46,879,1043,257,-25,-201,86,-227,-30,-116,-193,55,-268,102,-253,-51,-67,-130,94,-132,138,-2,41,189,81,179,179,64,236,12,276,-55,-19,90,-123,156,-131,-73,-6,-187,180,-191,203,-152,86,-53,-127,117,-171,132,-115,-155,28,-214,106,-246,23,-145,-48,-41,-176,26,-100,-107,-18,-146,-110,-109,-94,-69,-26,-132,-118,3,594,1006,381,-172,-97,-65,-30,-62,-113,-68,-44,-79,-71,-49,-103,-87,-15,-38,-36,26,84,72,99,114,103,127,109,97,56,17,52,42,15,-12,-25,-24,-91,-50,-35,-103,-87,-21,-55,-66,-53,-75,-56,-62,-65,-60,-69,-88,-79
2019-10-16,08:37:59.738,-93,-102,-104,-39,-50,-61,-66,-44,-3,-19,-35,-66,-42,-44,-78,-69,-79,-81,-135,15,749,1423,826,-66,-96,-92,-58,-62,-66,-52,-67,-40,-33,-64,-75,-51,-39,-41,-23,-20,26,21,20,49,21,35,72,85,36,-23,-8,-27,-46,1,12,-57,-36,-30,-33,-48,-41,3,-21,-29,-24,-24,-32,7,-3,-19,-81,-42,-42,-68,-132,-69,-61,-84,-94,-56,-90,-57,-66,-56,-60,-30,-156,-153,-127,-67,-27,-41,-50,92,1033,1213,355,-114,-60,-6,-138,-131,-39,-70,-137,-57,-140,-89,-32,-102,-56,-54,-6,-64,51,24,-57,116,164,52,124,61,110,-7,109,-103,-7,-23
2019-10-16,08:38:00.738,-25,-26,-59,-65,-47,-31,-57,-70,-49,-54,-38,-29,-63,-65,-63,-44,-99,-66,-77,-69,-111,-79,-112,-88,-82,-48,-87,-91,-67,-61,-68,-80,-81,-66,-103,-74,-86,-107,-87,-138,-23,499,1053,602,-107,-100,-96,-102,-95,-67,-99,-78,-63,-88,-68,-124,-24,-152,47,-86,73,-35,90,80,119,152,95,238,74,233,-44,216,-112,168,-80,52,-71,-31,-53,-76,14,-164,86,-125,84,-108,98,-100,141,-43,21,33,-72,-68,-58,-93,-88,-86,-90,-69,-75,-76,-76,-86,-100,-90,-116,-75,-72,-60,-76,-115,-66,-108,-79,-83,-92,12,482,856,336,-210,-139,-98,-78,-74,-86,-92
2019-10-16,08:38:01.738,-44,-57,-112,-75,-34,-77,-60,50,-66,13,18,91,137,142,164,223,206,71,132,92,97,43,63,11,5,-4,-157,-47,1,2,-4,-50,-40,-115,-111,-37,10,-99,-65,-17,-83,-76,-24,-68,-72,-90,-83,-79,-50,-83,-61,0,-22,-66,-84,-23,-55,0,-21,-51,-38,-84,-8,-46,-50,-118,-113,-72,37,662,1373,921,20,-54,-68,-28,-28,-33,-26,-50,-35,-75,-76,-10,-57,-64,-81,-72,-22,-17,48,61,88,138,157,91,107,110,77,57,45,-4,-13,-16,12,-25,-8,-61,-35,17,-13,-9,-14,-28,-3,-40,-32,-41,-11,-15,-36,-40,-42,-68,-19,-45,-23,-69
2019-10-16,08:38:02.738,-79,-102,-11,6,-42,-23,-64,-77,-36,-52,-98,-21,-88,-111,-49,-55,-136,-22,-46,-68,15,954,1197,416,-118,-44,-38,-40,-125,-124,7,-48,-131,-63,-112,-73,-87,-42,-64,-77,-22,67,45,62,92,149,150,139,109,145,70,54,29,-55,-1,5,-111,-54,23,-75,-43,-50,-43,-71,-45,-21,-33,-32,-15,-10,-27,-137,-11,-58,0,-113,-51,-159,-6,-149,-39,-122,-129,-105,-70,-74,-53,-129,-99,-104,-20,-86,-94,-95,-160,38,-194,98,-248,90,-210,145,-129,778,737,612,-303,-9,-247,73,-224,20,-208,78,-97,-73,-68,-58,-103,189,-145,172,-131,280,-19,197,137,211
2019-10-16,08:38:03.738,172,189,228,82,195,-17,87,-52,76,-114,73,-116,6,-186,94,-179,28,-153,213,-124,48,-28,-47,5,-147,28,-93,-52,-27,-116,29,-135,-72,-91,19,-21,-167,-113,-123,22,-134,-87,-77,-29,-131,-156,1,-82,-121,-200,-89,68,-36,-345,-45,-7,-117,-53,462,936,447,-164,-117,-77,-104,-59,-36,-131,-78,-53,-66,-109,-80,-57,-19,10,-4,26,31,60,88,89,157,170,139,145,132,111,86,20,30,-32,-43,-34,-37,-27,-78,-16,24,-25,-41,-98,-34,-30,-13,1,4,0,-13,-46,-72,-61,-38,-48,-143,-25,-36,-7,-95,-78,-90,-49,-99,-48,-54,-59,-45,-30
2019-10-16,08:38:04.738,-57,-41,-6,-20,-59,-68,-44,-67,-61,-78,-64,115,932,1448,642,-58,-26,-16,-41,-53,-42,-52,-51,-51,-63,-108,-59,-34,-90,-62,12,14,23,33,17,17,64,100,55,66,84,86,120,60,24,4,1,24,4,-8,-38,-38,-62,-4,0,-32,-17,0,-4,-45,-15,0,-61,-30,-42,-18,-18,-48,-48,-71,-53,-54,-42,-34,-40,-23,-43,-40,-51,-48,-90,-80,-49,-48,-58,-44,-67,-78,-92,-20,311,1143,1079,152,-86,-55,-42,-68,-76,-68,-94,-81,-123,-61,-131,-87,-87,-74,-27,-32,-10,-11,42,76,113,103,92,135,127,99,71,62,82,54,42,11,7,0
2019-10-16,08:38:05.738,-34,-23,-28,-40,-55,-58,-18,-2,-24,-16,-12,-16,-11,-22,-16,22,-20,-59,-95,-117,-101,-85,-69,-85,-109,-103,-115,-89,-73,-108,-78,-89,-62,-70,-70,-89,-74,-9,-33,-112,-81,-16,66,-37,218,515,260,-246,-154,-65,-28,-73,-65,-159,-30,97,30,2,-1,1,17,53,-104,56,137,189,-89,139,192,230,120,123,150,229,-9,170,116,101,36,96,-203,6,-35,-62,-50,-99,-32,51,28,21,42,48,78,68,100,71,29,-42,-51,-19,26,-22,-60,-74,-70,-60,-47,-23,-15,10,23,-3,-27,11,58,43,-5,-62,-48,-8,98,220,420,280,-206,-182,-40,-16
2019-10-16,08:38:06.738,-54,-66,-36,-55,-48,-44,-66,-56,-30,-25,-23,8,20,45,93,149,115,178,201,243,256,251,203,162,139,103,37,4,-33,-32,-63,-75,-74,-81,-86,-72,-55,-64,-57,-41,-31,-48,-32,-19,-37,-42,-49,-80,-54,-75,-102,-90,-23,-51,-51,-109,-110,-75,-46,-60,-42,-53,-29,-17,-64,-100,-103,-57,-14,17,193,650,969,308,-155,-56,-42,-1,12,-32,-38,-50,-62,-75,-76,-62,-54,-58,-60,-54,-36,-14,19,57,89,125,163,192,180,176,139,98,59,19,-8,-31,-39,-43,-54,-54,-44,-70,-64,-78,-79,-50,-57,-41,-56,-62,-19,-10,30,73,215,374,509,590
2019-10-16,08:38:07.738,560,32,-614,-897,-1155,-1346,-1480,-1376,-985,-488,-203,-88,-50,-5,1,-12,-5,28,55,79,111,214,263,418,540,697,839,897,934,933,885,790,676,564,416,327,189,104,45,28,-7,-25,-63,-73,-109,-74,-72,-88,-88,-98,-101,-115,-127,-136,-108,-127,-147,-138,-129,-124,-119,-130,-127,-141,-163,-117,-108,-137,-138,-126,-114,-103,-94,-84,-80,-96,-115,-100,-97,-88,-97,-125,-120,-135,-108,-38,-130,-145,-90,-88,-84,-80,-24,113,701,953,338,-104,-118,-73,-74,-93,-71,-93,-89,-107,-86,-91,-97,-85,-58,-30,-28,-29,-18,36,40,96,124,113,178,167,115,127,116,54,31,26
2019-10-16,08:38:08.738,43,35,22,30,28,12,27,-20,15,30,2,31,40,-5,-15,-22,3,-37,-54,-58,-37,-51,-61,-63,-38,-27,-23,-36,-64,-65,-81,-99,-76,-52,-99,-83,-95,-60,-93,-41,493,1130,796,4,-90,-67,-110,2,-27,-21,0,-48,-66,-75,-42,-58,-68,-65,-48,-12,20,37,73,97,125,133,145,161,174,116,81,51,72,-38,-36,-46,-60,-60,-78,-46,-43,-50,-12,-50,-43,-82,-42,-88,-33,-38,-58,-52,-72,-87,-62,-87,-84,-32,-30,-52,-41,-25,-40,-51,-74,-91,-94,-75,-109,-86,-63,-55,-75,-27,399,1307,1418,363,-67,-11,-47,-72,-70,-61,-91,-96,-95,-56
2019-10-16,08:38:09.738,-109,-91,-93,-89,-91,-53,-91,-19,-25,-11,22,43,45,76,59,46,43,25,9,20,-4,-7,11,-33,-36,-48,-33,-27,-16,-48,-43,-31,-13,-4,-40,-42,-10,-27,-47,-86,-40,-54,-28,-53,-32,-53,-45,-48,-65,-61,-61,-79,-68,-75,-72,-95,-88,-88,-128,-64,477,1502,1555,358,-70,-75,-108,-110,-89,-133,-97,-149,-39,-201,-45,-228,-62,-128,-93,-114,-137,28,-98,191,-101,255,-31,253,-103,304,-24,-88,73,-160,181,-246,61,-164,-9,2,-160,169,-222,45,-145,-120,165,-113,-120,73,-166,105,-199,14,-95,-94,18,-179,24,-121,-20,-109,-86,-60,-120,-34,-112,-13
2019-10-16,08:38:10.738,-93,-97,-103,-67,-67,-102,-101,-99,-75,-13,253,925,998,117,-109,-94,-86,-58,-93,-68,-127,-75,-55,-33,-70,-119,-44,-26,11,63,4,63,137,144,179,215,176,170,157,123,82,63,35,4,-5,-32,-25,-55,-85,-102,-118,-114,-79,-99,-60,-68,-83,-54,19,-33,-53,-51,-35,-55,-36,-107,-99,-99,-84,-82,-3,-61,-132,-163,-122,-65,-50,-43,-45,-62,-168,-148,-87,-142,-101,-86,-119,-74,-123,-172,34,875,1471,805,-85,-70,-92,-63,-104,-135,-92,-114,-112,-134,-113,-129,-112,-103,-50,-65,-53,-35,-20,-1,14,27,61,71,91,60,-4,13,-12,-40,-27,-13,-29,-35
2019-10-16,08:38:11.738,-57,-42,-76,-86,-72,-108,-60,-15,-27,-30,-16,-13,-79,-58,-7,7,-65,-71,-39,-67,-34,-24,0,-42,-56,-143,-65,-28,-77,-16,-59,-35,-111,-71,-37,-34,-17,-37,-53,-46,-66,-8,-19,-8,-28,-153,-15,495,1526,1562,405,37,-9,1,-1,-20,-36,-33,-52,-79,-67,-68,-43,-43,-45,-37,15,21,33,42,30,117,107,137,106,76,125,145,63,60,115,63,53,57,35,-6,45,25,14,11,31,9,53,62,0,71,42,58,118,57,76,43,75,62,54,29,63,-23,25,40,39,56,-33,-29,20,-2,-15,-6,-4,16,-14,22,2,-17,-42,-33,-53,-13
2019-10-16,08:38:12.738,-100,-86,-95,-93,-77,-72,-73,-65,-35,-92,-81,-69,-70,-74,-63,-60,-63,-95,-48,512,1541,1516,333,0,-24,-41,-56,-57,-31,-103,-92,-93,-87,-95,-99,-96,-103,-72,-51,-69,-28,16,-7,22,35,56,79,35,36,32,22,-1,0,-19,-27,-25,-29,-49,-42,-14,-44,-22,-33,-29,-10,2,8,-15,-9,9,34,-47,-38,-13,-36,-17,-51,-39,-57,-56,-26,-127,-56,-45,-70,-47,-18,-96,-42,-68,-68,-53,-49,-108,-81,-42,-42,-153,-65,-70,-88,-59,-85,-107,-93,-120,-96,-68,-78,-31,-34,-106,-75,-44,-65,-63,-62,-20,-25,-75,-96,-74,-52,-43,-94,-14,416,999
2019-10-16,08:38:13.738,658,-80,-113,-75,-81,-91,-21,-33,-45,-87,-91,-112,-19,-131,5,-147,140,-75,193,-59,319,10,361,58,441,67,355,-57,168,72,55,0,-34,152,-174,64,-137,4,-94,-1,5,-53,18,-45,-30,-23,-25,-14,-38,-16,-62,133,71,378,331,725,620,653,-294,-442,-887,-715,-1362,-1281,-1462,-871,-506,-176,-111,1,12,-60,9,-21,164,-24,48,54,163,232,337,490,409,617,715,779,840,705,622,588,451,399,311,175,-4,28,-13,-45,9,-76,-19,-62,-60,-65,-84,-51,-127,-89,-43,-50,-131,-84,-84,-55,24,-30,-92,-99,-98,-84,-100,-89,-102,-52,-71,-94,-139,-90
2019-10-16,08:38:14.738,-22,-47,0,7,-17,23,8,-26,-3,-69,-61,-3,14,-55,-23,-48,-27,23,-42,-7,-7,-40,-34,-45,-8,-6,-65,-4,-30,-71,28,-53,-33,-53,6,-53,-73,-74,-38,-69,-29,-52,-54,-99,-95,-43,-47,-68,-39,-41,-47,-57,6,-22,-44,12,18,-48,-25,-18,-4,116,423,842,525,-135,-70,-34,-15,-27,-3,-9,-40,-52,-36,-77,-49,-22,-37,-14,24,33,95,65,37,132,162,196,178,212,204,223,173,124,117,113,94,59,39,23,70,4,41,95,50,-26,-17,39,23,2,0,49,30,-22,-3,-3,5,-21,-73,-33,-43,-58,-115,-96,-58,-35,-50,-61
2019-10-16,08:38:15.738,-94,-100,-48,-40,-84,-91,-51,-98,-96,-58,-76,-88,-53,-69,-49,117,661,838,142,-132,-53,0,-46,-95,-40,-58,-92,-104,-59,-96,-25,-115,-39,-18,21,-20,29,13,39,143,154,186,219,173,185,90,76,34,108,8,-126,0,-6,-44,-83,-37,-8,-18,-122,6,-132,-50,40,14,-128,0,40,-48,-71,-149,-84,-69,-81,-96,-136,-59,-74,-92,-86,-78,-88,-77,-98,-126,-92,-89,-106,-107,-61,-83,-100,-119,-98,-75,91,847,1166,355,-167,-120,-117,-55,-100,-66,-91,-87,-104,-105,-119,-74,-133,-104,-92,-67,-44,-31,-1,20,57,92,113,108,141,119,84,75,83,-5
2019-10-16,08:38:16.738,-13,7,-8,-24,-52,-54,-54,-49,-48,-58,-36,-26,-60,-60,-69,-60,-65,-74,-63,-156,-63,-33,-78,-95,-106,-81,-59,-64,-81,-73,-72,-70,-86,-102,-68,-117,-65,-57,-91,-96,-97,-94,-78,-27,658,1243,607,-73,-73,-101,-80,-42,-123,-62,-76,-61,-75,-84,-41,-52,-71,-40,-19,-6,26,70,117,127,143,163,194,154,137,84,86,31,8,-22,-45,-36,-82,-62,-74,-85,-21,-71,-104,-13,-120,-14,-73,-138,163,-176,-116,-12,-190,214,-199,-105,-61,-145,-60,-80,-130,19,-150,39,-227,-63,-20,-169,-57,-112,-160,136,-290,-126,73,-236,100,-193,447,1219,409,-102,47,-280
2019-10-16,08:38:17.738,242,-275,-176,160,-258,-1,-71,-208,265,-239,-130,214,-122,255,-134,184,123,0,530,140,178,346,-63,452,17,31,91,-105,187,-159,138,-127,-76,0,-220,-22,-183,86,-155,31,-113,-38,-57,-69,-80,-10,-40,-123,-62,-79,-57,-95,-66,-104,-54,-48,-60,-65,-72,-96,-65,-109,-78,-113,-152,-64,-131,-80,-78,-75,-65,-89,120,740,925,194,-161,-97,-63,-65,-78,-71,-56,-49,-64,-66,-56,-84,-65,-31,-52,-52,-7,42,60,80,117,144,109,161,137,161,17,39,80,10,-45,-5,-29,-27,-38,-93,-39,-47,-88,-60,-21,-54,-37,3,-27,-39,-26,-29,-12,6,-9,-14
2019-10-16,08:38:18.738,-68,-42,-60,-76,-89,-61,-79,-20,-1,-44,-50,-45,-40,-52,-66,-65,-73,-42,-38,-64,-45,-31,-19,-55,72,737,1379,772,-66,-23,-23,-30,-40,-29,-36,-51,-69,-58,-52,-64,-47,-61,-41,-34,-6,35,38,41,64,110,92,89,131,122,69,86,76,46,33,33,12,-21,-35,-9,-32,-62,-40,-41,-48,-14,-21,-37,-22,28,-4,-26,-1,0,-11,-8,-44,-41,-38,-55,-53,-66,-70,-50,-67,-64,-49,-52,-55,-62,-49,-41,-24,-56,-97,-86,-52,-41,-21,-50,-32,-86,-50,142,1039,1241,340,-88,-29,-53,-88,-69,-68,-50,-46,-88,-83,-62,-65,-104,-71,-51,-44,0
2019-10-16,08:38:19.738,-56,28,0,15,199,57,227,52,70,112,-77,169,-103,-12,25,-129,-32,16,-118,-145,133,-106,-127,18,-208,219,-119,-117,103,-125,-95,80,-165,124,-73,-145,127,-140,45,-76,-200,82,-302,205,-203,-11,-100,-200,74,-153,-155,36,-72,-200,180,-254,121,-257,28,-28,-163,-93,-90,-114,-104,-31,-234,133,-203,-132,133,-174,455,832,785,167,-293,55,21,-240,86,-203,-19,2,-157,77,-202,20,62,-155,49,21,-3,173,65,190,170,194,228,228,195,173,157,123,86,47,-9,2,-36,-19,-27,-64,-50,-77,-73,-73,-66,-28,-29,-32,-19,-45,-30,-31,-48,-54,-58,-37
2019-10-16,08:38:20.738,-72,-57,-53,-91,-57,-57,-68,-55,-64,-52,-95,-13,-128,-115,-85,-70,-53,-127,-114,-148,-37,-111,-100,-143,-97,-116,-138,-95,-80,-41,-87,-70,-86,-109,-85,-84,-68,-68,-93,-58,-62,-1,132,845,1113,348,-105,-82,-89,-92,-95,-84,-79,-46,-59,-59,-54,-56,-44,-38,-80,-11,24,1,28,73,113,153,135,122,156,169,130,86,58,88,47,-4,9,5,-7,-1,-58,2,-44,-52,-9,15,-61,-4,1,-12,45,10,3,11,8,-45,-27,-14,-2,15,18,-16,-31,-40,-40,-4,-11,-22,-30,-7,-33,-21,-37,-38,-36,-38,-28,-29,-28,-45,-42,-53,-57,-46,-29,-40
2019-10-16,08:38:21.738,-61,-56,-23,-43,-56,-54,-52,-54,-82,-62,-39,-28,-45,13,502,1303,1077,118,-36,-46,-23,-45,-59,-60,-76,-54,-56,-56,-28,-29,-30,-38,-53,-42,-19,13,42,70,111,144,165,188,178,164,116,109,86,62,28,15,12,-13,-2,-9,-22,-30,-37,-30,-39,-50,-51,-55,-73,-104,-114,-132,-61,-28,-10,-24,-12,44,64,71,75,19,49,-100,-57,-122,-79,-80,-107,-109,-100,-79,-40,-24,-116,39,-127,-37,-47,-14,-34,-32,0,-9,-31,-45,-32,-64,-82,17,42,78,429,717,290,-153,-85,-11,-18,-10,-33,-51,-27,-5,-13,-6,47,30,61,57,54,77,54,107
2019-10-16,08:38:22.738,97,204,200,228,260,278,250,202,163,140,98,77,31,28,-23,-21,-60,-45,-111,-30,-113,-156,-124,-109,-110,-59,-73,5,-9,-27,-46,-18,-87,-46,-9,21,-47,-53,-44,-74,-107,-100,-120,-126,-79,-94,-85,-99,-85,-89,-72,-149,-115,-11,8,-61,-25,-80,-71,-66,-59,-33,20,-8,-94,-120,-90,-64,-76,-3,160,587,483,-183,-203,-96,-120,-167,-113,-22,-25,-61,-56,-27,-14,-26,-41,-51,2,2,22,32,62,104,162,203,211,241,261,242,200,139,91,37,-5,-8,16,25,29,-13,-48,-50,-61,-92,-67,-39,-34,-50,-60,-53,-76,-54,-67,-99,-127,-3,18,598
2019-10-16,08:38:23.738,734,-62,-163,-101,-94,-92,-109,-108,-106,-9,18,25,18,27,13,28,30,33,78,102,144,188,237,265,259,236,234,187,147,57,20,-16,13,-15,-33,-43,-52,-8,-18,-9,-32,-22,4,-20,-24,-12,5,-37,-34,3,-25,24,-31,-35,-42,-62,-21,-36,-18,-46,-51,-59,-61,-51,-77,-56,-17,-50,-82,-95,-113,-118,-146,-106,-76,-74,-46,-91,-79,-98,-11,10,-17,-64,-69,-105,-35,-48,-75,-92,-79,-19,-5,-33,-109,-78,-70,-47,-72,3,-52,-70,-33,40,-24,-121,-33,138,-91,-184,-77,166,-79,-180,-138,-53,0,182,768,1001,265,-134,-83,-90,-100,-57,-71,-106
2019-10-16,08:38:24.738,14,-28,-57,-80,-37,-34,-41,-37,17,82,75,117,105,122,177,113,123,198,197,143,155,172,93,60,122,73,3,41,60,19,-8,46,43,82,17,-3,51,37,30,-5,63,-20,-10,70,2,-64,-69,22,32,-150,53,-22,59,-122,6,-35,-56,-54,54,-59,-100,21,-68,-66,-35,-42,-77,-80,2,-53,-5,155,722,695,81,-104,-33,-35,-44,-24,12,38,-103,-34,-34,-15,-87,-57,35,66,165,155,115,185,224,224,282,286,317,307,232,184,137,111,23,33,35,-3,-74,-63,-58,-59,-55,-15,-106,-91,-58,-93,-118,-103,-83,-103,-109,-64,-44,-106,-65,-75
2019-10-16,08:38:25.738,-121,-132,-77,-49,-123,-122,-95,-58,-28,-66,-99,-98,-64,38,-59,-115,-80,-20,-89,-137,-76,-138,-137,-43,166,815,1102,371,-149,-112,-54,-74,-89,-87,-8,-83,-109,-104,-84,-58,-82,-80,-82,-78,-33,7,-22,51,80,130,173,152,157,149,133,95,66,60,9,-8,10,-13,-56,-59,-18,-48,-65,-39,-66,-103,-25,-32,-21,-38,-17,-41,-46,-39,-68,-67,-72,-87,-86,-55,-63,-88,-59,-23,-28,-73,-83,-72,-63,-77,-83,-98,-68,-39,-78,-95,-85,-57,159,1017,1390,463,-90,-39,-72,-86,-76,-90,-74,-95,-83,-89,-86,-81,-45,-50,-48,-28,-53,-14,2,25,73,127
2019-10-16,08:38:26.738,88,112,143,129,113,75,46,20,-8,-8,-62,-11,-48,-40,-77,-142,-75,-32,-81,-42,-109,-32,-55,-50,-78,-1,-179,-8,-39,53,-135,-128,-111,-17,-76,-194,51,-267,-203,51,-122,-177,43,-150,-287,-71,4,11,-89,-24,-192,-199,153,-160,-114,238,1288,1084,176,-161,-213,-73,101,-104,-145,-220,135,-175,-210,-41,252,-309,-261,-72,364,-76,8,-8,255,196,153,26,480,179,130,158,-13,65,82,-102,-188,138,46,3,15,-107,179,-121,-35,2,-19,-5,29,25,62,-119,-212,121,-86,71,-81,-198,72,-229,-6,-33,-74,-54,-160,-39,-65,-118,-180,144,-202,-60,-80,-51
2019-10-16,08:38:27.738,-118,-83,-27,-59,-97,-55,-84,-55,-18,364,789,415,-164,-123,-111,-107,-70,-54,-73,-101,-54,-58,-82,-103,-40,-39,-35,-11,15,76,102,175,235,201,229,181,167,181,204,140,46,85,6,-3,-42,-83,-88,-55,-35,-37,-26,-66,-60,-22,-158,-92,-63,-82,-43,-66,-61,-57,-51,-57,-68,-70,-60,-100,-76,-48,-66,-119,-69,-89,-62,-63,-93,-76,-91,-69,-63,-138,-136,-38,-58,-27,-172,-101,-59,-71,-96,-127,-32,273,1060,1077,187,-71,-74,-69,-80,-68,-55,-81,-83,-38,-57,-30,-67,-75,-52,-25,1,-2,-17,45,53,57,135,147,151,122,133,76,68,35,15,-9
2019-10-16,08:38:28.738,-2,-42,-48,-39,-61,-101,-95,-36,-32,-46,-53,-38,31,-24,-15,-22,-19,-7,-46,-46,-66,-43,-65,-51,-31,-27,-50,-61,-77,-127,-120,-107,-77,-42,-60,-59,-58,-62,-37,-48,-62,-81,-58,-44,-97,-72,-56,-79,-93,-60,2,319,1198,1296,336,-45,-16,-24,-63,-74,-68,-85,-102,-94,-57,-36,-57,-72,-25,-44,-17,-10,1,33,64,59,127,144,139,133,124,122,76,47,17,5,33,-52,-57,-43,-46,-37,-46,-67,-60,-23,-20,-35,-55,-24,-24,-10,-44,-44,-44,-29,-37,-45,-57,-48,-36,-56,-55,-47,-47,-72,-86,-82,-87,-72,-77,-107,-70,-67,-75,-75,-71,-39
2019-10-16,08:38:29.738,-33,-48,-49,-42,-64,-70,-85,-89,-85,-60,-76,-71,-62,58,633,1203,701,-67,-42,-53,-48,-51,-70,-95,-101,-92,-77,-65,-64,-76,-70,-28,-62,-26,8,57,60,102,132,165,135,154,109,122,99,80,42,48,22,-16,-22,-13,-37,-43,-38,-59,-33,-40,-57,-68,-35,-50,-47,-11,-39,-59,-28,-10,-10,-15,-72,-50,-40,-60,-100,-63,-73,-56,-52,-69,-90,-47,-73,-48,-102,-94,-91,-109,-70,-142,-96,-33,-58,-52,-71,-73,-36,-33,-40,-64,-95,-87,-55,-49,-93,-28,-69,-53,-122,-62,170,939,1093,282,-82,-83,-98,-67,-53,-51,-74,77,-206,159,-238,62,-157,51
2019-10-16,08:38:30.738,-119,61,-61,109,1,172,17,254,66,232,168,277,101,132,30,242,-100,132,-152,221,-177,123,-112,-70,72,-86,36,-178,82,-176,119,-134,147,-111,14,-54,-81,-36,-71,22,-131,2,-92,-26,-74,-46,2,-124,-25,-76,-39,-81,-104,-66,-50,-76,-121,-81,-88,-137,-114,-61,-50,-107,-88,-54,-36,-25,-57,-64,-32,-41,-51,-48,-74,-74,-60,-53,-53,-107,-79,-8,405,924,585,-98,-96,-62,-65,-75,-64,-54,-67,-79,-71,-46,-41,-29,-47,-39,8,32,70,46,97,132,183,209,250,238,187,201,148,100,69,29,18,15,-3,-51,-10,-30,-28,-58,-58,-108,-52,-103
2019-10-16,08:38:31.738,-56,-50,-121,145,-155,77,-113,-85,2,-78,65,-74,-124,-16,-171,137,-88,-86,-112,89,-134,12,-34,-125,-37,-153,-138,9,-180,-105,-13,-126,-85,-148,56,-145,-68,-46,-91,-78,-83,-82,-35,-97,-30,-77,-62,-69,-51,-53,-68,146,740,733,-21,-170,-68,-68,-103,-74,-35,-130,-88,-32,-5,-25,-78,-72,-37,-1,-36,-7,39,86,100,161,173,187,216,192,179,181,116,119,28,49,-44,-11,1,-36,-51,-53,-75,-64,-14,-43,-59,-70,-77,-57,-50,-44,-11,-10,-19,-76,-6,-52,-88,-50,-78,-84,-46,-84,-64,-69,-77,-66,-68,-91,-72,-84,-83,-98,-69,-75,-84,-72
2019-10-16,08:38:32.738,-69,-82,-55,-68,-54,-48,-87,-53,-59,-36,-58,-39,-12,-74,-82,-82,-34,-67,32,335,1128,1001,120,-48,-113,-75,-53,-87,-90,-80,-72,-110,-54,-52,-86,-98,-51,-52,-45,-31,-9,0,56,87,124,132,150,174,175,143,80,82,31,-3,-4,-47,-62,-31,-57,-32,-30,-51,-43,-82,-66,-50,-73,-44,-52,-66,-20,-29,-31,-68,-28,-64,0,228,847,791,-95,-126,-96,-73,-71,-97,-81,-80,-66,-26,-81,-31,-49,-34,-21,15,51,57,59,150,202,214,238,252,240,225,141,137,29,6,1,-18,-44,-58,-54,-63,-72,-50,-52,-51,-113,-6,-35,-62,-45,-20,-47,-66
2019-10-16,08:38:33.738,-48,-22,-65,-38,-69,-68,-46,-56,-40,-52,-61,-46,-84,-69,-63,-58,-81,-75,-42,-58,-90,-56,-33,-63,-65,-69,-57,-63,-53,-58,-51,-70,-75,-71,-52,-47,-41,-62,-67,-69,-51,-66,-67,-59,-88,-68,-71,-77,-61,-79,-24,-71,-45,-47,-32,-141,66,-235,71,-177,104,-187,78,-199,48,-120,94,-133,105,-200,139,-221,22,-102,-64,-76,-61,241,698,1218,189,133,-198,162,-190,151,-232,2,-6,-102,51,-227,37,-135,76,-207,34,-128,84,-73,75,9,189,83,103,224,-26,434,-87,296,-28,125,15,-25,69,-3,132,-51,-25,-28,-15,-85,-1,-60,53,-74,-36,-36
2019-10-16,08:38:34.738,-28,-12,49,-22,-9,-10,22,-20,-12,9,-38,-88,-81,-78,-75,-51,-107,-80,-121,-83,-97,-73,-54,-94,-61,-91,-57,-68,-96,-76,-84,-71,-86,-54,-56,-70,-43,-34,315,797,453,-150,-131,-78,-86,-92,-68,-105,-82,-67,-73,-70,-76,-54,-59,-54,-58,46,-21,26,153,63,279,160,137,322,22,378,-8,272,-16,-86,60,74,-98,-73,-86,61,-114,-44,-261,266,-177,120,-200,222,-153,-47,80,-108,-55,-150,-74,-43,-41,-142,31,-122,-149,-97,-118,-32,35,-55,-159,-44,-22,-77,-62,-73,-51,-39,-108,-50,-94,-57,-87,-71,-47,-91,-91,-75,-65,56,619,1028,399,-143
2019-10-16,08:38:35.738,-102,-84,-34,-41,-45,-36,-36,-27,-41,-60,-43,-24,-61,-48,-37,-12,5,1,70,102,149,133,175,190,175,129,109,65,52,17,23,18,0,-4,-28,-30,-57,-55,-52,-63,-38,-3,0,-11,-17,-7,-23,-13,-20,-17,-17,-36,-59,-66,-46,-58,-74,-85,-84,-63,-72,-66,-72,-47,-60,-53,-40,-46,-67,-56,-52,-52,-55,-66,-89,-77,-89,-54,142,945,1130,277,-118,-53,-60,-79,-84,-96,-106,-116,-120,-113,-89,-77,-79,-70,-64,-78,-65,-19,18,119,133,137,128,122,163,134,113,117,6,-15,63,-6,-36,143,15,-102,-150,-156,-87,98,87,-89,-304,-53,94,42
2019-10-16,08:38:36.738,-23,-91,-102,-2,-22,38,56,-76,-153,-51,-143,-362,239,-39,-217,-2,-5,1,14,-66,-84,-93,-29,-97,-115,-22,-107,-118,-128,-182,94,-48,32,19,636,462,-250,58,282,-176,-166,-63,118,-94,-86,-140,-32,-2,17,-2,-147,-9,95,151,-90,-47,-28,332,223,207,211,179,137,95,0,8,-8,130,77,79,126,18,-33,-43,-37,-117,-126,-123,-81,-34,-86,-142,-17,7,-126,32,-44,-25,-108,-74,-69,-84,-123,-142,-177,-137,-165,-195,-197,-156,-143,-47,-45,-125,-45,-102,12,17,-29,-118,-11,112,6,-246,13,103,76,311,457,21,-146,20,-97,-143,-78,40,19,-93
2019-10-16,08:38:37.738,-90,-69,-80,-96,-23,-21,42,44,85,53,44,76,136,180,241,242,211,203,210,168,104,40,-14,-13,-40,-47,-19,-54,-121,-115,-21,-31,-100,-94,-2,25,-40,-57,-86,-46,-34,-97,-34,-56,-66,2,541,517,-226,-197,-72,-50,-41,-43,-40,-69,-89,-74,-21,-63,-99,-50,9,17,49,74,126,218,254,228,227,247,258,211,176,55,9,38,88,53,-18,-31,-40,-18,-18,-39,-33,-38,-32,-35,-37,-26,-29,-66,-15,-4,-4,-46,-36,-26,-33,-44,-55,-54,-61,-50,-73,-66,-52,-45,-37,-20,-38,-48,-79,-63,-42,-64,-45,-10,0,-24,-55,-44,-42,-64,-72,-65
2019-10-16,08:38:38.738,-70,-65,-98,-96,-72,-29,-36,-61,-75,-60,-50,-65,-91,-70,-65,-56,2,-24,44,49,-33,-24,-5,1,-19,6,-23,-30,-50,-41,1,-24,-66,6,211,947,1300,550,-44,-29,-50,-74,-103,-93,-47,-115,-83,-84,-55,-57,-123,-126,-126,-74,-96,-75,-62,-21,-20,-32,2,46,65,64,97,55,43,87,43,32,57,47,18,31,32,-11,0,-20,-10,11,-13,-27,-6,15,3,-15,-12,-2,-48,-52,-26,-63,-61,-33,-68,-73,-75,-63,-50,-71,-84,-68,-44,-49,-68,-55,-50,-71,-84,-92,-100,-54,-86,-56,-68,-58,12,435,1182,740,-157,126,-130,-161,59,-107,-183,104
2019-10-16,08:38:39.738,-150,-154,120,-159,-153,145,-97,-158,131,-159,206,-6,24,413,17,189,306,-12,312,78,0,250,-251,130,-72,-127,218,-319,49,-32,-172,251,-291,97,24,-268,126,-131,-79,171,-275,34,-25,-177,231,-195,-175,225,-143,-288,56,-92,-299,128,-158,-329,156,-102,-337,142,-10,-300,-62,127,-127,-179,-119,-104,-94,-92,-105,-110,-103,-119,-122,-116,-85,5,333,754,462,-162,-165,-121,-118,-126,-130,-119,-109,-108,-105,-115,-103,-92,-84,-53,-68,-40,-27,-13,31,50,80,110,134,153,144,135,105,82,62,26,10,-7,-27,-42,-49,-52,-48,-32,-38,-41,-44,-33,-53,-55,-63,-57
2019-10-16,08:38:40.738,-83,-69,-71,-57,-49,-54,-57,-44,-54,-64,-74,-90,-84,-74,-65,-89,-82,-78,-58,-69,-78,-73,-64,-57,-46,-57,-65,-42,-56,-55,-64,-57,-48,-55,-59,-41,248,1103,1411,544,-39,-32,-63,-73,-35,-31,-47,-61,-71,-61,-115,-126,-62,-71,-88,-70,-36,-37,-60,-19,2,19,40,59,58,60,58,60,39,15,-15,-17,-10,-9,7,2,6,12,41,12,-14,-27,-8,-12,-4,3,4,13,11,9,-5,-37,1,441,1252,1010,71,-19,-20,-43,-67,-69,-63,-60,-57,-58,-55,-57,-49,-43,-34,-29,-18,-2,18,29,46,64,84,91,81,67,42,27,14,5,-16,-27
2019-10-16,08:38:41.738,-47,-66,-41,-38,-57,-53,-66,-50,-36,-45,-34,-26,-42,-60,-40,-51,-29,-40,-55,-56,-68,-50,-52,-57,-48,-58,-78,-65,-57,-85,-82,-49,-48,-43,-75,-80,-67,-53,-59,-70,-60,-61,-58,-65,-76,-59,-42,-42,-19,7,-9,-71,-68,-73,-53,-27,-38,-96,-69,-47,-53,-57,-68,-55,-95,-52,-117,-83,-56,-42,-31,-67,-84,-59,-49,-75,-53,-51,-44,-53,-46,-11,-54,-69,-16,141,953,1319,568,-3,-61,-58,-60,-88,-90,-89,-100,-106,-83,-73,-55,-28,-28,-29,-28,23,21,7,5,31,24,30,37,44,32,58,23,-16,-1,12,5,-25,2,-8,-13,-10,7,0
2019-10-16,08:38:42.738,15,-16,16,0,13,27,-26,-29,-4,-10,28,-53,-26,-37,-42,-69,-57,-45,-100,-110,-71,-87,-105,-95,-61,-78,-120,-81,-86,-72,-86,-95,-100,-118,-109,-104,-88,-91,-107,-89,97,1026,1807,1053,-32,-22,-50,-44,-79,-78,-105,-111,-60,-61,-86,-85,-84,-73,-34,-112,-83,-47,-12,20,31,57,35,45,92,72,78,85,22,49,-11,-16,-45,-23,-32,-46,-71,-59,-57,-26,-37,-90,-52,-108,-62,-45,-31,-29,-34,0,-60,-21,-33,-14,-48,-63,-22,-62,-70,-48,-41,-132,-278,-89,-66,-141,-160,-137,-126,-190,-174,-172,-193,-88,-139,-62,-110,-39,-181,-105,-76,-107,-31,-105
2019-10-16,08:38:43.738,58,959,1759,1007,25,1,-58,50,-75,-78,-98,-139,-43,-58,-56,-63,-98,-47,-89,-140,-104,-37,-16,-98,-70,-154,-135,-49,-70,-70,-26,5,-35,-25,-64,-6,8,-70,-57,94,-29,-67,-8,-39,-21,-121,18,-44,-124,23,8,3,-136,14,-23,-98,18,-24,-109,-5,-2,-71,-99,-70,-81,-47,-28,-12,-123,23,-25,18,-81,-37,-25,-50,-67,18,-38,-70,26,-68,35,1037,2270,1826,347,123,-6,-4,-69,-154,-109,-54,-97,-143,-82,-102,-72,-104,-103,-127,-146,-206,-56,-103,-167,-143,-154,-127,-158,-217,-110,-9,0,-32,-75,-42,-131,-2,9,-9,-86,-44,-47,-14,-94,-15
2019-10-16,08:38:44.738,-32,-69,-57,-51,8,-20,-18,-8,-73,-58,-9,-23,-41,-14,-21,-40,-18,-28,-94,-71,28,-57,-101,-124,-49,-71,-86,-56,-23,-48,-47,-63,-54,-32,-65,-57,16,-22,-29,-62,-80,-29,-1,-71,-66,461,1693,2260,955,164,55,-47,-87,-56,-88,-88,-89,-59,-115,-144,-111,-81,-88,-138,-130,-136,-172,-125,-122,-131,-189,-143,-192,-165,-144,-96,-84,-83,-93,-62,-97,-108,34,-76,-24,-21,-61,-17,-67,-25,-118,54,-49,15,-65,-34,15,-25,-58,-32,41,-47,-64,-24,-22,-39,-127,-43,-54,-119,-71,-34,-57,-52,-60,-39,-80,-36,-13,-46,-70,-28,-32,-102,-69,-93,-15,-18
2019-10-16,08:38:45.738,-109,155,1397,2298,1139,138,112,-2,-101,-86,-59,-97,-147,-131,-53,-91,-212,-63,-47,-121,-136,-120,-122,-159,-117,-123,-117,-133,-90,-133,-72,-85,-71,-126,-66,-104,-79,-40,-17,-8,-77,-48,-51,-79,-87,-6,-26,-49,-42,-59,-129,32,-57,-6,-19,-23,-106,-29,-18,-46,-92,-34,-36,-82,-100,-92,-130,-45,-69,-63,-58,-62,-63,-103,-18,-82,-54,-29,-30,-39,-68,-104,-50,-45,-57,-108,277,1544,2167,875,102,17,-65,-108,-60,-105,-66,-121,-124,-62,-91,-97,-145,-131,-111,-133,-105,-85,-105,-133,-121,-97,-125,-118,-114,-127,-113,-48,-50,-51,-61,-78,-60,-52,-51,-7,-54,-66
2019-10-16,08:38:46.738,-26,-36,-52,-33,-115,-6,1,-38,-37,1,-30,-28,-92,-68,14,-63,-73,-72,-81,-118,-102,-74,-62,-60,-32,-22,-19,-67,-65,-68,-51,-84,-30,-10,-47,-47,-44,-47,-103,159,1446,2226,956,128,75,-8,-87,-97,-108,-140,-133,-123,-65,-80,-85,-94,-151,-129,-90,-113,-93,-120,-103,-112,-98,-83,-76,-66,-102,-59,-52,-77,-51,-88,-39,-12,-22,-44,-96,-32,-61,-59,-14,-9,-43,-95,-31,-51,-47,-20,-38,-35,-80,-75,-22,-31,-63,-98,-75,-108,-115,-46,-48,-90,-65,-75,-73,-108,0,-32,-73,-33,-80,-82,-44,-36,-80,-57,-54,135,1271,2015,868,70,-4,-34,-73,-91
2019-10-16,08:38:47.738,-106,-112,-87,-99,-100,-105,-87,-69,-76,-117,-87,-38,-141,-71,-89,-48,-18,0,-59,-35,52,-12,-8,-5,-18,-28,-42,-71,-3,-55,-4,14,-58,-60,-97,27,-11,-63,6,-17,-61,-17,-64,-20,52,-15,-10,-60,-52,-54,-68,-54,-63,-83,-79,-59,-66,-85,-65,-41,-89,-24,-48,-59,-58,-98,-83,-124,-10,-25,-57,-140,19,893,1767,945,34,-30,-34,-72,-88,-115,-134,-63,-37,-69,-95,-67,-112,-77,-71,-81,-94,-41,-29,-67,-14,-13,-19,40,11,-9,8,23,18,5,-32,-37,-25,-22,-29,-42,36,-2,-32,-50,1,-18,-31,-51,-27,0,0,-65,-6,-31,7,12
2019-10-16,08:38:48.738,-39,-78,-109,-156,-56,-45,-25,-60,-47,-86,-97,-85,-141,-21,-9,-68,-61,-99,-79,-75,-77,-60,-33,-95,-34,843,1782,904,-42,0,-31,-83,-99,-85,-94,-95,-129,-75,-95,-54,-44,-98,-99,-147,-122,-155,-47,-61,-75,13,34,-13,-60,-1,43,23,14,-51,-43,-35,-32,-82,-83,-23,-42,-108,-50,-24,-42,-66,-56,-105,-53,-30,-32,-38,-44,-77,-90,-87,-126,-78,-80,-94,-95,-100,-118,-125,-140,-139,-194,-81,-88,-96,-89,-92,-102,-91,-58,-63,-40,-47,-85,-32,-76,-39,586,1504,1014,-8,-46,-43,-59,-92,-27,-19,-64,-102,-96,-90,-114,-86,-34,-32,-28,0,8,11
2019-10-16,08:38:49.738,33,52,120,151,168,191,193,182,148,100,81,45,-11,-9,-34,-19,-26,-8,-25,-7,-41,-7,17,5,-12,-12,-30,-43,-17,-25,-22,-19,1,6,6,-13,-39,-72,-54,-82,-69,-67,-72,-68,-32,-39,-79,-96,-55,-79,-40,-75,-56,-16,-71,-65,-40,-38,156,538,484,-120,-208,-112,-74,-80,-75,-77,-73,-74,-69,-56,-35,-37,-33,-20,-2,-3,22,39,86,126,158,187,211,222,216,191,160,125,95,64,48,24,-3,-13,-49,-52,-40,-47,-45,-51,-59,-53,-52,-53,-51,-56,-36,-50,-55,-43,-49,-49,-74,-51,-85,-103,-140,-110,-97,-74,-83,-91,-66,-60,-59,-49
2019-10-16,08:38:50.738,-53,-53,-68,-62,-86,-62,-51,-75,-59,-53,46,286,603,278,-225,-137,-89,-59,-75,-40,-57,-28,-42,-33,-47,-40,3,-23,-6,14,24,47,75,120,160,175,231,231,238,253,237,196,153,95,92,47,-6,27,28,14,-15,1,-5,-1,-2,22,-8,-4,-9,2,-40,-20,11,-22,-17,-47,-34,-50,-61,-99,-85,-90,-78,-93,-105,-85,-76,-59,-61,-92,-112,-55,-73,-77,-62,-112,-95,-120,-114,-112,-10,156,570,684,2,-220,-134,-100,-93,-132,-103,-54,-95,-60,-68,-98,-66,-101,-75,-54,-52,-32,-13,47,101,145,162,201,221,213,154,177,149,99,29,14,-1,-22
2019-10-16,08:38:51.738,-61,-132,-34,-11,0,-46,-84,-49,-32,-34,-77,-71,-15,-34,-58,-45,-47,-4,-52,-10,1,-35,-69,-79,-98,-76,-58,-74,-65,-42,-48,-29,-52,-85,-99,-46,-62,-59,-78,-88,-66,-93,1,229,971,1102,213,-132,-69,-55,-58,-94,-76,-67,-77,-72,-88,-47,-80,-67,-68,-74,-65,-44,-34,-12,38,81,86,120,147,140,106,132,69,91,74,27,12,-2,-58,-38,-17,-49,-97,-23,-27,-40,-70,-35,-57,-25,-20,-38,5,1,-10,-14,-11,-37,-9,11,-35,-45,-13,-49,-18,-70,-75,-46,-61,-42,-65,-35,-42,-59,-42,-3,-39,-63,-54,-47,-56,-66,-38,-59,-66,-3
2019-10-16,08:38:52.738,549,1367,1110,54,-80,-48,-59,-144,-97,-122,-134,-83,-66,-91,-69,-90,-96,-96,-63,-86,-24,16,30,59,64,99,93,126,151,157,102,65,58,34,0,0,-21,-23,-18,-58,-20,-30,-29,-38,-41,-25,-14,-58,-51,0,-48,-41,-47,-32,-93,-54,-11,-45,-71,-53,-33,-52,-64,-68,-57,-58,-68,-53,-37,-78,-69,-72,-88,-80,-78,-85,-65,-69,-89,-83,-93,-41,-37,-63,-52,-49,-38,-40,-75,-60,-55,-56,-34,-77,-64,-69,-76,-79,-62,-23,4,676,1264,742,-70,-80,-64,-85,-71,-83,-87,-67,-80,-106,-86,-83,-58,-47,-34,-34,11,-12,2,42,50,124,162,178
2019-10-16,08:38:53.738,221,216,195,175,142,103,71,59,38,9,8,0,-20,-20,-22,-31,-31,-24,-44,-43,-32,-22,-32,-43,-38,-37,-15,-2,0,-15,-3,0,-8,8,6,3,8,9,4,2,0,-10,-1,-8,-24,-9,-5,3,-16,-44,25,48,21,22,35,21,6,-10,-22,-18,-28,-28,-34,-46,-34,-45,-50,-15,-19,-36,-49,-39,-48,-35,-6,-27,-41,-51,-55,-61,-37,-33,-30,-43,28,362,1154,1145,109,-125,-81,-50,-72,-67,-81,-64,-68,-88,-81,-40,-67,-102,-80,-38,-30,3,-4,52,98,131,168,232,244,264,257,250,214,185,115,71,37,8,-13,-28,-45,-58,-64,-52
2019-10-16,08:38:54.738,-64,-76,-42,-52,-60,-53,-58,-60,-39,-54,-24,10,29,66,188,355,504,682,808,713,-83,-574,-837,-1205,-1530,-1759,-1466,-867,-416,-153,-87,-67,-50,-37,0,2,9,10,6,42,84,159,240,315,433,540,677,813,865,925,893,816,679,518,398,261,136,104,65,22,28,-16,-28,-19,-26,-36,-47,-60,-41,-27,-41,-34,-34,-42,-34,-59,-69,-58,-53,-71,-56,-57,-71,-87,-68,-33,-67,-71,-62,-59,-78,-54,-76,-89,-52,-57,-74,-94,-52,-57,-70,-77,-92,-67,-83,-76,-55,-26,-45,-51,-70,-79,-97,-54,-63,-79,-47,-56,-68,-89,-75,-57,-60,-39,-21,-49,-79,-69
2019-10-16,08:38:55.738,-61,-84,-79,-78,-84,-72,-44,-38,-75,-73,-60,-64,-39,-36,-92,-101,-33,-42,-88,-96,-67,-93,-69,-67,-58,-65,-33,-46,-63,-38,-5,-34,-30,-41,-50,-91,-64,-22,-43,-40,-56,-36,-48,-12,274,1032,1109,257,-57,-55,-27,-70,-57,-47,-53,-74,-77,-67,-51,-45,-53,-38,-42,-50,-43,21,50,46,54,107,104,119,142,109,115,101,106,107,105,91,59,35,33,27,42,21,14,11,12,-14,-18,1,11,-6,1,-6,2,-9,-21,-14,-6,-31,-53,-34,-10,-34,-59,-62,-59,-67,-100,-44,-71,-74,-84,-106,-102,-137,-110,-101,-66,-90,-67,-94,-89,-69,-61,-61
2019-10-16,08:38:56.738,-63,-90,-79,-68,-71,-91,-60,-75,-80,-71,-43,186,1045,1382,431,-121,-64,-85,-113,-100,-70,-67,-70,-67,-106,-93,-72,-45,-44,-72,-71,-48,-30,-48,35,62,50,127,171,170,183,142,110,93,101,35,13,7,-14,-63,-77,-20,-46,-56,-49,-46,-29,-49,-65,-55,-32,-48,-46,-42,-65,-63,-43,-32,-83,-26,-57,-76,-38,-44,-60,-77,-69,-93,-91,-90,-83,-95,-73,-80,-63,-41,-61,-93,-36,-58,-81,-68,-76,-84,-107,-123,-63,-52,-56,-115,50,561,1318,954,-33,-102,-93,-63,-72,-67,-85,-89,-97,-99,-92,-100,-118,-121,-89,-106,-45,-36,-34,-30,-12,1,18,-5
2019-10-16,08:38:57.738,51,89,69,93,82,56,29,4,-25,-38,-33,-46,3,0,-25,-40,-53,-43,-33,-52,-64,-15,-5,-36,-20,-17,-23,-45,-18,-16,-44,-57,-52,-44,-29,-38,-55,-75,-81,-99,-99,-125,-117,-85,-80,-80,-25,-9,-59,-46,-28,-46,-60,-77,-93,-76,-73,-70,-50,-67,-86,-73,277,1446,1808,541,-31,-38,-49,-85,-105,-149,-93,-92,-122,-83,-96,-121,-123,-105,-74,-64,-46,-53,-47,-36,-13,2,50,68,54,65,51,39,17,-7,5,-1,-35,-26,-15,-21,-66,-24,-31,-65,-15,-18,-35,-33,-35,-51,-77,-43,-45,-1,-12,-36,-26,-33,-26,-86,-36,-25,-52,-94,-69,-85
2019-10-16,08:38:58.738,-95,-118,-115,-76,-57,-82,-48,-92,-60,-48,-70,-58,-74,-90,-91,-64,-80,-89,-79,-94,-95,-81,29,870,1637,880,-74,-59,-38,-53,-81,-100,-100,-98,-106,-129,-109,-121,-20,-40,-62,-52,-55,-26,-8,25,43,77,90,133,140,122,179,141,98,61,34,10,-8,-23,-44,-22,-28,-29,-21,-42,-40,-36,-23,-47,-39,-43,-51,-31,-27,-55,-74,-35,-26,-39,-42,-46,-40,-55,-46,-50,-20,-44,-42,-46,-60,-55,-50,-86,-85,-20,-19,-19,-43,-46,-49,-61,-35,-42,-59,-43,-33,-52,-68,-61,-68,-66,-106,-43,156,965,1385,427,-170,-106,-89,-109,-80,-79,-75,-55,-45,-61
2019-10-16,08:38:59.738,-76,-85,-83,-58,-49,-76,-48,-36,-19,15,70,119,136,163,165,153,147,121,87,60,32,52,37,-15,-41,-49,-55,-64,-87,-74,-35,-26,-25,-43,-26,-31,-36,-50,-60,-62,-72,-39,-45,-30,-28,-20,-34,-35,-59,-83,-76,-132,-166,-203,-187,-152,-131,-95,-60,-65,-77,-77,-81,-109,-80,-55,-82,-97,-105,-94,-73,-83,-68,-73,-91,-29,359,1155,1033,42,-169,-99,-49,-38,-92,-87,-92,-95,-90,-98,-62,-47,-40,-44,-25,-34,-41,-23,4,31,76,92,122,141,125,159,148,120,75,44,0,-7,-24,-41,-43,-20,-31,-40,-39,-50,-39,-32,-50,-34,30,-5,-46,-26
2019-10-16,08:39:00.738,-5,-5,-8,-31,-36,-37,-53,-33,-71,-28,-10,-13,-52,-50,-58,-62,-54,-83,-74,-107,-99,-84,-67,-38,-11,-24,-53,-28,-31,-54,-89,-86,-67,-62,-51,-74,-38,-39,-56,-40,441,1182,845,-43,-82,-59,-60,-65,-92,-65,-70,-84,-43,-40,-68,-68,-53,-49,-35,-19,-27,-1,7,44,58,59,99,109,104,87,76,44,31,12,-9,-45,-30,-33,-69,-50,-34,-42,-31,-15,-20,-35,-42,1,3,-5,-18,-15,2,4,-21,-47,-30,-33,-50,-18,-30,-49,-66,-53,-42,-49,-62,-61,-84,-65,-73,-105,-89,-80,-67,-73,-83,-98,-47,-53,-50,-94,-39,-36,-49,-69,-67,-64
2019-10-16,08:39:01.738,-110,-52,-54,-48,-61,-42,119,918,1306,476,-139,-60,-58,-84,-68,-63,-72,-77,-73,-66,-69,-62,-64,-40,-27,-36,-29,-34,24,46,81,130,154,157,188,175,151,118,92,38,80,64,20,0,-49,-17,-22,-19,-54,-93,1,-7,-5,-24,-24,-34,-28,-13,-24,-51,-30,-14,-7,-37,-33,-57,-75,-33,-29,-14,-67,-82,-68,-66,-61,-80,-68,-89,-83,-82,-66,-89,-66,-72,-39,-62,-46,-82,-58,-69,-44,-42,-52,-80,-62,-60,-76,-60,-53,-85,-86,125,983,1593,799,-105,-61,-58,-55,-86,-111,-101,-87,-124,-75,-62,-90,-115,-107,-92,-98,-84,-92,-60,-43,-38,-30,26
2019-10-16,08:39:02.738,41,47,32,45,12,29,28,-39,-38,-49,-51,-45,-69,-53,-109,-61,-59,-77,-57,-81,-82,-82,-75,-87,-100,-70,-39,-77,-61,-53,-68,-65,-93,-71,282,1180,825,-120,-118,-68,-79,-93,-68,-56,-67,-50,-58,-38,-33,-34,-30,-19,-11,6,16,47,60,104,168,189,171,157,146,139,81,-13,60,30,-4,-23,-32,-32,-42,-47,-35,-37,-65,-32,-32,-5,-12,-24,-40,-29,-28,-44,-51,-39,-54,-41,-40,-32,-46,-39,-35,-33,-45,-39,-28,-33,-46,-51,-45,-56,-53,-33,-54,-26,-27,-11,-39,-36,-44,-54,-52,-37,-37,-49,-63,-38,-29,-45,-64,-66,-26,-28,-45,-54
2019-10-16,08:39:03.738,-27,-34,-36,-36,-46,-45,-48,-65,-24,-24,-29,-29,-53,-45,-36,-35,-44,-59,-91,-54,-49,-51,-43,-82,-79,-84,-90,-112,-140,-134,-137,-124,-107,6,36,-6,0,0,1,26,1,-20,-40,-54,-57,-61,-58,-71,-99,-116,-49,153,864,1145,425,-49,5,6,-5,-13,-22,-20,1,-18,-16,-56,-57,-72,-79,-39,-49,-47,1,33,69,49,76,116,135,155,179,175,181,176,152,106,87,51,41,27,22,38,24,16,40,52,62,66,57,49,48,72,29,18,7,-15,-3,29,7,-15,-21,-36,-28,-33,-41,-67,-79,-98,-80,-29,-18,-16,-17,-21,-47,-61,-61,-67
2019-10-16,08:39:04.738,-75,-80,-77,-92,-76,-64,-30,-24,-25,-29,-40,-41,-50,-53,-73,-77,-66,-66,-65,-56,-32,-36,-32,-20,-1,103,653,1065,435,-167,-95,-76,-121,-174,-173,-213,-107,-76,-43,-9,5,81,44,43,35,6,-8,-6,-6,51,84,90,115,127,126,142,156,147,124,94,49,18,-40,-110,-195,-202,-178,-144,-141,-126,-133,-132,-105,-75,-49,-44,-54,-68,-46,-6,-3,34,24,-12,-40,-38,-90,-118,-73,-43,-84,-31,-36,-61,-29,-20,-23,-18,0,-42,-34,12,16,9,-26,-59,-80,-85,-87,-80,-132,-103,-96,-89,-105,-74,-67,57,500,912,470,-58,-36,-40,-10,-19,-36,-7
2019-10-16,08:39:05.738,-42,-23,-56,-72,-18,-28,-24,-1,5,21,40,78,111,148,148,195,236,265,242,218,196,77,-20,-32,-6,-40,-80,-67,-50,-45,5,29,64,152,86,43,30,-31,-46,-71,-42,-109,-145,-173,-145,-106,-131,-102,-66,-29,-9,-20,-8,-5,-66,-77,-107,-111,-156,-117,-111,-133,-137,-159,-157,-135,-118,-102,-76,-32,-35,-61,-57,-73,-50,-79,-4,109,360,342,-170,-288,-197,-149,-151,-125,-94,-84,-70,-58,-57,-63,-59,-63,-65,-37,14,-4,13,32,64,103,153,195,237,280,298,288,268,218,191,165,116,98,86,79,49,59,49,99,60,92,111,76,61,48,42,46
2019-10-16,08:39:06.738,41,9,33,10,21,-10,-36,-34,-59,-70,-60,-80,-94,-94,-93,-90,-85,-86,-99,-109,-110,-114,-99,-110,-135,-120,-115,-114,-124,-110,-117,-87,56,175,372,201,-327,-272,-180,-130,-143,-135,-134,-125,-111,-128,-117,-89,-80,-114,-74,-47,-35,-17,20,57,135,155,206,272,319,331,326,269,226,213,123,67,28,14,30,25,-60,-16,-38,-24,-60,-2,-22,-71,-30,-40,-2,-8,-34,-61,-79,-24,-8,-54,-117,-100,-55,-62,-48,-27,-104,-153,-135,-94,-64,-69,-102,-104,-118,-62,-83,-89,-106,-86,-65,20,257,842,767,-3,-125,-52,-39,-28,-30,-41,-59,-47,-50,-74,-79,-70
2019-10-16,08:39:07.738,-69,-75,-45,-13,9,34,64,93,136,162,186,254,265,255,241,210,163,107,73,40,48,26,2,-7,-6,-17,-22,-32,-35,-30,-18,-26,-7,-9,-6,17,17,-2,-10,-16,-42,-7,-54,-76,-55,-78,-67,-84,-72,-134,-53,-55,-131,-124,-129,-150,-153,-151,-137,-151,-113,-96,-24,193,629,458,-220,-197,-108,-99,-100,-102,-117,-104,-111,-91,-111,-65,-57,-61,-47,-43,-20,20,-8,29,79,118,170,190,229,219,185,159,159,106,31,35,3,-25,-38,-17,-7,-43,-36,-43,-51,-59,-70,-62,-35,-18,-33,-29,-30,-42,-48,-38,-36,-48,-64,-63,-57,-40,-34,-36,-25,-17
2019-10-16,08:39:08.738,-28,-39,-40,-61,-48,-61,-57,-52,-53,-60,-63,-57,-55,-10,322,970,811,-3,-104,-61,-58,-68,-76,-86,-75,-64,-58,-66,-50,-52,-48,-45,-46,0,47,68,110,140,189,211,204,237,248,234,196,139,83,59,5,-8,-36,-58,-59,-56,-85,-106,-103,-81,-155,-125,-126,-108,-112,-91,-108,-138,-162,-137,-148,-127,-107,-176,-147,-110,-107,-96,-49,-58,-88,-75,-66,-32,-96,-58,-24,-39,-2,0,-46,0,-10,86,307,760,932,109,-122,-31,-97,-82,-115,-61,-33,-13,-7,-143,-86,-71,-31,-39,-23,32,-22,-43,85,101,112,151,223,197,171,171,217,110,60,101,70,18
2019-10-16,08:39:09.738,-18,-24,-43,-96,-104,-50,-111,-34,-52,-7,-64,-24,-66,-5,-67,-62,-106,-121,-134,-176,-72,-1,-86,-120,-81,-141,-111,-86,-36,-64,-93,-73,-109,-121,-147,-130,-117,-113,-88,-127,-17,547,863,283,-202,-128,-133,-145,-138,-148,-122,-38,-101,-91,-87,-62,-123,-148,-141,-105,-113,-150,-61,-72,-7,61,161,86,96,95,121,126,52,34,43,-35,-59,-90,-85,-68,-56,-7,9,-4,-9,-21,0,10,21,35,50,25,6,-16,-9,-10,-13,-12,0,-18,-12,-25,-38,-32,-17,-15,-20,1,11,3,0,-46,-46,-63,-68,-116,-46,100,656,766,103,-154,-82,-41,-54,-69,-68,-82
2019-10-16,08:39:10.738,-77,-75,-56,-44,-32,-7,-48,-10,0,27,43,99,144,155,186,242,246,244,190,144,126,115,114,72,-1,4,-47,-37,-38,-43,-21,-18,-50,-52,-15,-17,-43,-15,17,-19,-30,-5,-43,-9,8,-43,-58,-46,-31,-48,-55,-34,-67,-50,-74,-89,-54,-74,-68,-70,-94,-64,-89,-79,-93,-105,-34,200,1046,1321,352,-151,-80,-97,-140,-171,-160,-137,-129,-141,-112,-111,-100,-125,-101,-118,-97,-84,-75,-75,-25,39,72,91,112,115,76,67,87,35,28,6,-4,-37,-44,-82,-112,-43,-54,-59,-60,-64,-43,-81,-70,-63,-114,-42,-44,-44,-70,-68,-86,-116,-149,-137,-43,-74
2019-10-16,08:39:11.738,-56,-58,-68,-76,-100,-72,-84,-107,-67,-94,-105,-101,-55,-57,-86,-31,347,1164,1126,103,-122,-75,-86,-84,-77,-93,-82,-90,-118,-116,-101,-83,-66,-90,-74,-72,-59,-58,-21,25,59,91,121,104,102,102,60,46,62,58,36,-2,0,-13,-46,-72,-31,-47,-45,-29,-17,-25,-29,-44,-32,-24,-39,-37,-40,-45,-63,-47,-79,-85,-59,-27,-67,-91,-57,-55,-48,-60,-65,-88,-60,-64,-94,-93,-82,-71,-59,-101,-24,454,1411,1385,210,-92,-103,-85,-91,-106,-120,-91,-120,-117,-110,-120,-138,-126,-107,-87,-119,-86,-59,-52,-37,-50,-10,15,40,38,34,27,16,5,0,-52
2019-10-16,08:39:12.738,-35,0,-22,-39,-55,-59,-57,-58,-79,-58,-30,-90,-27,-39,-49,-54,-65,-75,-136,-72,-78,-65,-64,-56,-58,-76,-100,-62,-36,-45,-102,-74,-79,-69,-77,-97,-112,-71,-86,-119,-64,30,633,1658,1462,180,-47,-75,-104,-133,-103,-109,-141,-128,-93,-111,-113,-118,-123,-120,-100,-73,-39,-31,-71,9,17,32,46,44,46,56,38,33,36,8,-8,-36,-12,-14,-28,-45,-47,-44,-58,-71,-56,-30,-36,-59,-67,-35,-36,-48,-51,-61,-57,-63,-77,-76,-90,-106,-64,-42,-44,-60,-76,-65,-72,-73,-98,-87,-78,-71,-75,-80,-56,-77,-86,-95,33,820,1757,1227,67,-47,-61,-110
2019-10-16,08:39:13.738,-96,-78,-85,-89,-113,-101,-85,-104,-72,-102,-101,-102,-99,-78,-92,-7,16,23,46,58,66,72,52,27,3,-43,18,-26,9,-18,-43,-48,-62,-76,-38,-32,-60,-51,-31,-28,-47,-53,-44,-56,-84,-32,-58,-74,-67,-102,-80,-93,-105,-87,-76,-65,-59,-56,-58,-76,-78,-103,-69,-48,-66,-84,-63,-64,-78,-108,-106,-86,-51,377,1377,1415,259,-42,-47,-65,-74,-80,-92,-89,-84,-94,-87,-69,-71,-94,-83,-70,-66,-63,-34,-10,0,4,31,86,78,64,48,44,8,-12,22,27,3,-11,-5,-31,-28,-20,-30,-36,-55,-60,-59,-23,-31,-34,-67,-71,-68,-70,-91,-62
2019-10-16,08:39:14.738,-32,-46,-23,-63,-86,-98,-123,-147,-175,-42,4,-5,31,-17,-65,-93,-120,-162,-176,-84,-44,-1,-17,-94,-93,-98,-3,783,1550,851,-13,-7,-55,-136,-166,-111,-105,-131,-71,-32,-10,-27,-67,-94,-140,-49,-28,-26,-38,-52,-37,0,24,70,106,123,95,56,22,-6,-12,-39,8,-37,-48,-21,-30,-55,-79,-22,20,2,-53,-105,-119,-67,-49,-82,7,17,-26,-56,-89,-92,-96,-108,-120,-124,-67,-66,-80,-106,-112,-99,-62,-54,-47,-21,-33,-57,-35,-62,-92,-117,-107,-106,-58,3,251,1101,1237,234,-103,-54,-73,-118,-127,-122,-125,-94,-104,-38,-9,-23,-20,-50,-86,-110
2019-10-16,08:39:15.738,-72,-23,18,46,41,37,27,27,42,36,30,59,85,52,-2,-50,-69,-72,26,54,88,25,-67,-104,-60,-67,-10,61,58,47,-12,-45,-90,-74,-99,-52,0,-6,-62,-83,-89,-94,-73,-53,-59,-53,-65,-85,-74,-70,-68,-43,-32,-23,-19,-29,-54,-66,-78,-96,61,980,1622,687,-50,-33,-44,-71,-82,-77,-69,-87,-74,-55,-54,-86,-118,-105,-79,-80,-64,-63,-44,-32,-32,-43,-32,-33,-11,-31,-33,21,42,18,13,-5,-22,-26,-34,-62,-31,13,-22,-15,-47,-51,-31,-32,-32,-27,-49,-43,-50,-19,-12,-66,-69,-78,-77,-77,-78,-72,-74,-86,-48,-45,-72,-65
2019-10-16,08:39:16.738,-65,-70,-81,-92,-87,-39,-44,-82,-74,-83,-57,-99,-13,735,1742,1162,48,-23,-51,-71,-94,-110,-137,-93,-73,-81,-73,-98,-109,-122,-134,-102,-52,-41,-56,-32,-20,10,17,-7,63,42,21,0,-21,-28,-42,-39,-71,6,-8,-26,-55,-58,-51,-70,-37,-53,-39,-2,-24,-35,-27,-35,-23,-49,-40,-19,-66,-69,-82,-73,-90,-105,-102,-108,-79,-66,-66,-62,-48,-57,-67,-77,-75,-90,-118,-43,-42,-61,-75,-84,-110,-90,294,1360,1483,318,-20,-10,-41,-73,-88,-89,-101,-114,-102,-105,-80,-73,-89,-74,-65,-76,-74,-72,-43,-35,12,23,48,50,49,33,15,2,-3,-6
2019-10-16,08:39:17.738,5,-3,0,-34,-46,-41,-47,-37,-37,-54,-37,-38,-48,-34,-49,-41,-42,-41,-36,-39,-27,-84,-23,-25,-49,-48,-57,-80,-109,-65,-66,-54,-33,-76,-55,-76,-92,-65,-47,-55,-50,-54,-57,-76,-66,-64,-54,260,1260,1372,224,-105,-54,-66,-95,-66,-22,-42,-69,-60,-47,-51,-78,-87,-23,-23,-10,-20,-12,-4,20,8,37,96,130,112,99,110,104,92,33,0,-23,-27,-18,-42,-56,-41,-66,-63,-71,-72,-10,5,11,-10,-43,-59,-81,-146,-150,-45,7,26,-16,-47,-62,-86,-114,-122,-119,-121,-72,-54,-65,-89,-120,-157,-189,-181,-84,-7,63,74,21,-29,-63,-127
2019-10-16,08:39:18.738,-126,164,1016,1035,105,-124,-67,-81,-115,-123,-68,-48,-61,-68,-97,-74,-63,-70,-61,-59,-67,-58,-42,-28,17,60,84,94,98,80,62,54,118,92,54,16,-17,-41,-55,-60,-36,-36,-42,-68,-20,1,-24,-61,-82,-95,-55,-52,-32,-52,-51,-24,-10,-25,-41,-70,-99,-112,-120,-61,-37,-72,-33,-51,-43,-71,-86,-104,-90,-70,-51,-59,-67,-38,-40,-66,-79,75,871,1316,473,-97,-21,-8,-32,-63,-79,-78,-80,-97,-83,-71,-55,-66,-59,-58,-52,-78,-64,-63,-47,-23,29,38,53,46,45,57,61,31,10,-1,-8,-28,-20,-15,-41,-24,-28,-42,-23,-17,-35,-39
2019-10-16,08:39:19.738,-9,0,-21,-29,-33,-36,-55,-57,-19,-32,-27,-57,-64,-71,-93,-89,-95,-101,-102,-43,-55,-50,-100,-67,-37,-18,-41,-76,-39,-59,-68,-100,-137,-101,382,1527,1539,259,-40,-61,-90,-88,-86,-84,-105,-100,-105,-77,-91,-110,-123,-121,-129,-68,-23,3,0,-11,-9,5,22,27,11,36,63,49,1,-19,-36,-38,-41,-29,-45,-46,-59,-61,-10,-22,-39,-41,-53,-53,-36,-47,-62,-32,-21,-30,-28,-54,-39,-47,-56,-55,-54,-72,-60,-90,-74,-93,-96,-59,-79,-87,-77,-76,-93,-101,-76,-42,-92,-60,-56,-69,-63,-101,-51,-29,-58,-51,340,1362,1449,288,-44,-56,-90,-84
2019-10-16,08:39:20.738,-80,-88,-92,-76,-78,-68,-58,-74,-78,-69,-71,-40,-21,0,10,11,67,96,115,116,107,91,83,71,60,15,4,-6,0,-19,-22,-40,-27,-48,-20,-18,-18,-15,-28,-17,-11,-14,-23,-17,-38,-34,-17,-12,3,-1,-15,-39,-15,-27,-62,-69,-53,-29,-52,-50,-60,-66,-79,-84,-99,-113,-93,-81,-86,-93,-81,-95,-62,-49,-60,-84,-31,-25,-19,-33,-50,-63,-77,-67,-80,-7,404,1268,1124,59,-108,-67,-66,-82,-102,-85,-59,-41,-25,-44,-51,-59,-56,-55,-99,-75,9,45,70,93,120,103,94,90,83,72,79,73,123,122,72,4,-37,-31,-54,-86,-9,5
2019-10-16,08:39:21.738,-30,-48,-46,-35,-45,-65,-43,-43,-64,-74,-43,-22,-23,-33,-34,-17,-37,-69,-73,-76,-51,-27,-37,-58,-85,-79,-80,-91,-93,-79,-50,-76,-90,-128,-102,-106,-76,-65,-77,-48,-51,-67,-75,-54,-82,-45,-59,-78,-77,-75,-67,-67,-74,-76,-76,-75,-112,-34,429,1170,938,6,-133,-64,-33,-35,-7,-13,-41,-46,-55,-85,-92,-75,-83,-86,-102,-75,-63,-29,-25,-4,-8,42,83,131,119,143,138,112,92,78,44,-20,-50,-4,12,-20,-45,-72,-99,-84,-80,-59,-70,-66,-70,-68,-91,-49,-16,-22,-22,-23,-30,-17,-19,-55,-96,-99,-14,22,-7,18,12,7,-15,-77
2019-10-16,08:39:22.738,-116,-114,-94,-73,-59,-45,-79,-73,-87,-66,-67,-78,-58,-69,-49,-63,-60,-61,-57,-31,-41,-46,-51,-42,-76,-34,527,1504,1341,172,-17,-12,-62,-67,-73,-39,-41,-66,-67,-79,-75,-42,-67,-74,-75,-58,-96,-39,-14,2,5,11,32,46,61,55,47,64,90,77,7,8,-18,-15,-1,-31,-88,-89,-10,-32,5,-17,-16,-22,-37,-36,-44,-8,-33,-12,-16,5,-12,-24,-29,-9,-8,-11,-35,-78,-45,-34,-60,-65,-43,-58,-68,-82,-85,-91,-71,-70,-45,-37,-60,-71,-98,-92,-100,-137,-177,-65,-42,-60,-52,-53,-34,-32,-41,-69,-101,-80,-65,-28,-66,-62,-52,-67
2019-10-16,08:39:23.738,-74,-66,-31,-23,313,1218,1246,234,-77,-47,-53,-55,-59,-90,-82,-72,-76,-68,-18,-35,-42,-17,-27,-49,-24,-9,20,62,43,68,123,145,155,146,133,100,81,80,58,61,48,19,-7,-2,-15,0,5,-15,-28,-16,-25,-48,-45,-34,3,-16,-39,-55,-35,0,-32,-34,-33,-38,-29,-4,-33,-46,-29,-26,-53,-31,-42,-44,-51,-77,-148,-49,-16,0,11,-21,-64,-117,-159,-194,-164,-106,-110,-138,-68,-24,-2,22,0,-62,-125,-149,-94,-82,-102,-153,-68,-42,-76,-46,366,1303,1343,237,-111,-85,-106,-169,-217,-88,-55,-24,5,-2,-54,-79,-117,-140,-159,-146,-110,-93
2019-10-16,08:39:24.738,-94,-89,-81,44,95,137,143,163,191,126,79,52,-6,-33,-16,-40,-37,-58,-68,-61,-52,-28,-30,-26,-65,-55,-40,-46,-36,-25,-60,-62,-31,1,-4,-27,-37,-68,-74,-53,-71,-9,-27,-37,-30,-42,-80,-69,-58,-77,-71,-88,-93,-121,-44,-60,-83,-78,-80,-44,-18,-17,2,-10,-20,-34,-54,-62,-62,-80,-80,-56,215,1060,1427,458,-112,-68,-73,-101,-79,-74,-54,-35,-33,-49,-54,-61,-60,-67,-87,-103,-60,-52,-45,-27,-26,-39,32,81,83,80,85,97,70,52,62,36,-16,-18,15,7,-21,-7,-15,-30,-14,-37,-47,-11,-53,-43,-43,3,2,-4,-6,2
2019-10-16,08:39:25.738,-16,-40,-72,-124,-23,-43,-43,-42,-38,-46,-51,-68,-124,-79,-54,-83,-72,-82,-77,-67,-74,-59,-76,-74,-71,-76,-58,-82,-65,-52,-60,-69,-83,-112,-74,-60,-81,-79,226,1196,1373,303,-92,-86,-60,-75,-83,-108,-101,-66,-70,-96,-111,-64,-48,-61,-77,-62,-70,-65,-63,11,90,77,131,132,145,150,120,128,86,39,-10,38,37,2,-14,-42,-43,-58,-48,-66,-62,-87,-68,-75,-50,-5,-28,-45,-8,-33,-42,-32,2,6,-40,-41,-58,-69,-73,-98,-69,-61,-66,-95,-80,-82,-65,-63,-67,-69,-114,-80,-36,-60,-63,-72,-68,-61,-69,-85,-81,-74,-90,-76,-132,-59
2019-10-16,08:39:26.738,358,1324,1326,211,-63,-80,-105,-125,-115,-88,-113,-152,-176,-156,-181,-154,-85,-41,-38,-70,-31,0,57,117,171,185,184,167,162,143,100,73,42,34,32,21,8,8,-6,-51,-76,-41,-12,-18,-35,-41,-36,-63,-47,-40,-32,-38,-47,-66,-40,8,-14,-19,-28,-51,-44,-73,-93,-53,-82,-116,-117,-120,-124,-76,-52,-54,-71,-97,-106,-101,-81,-75,-87,-124,-129,-86,-94,-83,-84,-96,-84,-87,-118,-15,664,1497,1032,-38,-79,-38,-33,-59,-79,-70,-60,-82,-97,-47,-54,-30,-41,-49,-56,-54,-48,-52,-68,-2,25,93,118,116,111,104,83,68,4,-29,21,28,-6,-21
2019-10-16,08:39:27.738,12,-10,-9,-17,-27,-54,-9,-9,-5,6,7,13,0,-5,-3,19,-2,-10,-49,-37,18,-22,-43,-68,-44,-31,-46,-32,-59,-34,-3,-38,-42,-44,-41,-25,-34,-51,-45,-43,-73,-71,-77,-52,-46,32,784,1515,808,-60,-72,-37,-50,-68,-32,-54,-60,-72,-67,-44,-79,-74,-50,-59,-61,-60,-57,-68,-33,32,50,55,68,111,114,86,71,81,90,20,15,0,-10,-26,-36,-58,-53,-42,-86,-20,-26,-25,-31,-21,-24,-29,-35,-53,-56,-57,-42,-53,-41,-59,-64,-49,-47,-71,-78,-83,-95,-65,-67,-69,-63,-65,-71,-74,-74,-81,-101,-49,-58,-65,-79,-85,-74,-94
2019-10-16,08:39:28.738,-68,-57,-82,-72,-2,756,1500,841,-47,-64,-60,-93,-92,-52,-47,-67,-76,-85,-77,-99,-63,-58,-68,-70,-45,-36,-51,50,51,94,83,102,110,114,93,77,78,77,24,11,-13,-9,-39,-58,-86,-5,5,-7,-1,-24,-25,-27,-26,-36,-44,-78,-33,-2,-23,-53,-43,-46,-41,-46,-71,-86,-30,-67,-40,-73,-76,-51,-65,-70,-81,-120,-95,-78,-57,-65,-62,-72,-84,-76,-79,-68,-59,-100,-77,-67,49,887,1493,652,-138,-73,-80,-83,-66,-72,-83,-99,-55,-88,-57,-33,-37,-55,-71,-49,-54,-61,-41,41,67,72,80,126,146,136,88,48,40,58,18,0,-8,-43
2019-10-16,08:39:29.738,-45,-52,-86,-69,-40,-59,-39,-64,-83,-91,-56,-39,-24,-31,-52,-41,-25,-38,-45,-63,-81,-76,-64,-54,-57,-39,-38,-58,-73,-89,-82,-73,-69,-48,-71,-67,-57,-29,-46,-64,-64,-113,-123,-30,-3,14,19,-30,-53,-55,-72,26,818,1460,662,-126,-102,-76,-93,-98,-70,-57,-69,-107,-96,-96,-124,-116,-95,-64,-75,-73,-87,-60,-45,-29,-31,57,114,115,81,92,99,71,46,29,18,-13,-39,-10,34,-28,-46,14,36,24,0,11,0,-7,-10,-25,-36,-32,-44,-38,-57,-52,-41,-27,-21,-26,-51,-54,-67,-65,-63,-47,-60,-49,-24,-34,-61,-68,-73,-63,-76,-88
2019-10-16,08:39:30.738,-124,-62,-57,-51,-47,-44,-41,-67,-101,-124,-72,-26,60,640,968,282,-161,-74,-28,-48,-68,-89,-26,-36,-59,-59,-61,-46,-24,-41,-90,-20,26,46,21,53,70,93,149,173,188,207,195,156,163,98,73,58,35,1,15,-19,-53,-36,-25,11,-23,-29,-12,-25,-52,-24,-19,-47,-29,-32,-21,-11,-17,-1,-10,-42,-46,-57,-81,-47,-51,-49,-65,-89,-109,-114,-68,-96,-109,-134,-116,-96,-76,-100,-99,-91,-85,-79,-102,-76,-87,-95,-94,-104,-98,-80,-87,-90,-86,-66,-43,47,622,915,221,-193,-94,-48,-51,-58,-70,-74,-90,-64,-22,-48,-46,-38,-37,-38,-22,6
2019-10-16,08:39:31.738,8,38,58,130,147,190,219,228,221,226,185,154,54,71,103,35,33,-6,-7,-12,-25,-48,-18,-58,-44,2,22,-27,-35,-26,-4,16,15,-1,-31,-2,-17,-32,-38,-44,-46,-24,-22,-35,-61,-90,-46,-41,-61,-81,-49,-62,-83,-55,-37,-51,-44,-25,-60,-62,-38,-58,-72,-41,-47,-39,-33,-44,-38,-10,132,816,1111,311,-172,-74,-57,-34,-21,-35,-28,-56,-32,-6,-34,-38,-28,-23,-4,-2,-4,17,62,114,138,173,203,222,227,241,216,192,131,105,91,48,31,23,-3,23,0,8,6,-12,-4,-15,-23,-54,-35,-9,-6,0,2,-12,-10,-8,-16,-31
2019-10-16,08:39:32.738,-27,-33,-53,-63,-50,-50,-66,-67,-78,-89,-82,-78,-103,-87,-74,-74,-83,-95,-70,-57,-27,-44,-67,-65,-65,-55,-78,-89,-40,-39,-72,-76,-53,118,752,1134,397,-158,-57,-33,-50,-54,-57,-45,-56,-81,-65,-67,-97,-66,-67,-54,-29,-26,-6,29,35,33,137,176,202,226,191,194,212,176,126,82,57,34,4,19,8,-36,-9,-21,-19,-18,-15,-22,-33,-8,-8,-20,-28,-20,-41,-46,-76,-76,-7,-18,-25,-20,-49,-71,-93,-6,-31,-44,-66,-79,-102,-104,-131,-127,-50,-57,-54,-62,-70,-94,-74,-76,-84,-61,-73,-63,-73,-62,-83,-78,-77,-72,30,708,1383,769
2019-10-16,08:39:33.738,-90,-74,-72,-93,-133,-64,-76,-122,-103,-45,-30,-56,-53,-56,-61,-73,-82,-76,-45,-36,-30,43,75,84,95,163,158,162,138,77,19,-17,-50,-53,-61,-47,-27,-33,-46,-58,-57,-64,-50,-3,-2,-38,-53,-36,-40,-50,-52,-48,-86,-56,-66,-29,-52,-55,-57,-57,-63,-55,-40,-42,-49,-79,-96,-115,-119,-130,-158,-60,-63,-66,-60,-75,-69,-87,-94,-42,-40,-51,-73,-58,-41,-67,-72,-87,-46,346,1232,1272,186,-79,-54,-59,-89,-77,-13,-25,-57,-87,-82,-84,-90,-92,-103,-87,-64,-19,-4,9,35,75,86,72,162,176,168,159,131,127,112,66,19,-2,-20,-61
2019-10-16,08:39:34.738,-21,-18,-24,-43,-52,-41,-39,-51,-44,-1,-19,-51,-40,-39,-46,-37,-6,-6,-18,-31,-33,-46,-36,-53,-53,-46,-16,-35,-33,-73,-67,-81,-110,-77,-75,-78,-80,-97,-80,-86,-117,-86,-58,-38,-55,-52,-63,-57,-74,-41,-56,-67,-61,-55,-62,-46,-59,-79,-12,151,864,1070,237,-98,-47,-74,-50,-56,-62,-38,-34,-32,-45,-63,-68,-37,-40,-34,-37,0,-9,11,49,95,104,114,142,146,156,171,156,109,90,79,43,24,30,4,4,0,-35,-44,-17,-38,-20,-22,-23,-19,-48,27,22,-20,-28,-5,-9,1,-47,-32,-22,-62,-63,-11,-41,-70,-78,-79,-83,-76
2019-10-16,08:39:35.738,-96,-53,-74,-74,-56,-79,-89,-95,-130,-136,-93,-116,-104,-97,-108,-120,-124,-53,-68,-90,-77,-64,-76,-107,-84,-39,-53,-71,-78,-83,-92,-82,-77,28,653,1496,1111,-14,-80,-37,-54,-49,-84,-86,-93,-78,-67,-90,-76,-75,-100,-66,-69,-47,-69,-87,-16,-30,-4,22,68,91,102,104,91,82,51,32,3,7,6,9,24,-9,-36,-24,-15,-40,-59,-51,-51,-83,-16,-4,-8,-13,-24,-28,-46,-28,-27,-25,-101,-6,0,-25,-32,-31,-24,-27,-29,-41,-86,-94,-44,-26,3,-19,-29,-36,-39,-69,-102,-95,-102,-85,-64,-50,-48,-55,-43,-67,-75,-46,-46,-24,-29,-56
2019-10-16,08:39:36.738,-68,-29,-14,-42,-41,-36,-33,-48,-69,5,651,1554,1235,78,-34,-39,-37,-35,-60,-65,-81,-80,-91,-81,-73,-78,-91,-43,-40,-64,-70,-50,-41,-25,-28,-6,16,30,67,91,99,72,61,49,34,3,7,-25,-7,-1,-16,-14,-10,-3,-16,-14,-42,-42,-27,19,10,-10,-8,7,11,-10,-13,23,5,0,-14,-4,-18,-25,-51,-31,-49,-54,-42,-49,-42,-47,-57,-41,-39,-51,-49,-43,-50,-26,-16,-16,-26,-46,-46,-64,-60,-62,-86,-85,-55,-55,-67,-83,-107,-127,-137,-124,-75,-43,-28,-7,6,-7,-17,-32,-38,-56,-34,-27,-21,-19,-25,-30,-68,-69,-81,53
2019-10-16,08:39:37.738,768,1378,773,-55,-31,-25,-51,-68,-81,-114,-53,-50,-54,-64,-76,-86,-66,-72,-67,-55,-53,-30,-14,25,73,105,125,150,146,145,133,113,83,51,35,18,20,31,21,29,31,35,35,3,17,27,17,13,-15,-18,-47,-68,-65,-62,-58,-52,-34,-21,-30,-18,-17,-18,-25,-29,-35,-58,-75,-83,-102,-87,-85,-84,-92,-96,-90,-98,-91,-95,-76,-69,-53,-46,-48,-55,-75,-81,-81,-101,-97,-108,-104,-99,-90,-70,-78,-89,-83,-81,-88,-118,-45,-31,-9,-16,-16,-5,35,14,15,144,780,1161,422,-212,-143,-141,-135,-141,-121,-115,-151,-114,-116,-94,-100,-26,-36,-28
2019-10-16,08:39:38.738,49,42,54,52,77,132,163,204,253,281,282,270,255,199,151,110,72,57,24,36,-27,3,4,-21,-20,-15,-16,-17,12,8,18,-13,32,39,27,50,81,50,54,31,50,21,11,39,40,22,30,27,29,-8,-8,20,16,1,-4,1,5,-18,-12,-16,4,30,26,16,43,56,40,23,9,-28,0,25,39,33,22,16,1,34,62,199,598,916,357,-152,-66,-21,13,10,6,-6,-42,-23,43,50,30,62,60,62,65,50,40,102,124,146,167,229,286,328,333,331,254,249,192,151,94,49,57,15,23,-30,0,0,-13,-21,-19,-36,-30,-35
2019-10-16,08:39:39.738,-93,-99,-107,-57,-61,-78,-67,-55,-62,-73,-65,-46,-41,-45,-56,-74,-71,-72,-71,-97,-87,-75,-50,-72,-67,-63,-59,-53,-58,-78,-78,-73,-69,-58,-83,-57,-40,-63,-34,-9,62,297,787,565,-133,-126,-62,-73,-54,-59,-62,-63,-65,-69,-68,-75,-46,-48,-22,-15,-8,6,27,46,73,107,130,190,216,216,215,193,148,113,87,44,38,13,2,-33,-36,-44,-44,-36,-37,-61,-76,-20,-46,-27,-39,-56,-51,-48,-39,-45,-47,-36,-31,-65,-65,-65,-77,-91,-108,-107,-102,-81,-60,-95,-82,-77,-87,-86,-87,-81,-87,-84,-101,-93,-95,-100,-92,-94,-25,107,609,694
2019-10-16,08:39:40.738,-8,-225,-126,-90,-84,-90,-69,-87,-73,-81,-78,-64,-74,-50,-72,-71,-39,-20,16,59,105,102,157,203,238,252,238,222,153,135,84,44,33,-5,-13,-19,-26,-23,-32,-29,-33,-29,-30,-21,-11,-53,-30,-59,-54,-69,-61,-63,-48,-45,-68,-73,-93,-86,-79,-103,-94,-74,-60,-66,-63,-76,-73,-63,-51,-53,-41,-30,-75,-63,-64,-56,-41,-52,-23,39,405,874,509,-146,-131,-67,-59,-54,-56,-65,-47,-59,-58,-56,-44,-48,-41,-34,-14,-12,14,45,53,107,136,186,223,226,240,211,197,154,126,90,53,25,-33,-35,-27,-64,-57,-56,-40,-77,-72,-102,-96,-70
2019-10-16,08:39:41.738,-51,-43,-48,-38,-72,-87,-95,-97,-84,-106,-98,-86,-80,-104,-107,-95,-85,-87,-85,-66,-94,-82,-129,-95,-92,-88,-77,-64,-61,-69,-58,-50,45,257,724,708,-7,-160,-64,-68,-77,-58,-22,-77,-72,-34,-32,-44,-56,-56,-5,11,19,22,19,34,71,88,154,175,197,235,200,183,136,92,73,73,-9,-51,-62,-66,-97,-101,-94,-94,-79,-76,-85,-57,-60,-64,-78,-73,-119,-54,-37,-3,-50,-71,-96,-106,-105,-114,-83,-60,-77,-77,-84,-83,-67,-80,-96,-77,-64,-45,-87,-86,-91,-133,-145,109,583,1116,652,-71,-70,-93,-113,-108,-81,-110,-79,-86,-93,-104,-73,-102
2019-10-16,08:39:42.738,-119,-111,-66,-59,-69,22,51,112,136,127,128,146,169,171,167,106,93,49,31,-2,-20,-38,-41,-31,-82,-75,-76,-75,-61,-90,-76,-49,-28,-54,-38,-27,-41,-28,-39,-76,-51,-78,-60,-55,-56,-48,-29,-46,-48,-69,-71,-77,-67,-83,-70,-65,-58,-34,-69,-65,-72,-87,-17,380,1147,991,-10,-108,-31,-43,-79,-48,-52,-78,-96,-104,-67,-36,-44,-57,-73,-62,-54,-39,-14,10,65,66,117,158,175,171,155,145,137,94,93,-1,33,16,-3,8,-20,-36,-52,-13,-21,-42,-11,-19,-49,-47,-40,-25,-20,-31,-17,-29,-39,-53,-57,-48,-86,-88,-78,-73,-58,-71
2019-10-16,08:39:43.738,-85,-61,-70,-61,-81,-71,-71,-69,-64,-75,-78,-101,-105,-106,-91,-62,190,932,947,84,-140,-97,-62,-61,-67,-82,-106,-57,-47,-41,-82,-57,-51,-51,-47,-17,-30,-7,92,88,114,151,172,203,206,200,157,118,68,57,27,12,-8,-22,-43,-49,-60,-76,-42,-48,-42,-41,-62,-34,-79,-42,-25,-27,-47,-51,-45,-51,-43,-61,-34,-45,-38,-80,-79,-89,-103,-76,-71,-48,-37,-49,-66,-80,-97,-110,-73,-79,-77,-66,-88,-72,-74,-78,-75,-112,-59,337,1128,1176,178,-92,-22,-35,-65,-92,-99,-104,-92,-68,-110,-34,-42,-83,-93,-74,-81,-48,-8,-24,8,88,117,153
2019-10-16,08:39:44.738,154,162,140,151,141,139,106,35,-7,-15,-37,-59,-70,-63,-62,-48,-68,-63,-63,-51,-57,-98,-102,-81,-70,-87,-50,-69,-84,-72,-77,-61,-44,-56,-45,-76,-77,-93,-101,-137,-105,-109,-88,-77,-82,-71,-77,-83,-88,-110,-109,-114,-122,-70,-46,-39,-82,-66,-67,-53,-86,-109,-79,-89,-11,262,1013,1149,232,-126,-26,-19,-65,-62,-80,-126,-172,40,76,45,20,-55,-72,-88,-100,-119,-81,-16,30,5,35,76,85,100,78,63,91,24,37,127,129,69,39,-13,-41,-58,-78,-79,47,47,23,29,18,-25,-51,-74,-50,-25,-6,-21,-11,-28,-44,-29,-41,-38,-14,1
2019-10-16,08:39:45.738,-35,-29,-36,0,-7,-20,-49,-16,-68,-35,-30,-51,-70,-68,-73,-71,-36,-49,5,-5,-11,-27,-26,-43,-53,-64,-49,-14,-15,-27,-18,-40,-15,178,1163,2183,1422,142,61,6,-28,-67,-84,-94,-77,-88,-93,-92,-85,-91,-91,-77,-104,-117,-107,-94,-84,-111,-90,-63,-34,-38,13,3,-22,-45,-13,-12,-42,-48,-53,-51,-78,-43,-47,-74,-47,-55,-46,-45,-51,-60,-70,-107,-68,-11,-28,-38,-18,-9,-11,-22,-28,-19,-22,-15,-10,-33,-55,-57,-42,-59,-35,-44,-43,-57,-60,-55,-111,-56,-77,-75,-126,-75,-43,-33,-67,-133,-116,-98,-91,-10,-71,-109,-124,-57,-35,-26
2019-10-16,08:39:46.738,-40,-74,-108,-43,-69,-90,-61,-33,-53,-46,-28,366,1202,1148,263,52,157,144,0,-40,-45,-48,-31,-73,-115,-84,-54,-45,7,0,-50,4,57,33,67,73,110,112,170,180,180,155,114,113,133,90,30,-55,-80,-85,11,17,4,-52,-125,-140,-126,-27,-58,-115,-113,-54,-60,-57,-11,-19,13,-17,-87,-85,-23,-15,-79,-137,-104,-30,-38,-62,-62,-58,-52,-61,-26,33,-13,-91,-85,-102,-100,-56,-98,-146,-142,-138,-105,-52,-18,-24,-67,-80,-72,-56,-45,-32,-18,-70,-64,-25,-29,-48,-41,-34,-47,-73,-27,164,907,1364,590,-49,-20,-21,-33,-46,-60,-71,-47,-40
2019-10-16,08:39:47.738,-52,-22,-61,-74,-75,-76,-72,-54,-19,-5,7,-26,19,81,100,112,123,138,150,116,96,68,27,32,37,14,-2,-8,-23,-9,-52,-39,-29,-18,-20,-19,-32,-22,-17,-31,-35,-23,-24,-5,-16,-18,-9,-11,-8,9,-43,-79,-32,-15,11,43,-7,-56,-65,-86,-98,-117,-83,-56,-83,-89,-96,-124,-113,-89,-97,-128,-68,-53,-54,-55,-40,-37,-69,-63,-12,-29,-5,-64,-48,-44,-35,-60,-102,-70,-38,-36,68,807,1457,747,-84,-76,-92,-96,-90,-85,-93,-97,-63,-43,-37,-52,-49,-34,-70,-65,-18,-24,-17,10,-2,34,52,79,90,101,106,118,90,91,50,47
2019-10-16,08:39:48.738,17,-7,-59,-52,-46,-17,-27,-35,-32,-20,-30,-22,-34,-32,-52,-43,-44,-55,-24,-51,-36,-46,-37,-55,-64,-85,-64,-60,-55,-51,-29,-44,-47,-52,-76,-73,-72,-68,-71,-107,-144,-154,-109,-46,-64,-55,-43,-38,-50,-76,-39,-43,-68,-63,-48,-84,-59,-52,-63,-62,-73,-14,461,1170,903,-34,-136,-80,-48,-57,-66,-50,-52,-63,-64,-71,-73,-70,-74,-75,-93,-45,32,6,26,23,62,118,144,167,173,154,127,101,58,49,61,42,13,-25,-49,-73,-90,-68,-54,-21,-7,-47,-21,-34,-63,-78,27,16,39,32,0,-35,-103,-113,-172,-164,-70,33,108,22,-1,-82
2019-10-16,08:39:49.738,-163,-156,-134,-90,-16,30,-8,-131,-101,-51,27,99,98,12,-13,-83,-143,-56,28,-8,-68,-13,46,83,76,40,-38,24,596,875,130,-282,-165,-83,-71,-77,-21,39,8,12,-7,-53,-81,-96,-143,-51,28,35,67,86,101,79,101,131,164,169,175,189,171,155,89,49,35,-21,-72,-76,-73,-76,-67,-90,-37,-31,-54,-1,8,44,43,53,13,24,-3,-19,-39,-39,-84,-128,-95,-86,-97,-73,-47,-29,-39,-47,-42,7,-19,-44,-46,-51,-39,-42,-38,-17,-33,-44,-43,-36,-46,-49,-34,-20,10,138,208,306,167,-311,-237,-104,-75,-79,-69,-46,-25,-31,-19,-10
2019-10-16,08:39:50.738,-22,-49,-29,-20,12,30,43,86,110,126,195,261,294,309,337,319,284,240,208,170,137,79,37,-1,-16,-30,-52,-72,-52,-41,-53,-70,-67,-77,-88,-93,-91,-79,-118,-92,-98,-122,-113,-109,-102,-137,-175,-150,-175,-184,-198,-186,-151,-169,-174,-215,-181,-142,-153,-155,-159,-179,-168,-138,-148,-158,-164,-135,-193,-127,20,166,611,546,-74,-219,-131,-74,-89,-143,-70,4,-1,-17,-16,-14,-34,-18,-10,-27,-105,52,88,84,116,121,152,162,185,205,202,180,169,197,142,99,123,105,104,78,28,-18,-69,-47,-62,-57,-56,-80,-94,-79,-74,-73,-65,-65,-57,-42,-50,-51
2019-10-16,08:39:51.738,-51,-81,-59,-60,-66,-57,-46,-38,-41,-44,-40,-43,-40,-41,-58,-63,-48,-19,-16,-32,-57,-47,-78,-34,223,729,545,-155,-180,-91,-67,-63,-63,-54,-40,-25,-15,-22,-28,-19,-24,-26,-13,-4,12,65,90,146,185,209,236,238,245,242,227,192,148,125,87,53,13,-36,6,4,-3,-32,-38,25,26,23,19,6,-4,-3,-21,-24,-73,-41,-48,-45,-49,-3,25,35,-24,-21,-21,3,5,-64,-53,-99,-164,-166,-139,-133,-87,-7,56,59,77,55,50,74,178,647,721,123,-81,-28,-15,-44,-83,-52,-61,-63,-73,-56,-66,-51,-50,-48,-43,-30,-11,-3,13,30
2019-10-16,08:39:52.738,65,104,130,151,146,123,73,50,85,60,4,-26,-42,-72,-87,-117,-108,-114,-108,-106,-110,-105,-108,-103,-114,-104,-102,-102,-100,-92,-114,-109,-121,-132,-118,-117,-101,-121,-125,-115,-122,-129,-118,-106,-111,-115,-105,-71,-65,-87,-92,-114,-131,-88,73,703,909,216,-115,-67,-37,-20,-31,5,11,8,-23,-74,-87,-105,-121,-121,-121,-117,-90,-75,-66,-41,-25,16,35,48,66,63,56,45,39,19,-34,-47,-90,-92,-99,-99,-116,-111,-137,-118,-133,-98,-101,-89,-93,-75,-52,-64,-47,-75,-56,-55,-112,-75,-58,-42,-34,-41,-51,-58,-79,-65,-59,-48,-92,-46,-68,-50,-54,-51
2019-10-16,08:39:53.738,-34,-48,26,509,947,517,-44,-30,-16,-11,-35,-14,-39,-35,-22,-32,-23,-35,-17,-38,-23,-4,-2,14,46,61,91,125,142,160,166,165,172,167,168,138,130,121,101,91,70,59,48,43,32,56,30,36,32,41,41,29,26,19,30,9,7,3,13,-30,-42,-77,-41,-44,-68,-27,-55,-45,-55,-46,-51,-57,-53,-62,-65,-69,-61,-58,-58,-51,-57,13,470,1158,972,46,-56,-7,-40,-39,-48,-33,-47,-50,-36,-45,-47,-52,-37,-64,-46,-31,-25,-14,7,28,51,64,88,107,107,100,84,65,39,15,-10,-43,-48,-62,-69,-83,-93,-83,-92,-96,-89,-86
2019-10-16,08:39:54.738,-94,-90,-101,-97,-89,-103,-98,-105,-109,-119,-129,-105,-103,-102,-86,-102,-97,-90,-99,-107,-99,-97,-102,-99,-98,-100,-105,-103,-107,-110,114,970,1369,496,-46,-47,-58,-89,-93,-92,-93,-89,-81,-79,-80,-77,-90,-76,-77,-79,-76,-70,-63,-59,-51,-29,-18,-10,6,6,4,7,4,-5,-10,-21,-35,-33,-38,-55,-56,-66,-62,-56,-64,-54,-59,-46,-57,-36,-37,-53,-62,-67,-79,-76,-78,-78,-51,-53,-50,-46,-43,-41,-29,-31,-29,-46,-47,-37,-43,-42,-50,-59,-58,-73,93,945,1754,1095,100,0,-31,-68,-84,-88,-97,-105,-93,-96,-96,-100,-99,-101,-96,-93,-91,-74
2019-10-16,08:39:55.738,-68,-55,-34,-32,-13,9,14,9,5,-7,-21,-21,-30,-41,-39,-46,-60,-63,-57,-60,-62,-56,-49,-42,-49,-46,-48,-40,-42,-45,-51,-43,-59,-62,-75,-82,-88,-105,-105,-90,-88,-75,-81,-70,-79,-76,-76,-81,-72,-78,-83,-79,-72,-97,-86,-82,-105,-51,565,1642,1594,326,-6,-46,-77,-110,-113,-118,-122,-106,-96,-93,-99,-102,-96,-83,-74,-66,-42,-34,-18,2,11,42,51,55,64,53,17,11,14,-11,-14,-35,-39,-47,-49,-53,-71,-72,-78,-70,-77,-74,-69,-74,-73,-71,-67,-63,-66,-71,-71,-65,-93,-82,-106,-113,-125,-124,-122,-119,-98,-92,-85,-96,-88,-90
2019-10-16,08:39:56.738,-77,-89,-70,-60,-59,-70,-66,-75,-67,-73,-42,250,1233,1499,423,-38,-17,-38,-52,-56,-68,-62,-66,-59,-66,-67,-56,-56,-54,-55,-49,-35,-20,-13,-4,24,41,41,65,68,67,54,35,31,11,-6,-4,-15,-27,-25,-38,-37,-38,-46,-39,-40,-43,-36,-24,-27,-34,-31,-36,-32,-20,-36,-34,-42,-42,-57,-73,-66,-84,-85,-76,-66,-63,-62,-70,-60,-61,-56,-60,-55,-54,-55,-49,-54,-49,-57,-52,-58,-64,117,977,1569,724,17,6,-21,-52,-63,-63,-64,-64,-61,-52,-59,-57,-57,-60,-55,-63,-56,-40,-45,-27,-21,-9,-2,0,7,10,4,1,5,0,-11
2019-10-16,08:39:57.738,-17,-16,-32,-28,-32,-46,-40,-41,-41,-40,-44,-35,-45,-43,-28,-34,-29,-24,-28,-33,-39,-36,-44,-37,-45,-53,-69,-84,-90,-91,-85,-101,-83,-77,-69,-68,-71,-73,-69,-62,-59,-72,-65,-74,-69,-64,-62,-68,-74,-74,139,1055,1574,643,22,-25,-41,-77,-92,-101,-104,-96,-95,-96,-94,-97,-98,-96,-83,-75,-80,-68,-66,-40,-31,-30,-2,12,-3,-1,-5,-32,-48,-38,-59,-63,-77,-81,-94,-104,-94,-89,-112,-104,-99,-98,-104,-89,-91,-93,-92,-78,-89,-84,-79,-84,-78,-61,-58,-60,-58,-78,-74,-80,-88,-60,-82,-34,-34,-30,-46,-37,-30,-30,-6,-18,-11,-12
2019-10-16,08:39:58.738,2,-7,-10,8,10,-11,58,487,1185,972,107,20,42,29,-1,-2,-8,-22,-7,-14,-15,-9,-9,1,-18,-8,0,9,22,40,54,65,70,109,96,100,97,91,74,63,33,18,8,-3,-1,-8,-15,-25,-24,-13,-25,-24,-19,-19,-14,-15,-13,-25,-27,-4,-13,-15,-12,-14,-19,-18,-35,-46,-47,-58,-59,-64,-54,-44,-50,-42,-42,-51,-37,-38,-39,-31,-42,-31,-42,-42,-42,-46,-33,-56,-7,533,1361,1048,121,10,-17,-42,-50,-62,-77,-75,-84,-77,-74,-84,-85,-78,-82,-89,-94,-88,-98,-90,-85,-96,-92,-89,-74,-76,-80,-83,-86,-93,-78,-101,-95,-99
2019-10-16,08:39:59.738,-108,-123,-128,-126,-120,-118,-125,-125,-120,-123,-122,-117,-112,-110,-111,-110,-106,-100,-91,-70,-59,-50,-61,-37,-37,-44,-21,-9,-2,-11,-15,-7,4,-9,28,39,39,35,45,46,41,57,48,94,121,376,568,102,-143,-32,9,10,16,37,45,62,57,43,41,35,38,49,50,68,78,103,131,159,188,214,245,264,262,247,247,224,185,154,112,86,65,32,26,21,-3,0,-5,-12,-13,-16,-12,-17,-25,-9,-31,-33,-26,-44,-39,-54,-35,-60,-66,-66,-71,-72,-96,-89,-97,-83,-92,-89,-86,-84,-93,-78,-75,-72,-66,-68,-105,-73,-75,-92,-92,-51,47,144
2019-10-16,08:40:00.738,374,359,-188,-251,-141,-94,-108,-110,-95,-101,-99,-96,-95,-92,-74,-75,-82,-74,-73,-43,-29,-1,21,67,113,138,158,169,179,150,113,103,51,45,10,28,22,-15,-39,-26,-17,-41,-43,-49,-60,-40,-39,-52,-62,-44,-41,-64,-46,-38,-48,-38,-37,-41,-52,-63,-58,-64,-74,-49,-48,-50,-55,-36,-37,-36,-59,-42,-48,-50,-43,-39,-45,-37,-11,52,272,625,378,-152,-108,-49,-30,-36,-36,-27,-36,-24,-23,-14,-19,-15,-14,-2,2,17,23,32,64,82,112,123,157,179,181,180,171,142,131,107,91,72,49,30,21,22,27,31,33,22,15,23,9,6
2019-10-16,08:40:01.738,22,18,21,15,4,2,-5,-18,-26,-44,-49,-53,-67,-54,-63,-43,-41,-52,-42,-52,-42,-45,-34,-31,-31,-24,-25,-42,-45,-58,-21,126,628,678,6,-143,-88,-83,-88,-86,-84,-86,-91,-88,-87,-85,-85,-77,-73,-55,-50,-31,-14,11,41,68,100,125,155,140,107,97,76,61,44,-1,-35,-57,-63,-71,-70,-75,-70,-71,-93,-90,-80,-82,-76,-78,-74,-71,-68,-63,-66,-79,-85,-82,-82,-87,-97,-98,-91,-98,-86,-86,-79,-64,-60,-48,-33,-37,-32,-37,-46,-48,-64,-52,-36,37,293,826,687,-66,-57,-12,11,-23,-20,-31,-33,-33,-30,-19,-19,-28,-15,-20
2019-10-16,08:40:02.738,-6,5,15,39,58,89,97,122,123,126,128,109,95,76,71,45,-7,-60,-79,-83,-62,-31,-7,-2,-12,-9,-6,-12,0,7,3,11,0,7,5,7,-2,-4,-12,-26,-38,-40,-47,-67,-55,-43,-45,-42,-36,-37,-23,-33,-37,-35,-38,-35,-38,-44,-32,-34,-43,16,253,976,1055,91,-126,-64,-51,-65,-68,-74,-77,-66,-67,-59,-60,-57,-55,-62,-44,-34,-32,-12,7,31,54,87,112,124,140,136,118,99,75,52,37,22,9,-6,-13,-23,-33,-38,-41,-43,-40,-46,-33,-36,-27,-28,-30,-30,-32,-32,-36,-31,-41,-51,-63,-75,-80,-88,-97,-104,-95,-84
2019-10-16,08:40:03.738,-82,-81,-73,-66,-67,-62,-72,-63,-60,-62,-67,-63,-66,-59,-55,19,456,1183,934,-28,-78,-51,-63,-80,-81,-78,-79,-72,-74,-65,-66,-66,-60,-53,-42,-39,-18,1,31,53,74,102,117,124,123,111,90,65,43,20,2,-9,-24,-35,-42,-53,-54,-53,-54,-54,-49,-53,-53,-42,-47,-50,-47,-42,-43,-45,-47,-47,-45,-50,-55,-53,-55,-62,-61,-64,-66,-71,-71,-83,-89,-105,-105,-110,-113,-93,-90,-78,-63,-69,-65,-63,-65,-65,-62,-69,-66,-67,-63,-66,-60,-38,42,500,1132,823,-69,-83,-55,-58,-59,-65,-63,-55,-56,-53,-48,-48,-39,-36,-26,-12,0,17
2019-10-16,08:40:04.738,35,66,86,121,144,166,176,176,166,143,114,85,65,36,16,9,-9,-18,-25,-30,-38,-37,-43,-44,-41,-50,-44,-51,-47,-40,-47,-43,-41,-52,-48,-49,-58,-50,-51,-47,-58,-55,-64,-62,-67,-74,-76,-72,-72,-72,-68,-72,-76,-79,-77,-79,-71,-86,-91,-101,-100,-113,-115,-112,-98,-86,-86,-59,-57,-52,-57,-59,-53,-62,-66,-63,-64,-52,-64,-61,-55,-2,171,870,1204,389,-133,-68,-48,-65,-72,-66,-62,-67,-60,-63,-54,-55,-54,-47,-37,-29,-19,0,13,39,62,94,120,135,142,145,142,125,97,79,54,43,20,6,-8,-12,-23,-35,-28,-39,-37,-32
2019-10-16,08:40:05.738,-25,-29,-27,-28,-26,-25,-26,-23,-23,-23,-26,-28,-23,-24,-28,-29,-35,-40,-39,-43,-42,-48,-48,-49,-47,-48,-51,-48,-49,-48,-45,-49,-53,-53,-50,-53,-59,-62,-70,-73,-84,-83,-81,-68,-66,-54,-38,-30,-35,-36,-39,-42,-39,-41,-38,-38,-42,-41,-44,-39,-37,8,265,1124,1275,247,-68,-26,-30,-49,-52,-48,-55,-53,-48,-41,-40,-37,-33,-35,-31,-25,-17,-2,12,29,55,70,97,107,117,118,108,91,75,59,44,25,10,0,-2,-9,-16,-22,-28,-28,-31,-34,-32,-34,-38,-34,-31,-33,-30,-30,-34,-29,-28,-34,-30,-39,-37,-40,-43,-45,-49,-46
2019-10-16,08:40:06.738,-41,-51,-48,-49,-51,-53,-54,-57,-54,-60,-59,-62,-63,-59,-58,-56,-61,-61,-56,-55,-57,-64,-62,-71,-74,-81,-90,-91,-92,-76,-66,-53,-36,-28,-38,-42,-42,-40,-43,-44,-45,-50,-51,-47,-43,-42,-43,11,211,941,1168,272,-93,-41,-39,-51,-52,-51,-50,-46,-40,-37,-31,-38,-33,-27,-19,-12,-2,14,33,59,84,108,126,150,158,157,148,130,106,85,62,46,27,14,6,-3,-16,-23,-26,-32,-35,-31,-32,-24,-24,-21,-20,-22,-24,-27,-28,-25,-26,-27,-31,-29,-30,-37,-41,-40,-41,-42,-42,-51,-52,-52,-46,-51,-54,-52,-51,-47,-57,-52,-62,-67
2019-10-16,08:40:07.738,-60,-57,-62,-68,-75,-79,-88,-98,-100,-102,-84,-81,-65,-45,-46,-62,-52,-50,-49,-52,-50,-51,-60,-54,-62,-55,-36,-15,80,433,973,660,-140,-118,-63,-54,-68,-59,-58,-55,-60,-49,-46,-40,-46,-40,-34,-26,-16,-7,7,34,61,94,121,152,166,174,178,167,141,117,83,59,31,11,1,-8,-23,-30,-33,-40,-34,-42,-35,-31,-31,-31,-32,-26,-32,-27,-25,-33,-31,-29,-33,-35,-38,-35,-43,-44,-55,-49,-55,-52,-54,-48,-53,-49,-50,-47,-49,-49,-54,-57,-62,-67,-75,-76,-85,-90,-81,-70,-65,-52,-45,-29,-28,-31,-33,-27,-30,-30,-29,-32,-27,-26
2019-10-16,08:40:08.738,-43,-30,-16,79,478,1122,771,-98,-78,-40,-42,-51,-55,-52,-49,-45,-45,-39,-43,-40,-35,-34,-29,-18,-9,3,21,37,61,85,102,116,127,126,115,107,83,61,37,24,8,0,-7,-11,-22,-22,-27,-31,-35,-32,-33,-30,-27,-28,-28,-29,-29,-31,-34,-38,-36,-46,-49,-43,-44,-54,-57,-63,-62,-64,-63,-66,-77,-87,-93,-103,-116,-120,-119,-96,-96,-89,-75,-75,-76,-73,-70,-67,-66,-68,-67,-68,-67,-73,-63,-56,20,291,1062,1170,112,-96,-54,-56,-72,-75,-76,-73,-73,-72,-67,-59,-54,-49,-44,-38,-35,-20,-5,11,39,64,87,108,128,140,137,122
2019-10-16,08:40:09.738,112,80,55,37,17,-2,-4,-12,-23,-28,-31,-42,-38,-41,-45,-41,-45,-41,-39,-40,-40,-43,-35,-41,-41,-48,-49,-50,-52,-55,-59,-56,-58,-62,-60,-66,-80,-91,-100,-106,-112,-107,-91,-89,-71,-59,-57,-55,-56,-55,-54,-58,-55,-55,-53,-59,-59,-47,-37,45,346,1026,974,3,-88,-46,-48,-58,-62,-61,-58,-55,-54,-51,-50,-39,-32,-29,-20,-12,0,22,42,58,90,115,135,152,155,153,133,110,77,57,33,9,0,-7,-30,-29,-40,-43,-47,-49,-44,-52,-42,-44,-43,-43,-44,-39,-35,-39,-44,-51,-50,-56,-48,-63,-63,-67,-67,-78,-89,-95,-97,-116
2019-10-16,08:40:10.738,-108,-106,-91,-83,-67,-59,-57,-53,-49,-52,-49,-52,-53,-53,-57,-53,-46,-22,83,231,676,638,-107,-168,-86,-58,-59,-53,-47,-44,-42,-45,-32,-28,-30,-24,-14,-11,-2,5,21,36,60,88,114,133,151,164,163,162,136,107,84,55,33,20,6,-1,-9,-12,-19,-25,-21,-21,-21,-20,-16,-19,-22,-24,-22,-24,-27,-21,-27,-26,-38,-38,-35,-42,-45,-52,-64,-76,-83,-92,-100,-100,-85,-78,-71,-65,-52,-47,-48,-50,-49,-53,-54,-49,-44,-51,-46,-31,-4,88,543,1116,626,-101,-56,-27,-46,-58,-66,-68,-62,-68,-68,-62,-63,-64,-64,-64,-57,-54,-50,-34
2019-10-16,08:40:11.738,-19,-13,6,21,34,44,55,41,35,31,21,9,4,-4,-12,0,-2,-12,-22,-22,-23,-22,-20,-22,-22,-25,-24,-25,-32,-40,-38,-43,-42,-47,-53,-57,-57,-56,-56,-77,-88,-92,-101,-113,-97,-87,-73,-63,-57,-52,-52,-56,-56,-53,-59,-64,-66,-67,-68,-65,-71,-54,130,964,1376,387,-57,-58,-64,-84,-95,-98,-95,-91,-89,-82,-75,-73,-74,-60,-48,-41,-16,-1,29,55,84,115,141,155,163,157,134,111,80,49,22,0,-18,-29,-38,-44,-49,-57,-58,-57,-52,-55,-51,-45,-37,-40,-38,-49,-45,-44,-46,-38,-48,-40,-46,-47,-56,-67,-68,-51,-71,-62
2019-10-16,08:40:12.738,-80,-69,-61,-52,-56,-36,-34,-37,-29,-35,-35,-35,-43,-42,-39,-35,-15,81,130,241,182,-201,-278,-131,-62,-33,-32,-16,-11,0,-5,0,2,7,18,28,30,54,63,89,114,143,171,198,237,250,254,251,240,212,184,150,109,80,49,26,9,-6,-8,-1,-9,-11,-5,-2,-1,8,-3,3,5,-11,-1,-6,-8,-11,-18,-27,-43,-40,-49,-62,-74,-94,-82,-80,-68,-67,-63,-55,-66,-66,-65,-69,-69,-67,-72,-73,-68,-45,-11,113,235,336,48,-293,-186,-111,-75,-76,-80,-65,-64,-67,-64,-63,-57,-55,-47,-41,-31,-20,-9,9,19,48,78,111,142,156
2019-10-16,08:40:13.738,168,167,149,126,94,69,32,1,-16,-34,-43,-49,-46,-42,-49,-48,-56,-61,-64,-54,-57,-59,-54,-57,-60,-57,-69,-82,-85,-93,-100,-106,-102,-77,-72,-69,-63,-52,-58,-51,-44,-42,-47,-50,-58,-59,-62,-60,-58,-89,-14,477,1270,922,27,-33,-30,-50,-81,-83,-84,-97,-92,-79,-84,-85,-76,-79,-74,-61,-46,-45,-33,-2,13,38,56,77,68,73,75,60,41,15,7,4,-8,-18,-28,-34,-48,-50,-51,-62,-49,-47,-46,-52,-58,-54,-53,-58,-49,-46,-55,-55,-57,-59,-64,-75,-91,-86,-88,-105,-96,-86,-72,-72,-67,-71,-72,-62,-67,-67,-73,-69,-67,-73
2019-10-16,08:40:14.738,-52,-38,-65,-28,156,917,1123,241,-69,-32,-38,-45,-55,-54,-55,-50,-50,-49,-38,-30,-28,-17,-8,2,11,27,46,69,108,121,143,162,172,158,135,114,95,72,49,36,21,11,1,5,-21,-20,-17,-25,-14,-10,-28,-13,-15,-14,-16,-14,-11,-14,-16,-27,-41,-50,-76,-68,-86,-87,-86,-74,-57,-56,-52,-57,-53,-55,-51,-63,-67,-49,-57,-62,-56,-72,-61,-60,-7,100,550,600,-29,-127,-76,-46,-50,-56,-50,-52,-49,-49,-35,-36,-34,-25,-22,-8,0,21,41,58,91,121,143,163,176,176,165,141,126,94,53,37,14,-21,-11,-20,-23,-36,-34,-51
2019-10-16,08:40:15.738,-42,-50,-47,-38,-40,-38,-34,-40,-35,-30,-38,-32,-35,-34,-43,-49,-46,-54,-53,-55,-52,-65,-66,-72,-72,-90,-88,-92,-102,-89,-75,-64,-78,-55,-53,-47,-64,-46,-56,-57,-70,-59,-64,-65,-63,-63,-11,40,391,630,201,-156,-97,-69,-56,-61,-66,-50,-49,-42,-33,-40,-32,-21,-23,-7,-1,17,34,58,87,107,137,166,169,183,187,177,147,122,104,66,50,33,24,5,-8,-6,-9,-19,-9,-12,-14,-13,-11,-14,-8,-12,-14,-11,-16,-17,-12,-24,-18,-18,-14,-25,-27,-40,-53,-65,-64,-72,-82,-70,-64,-55,-55,-48,-50,-44,-45,-51,-52,-43,-58,-50
2019-10-16,08:40:16.738,-54,-61,-53,-61,-55,4,95,452,573,14,-144,-83,-58,-63,-60,-59,-59,-52,-51,-44,-41,-35,-20,-15,-6,12,19,42,66,84,114,138,166,173,165,170,157,118,79,54,25,4,-12,-27,-40,-51,-54,-58,-57,-67,-64,-65,-67,-67,-58,-58,-54,-49,-48,-57,-47,-63,-67,-70,-59,-58,-64,-67,-76,-75,-78,-81,-92,-84,-94,-93,-88,-83,-85,-70,-62,-59,-63,-65,-66,-70,-82,-82,-91,-82,-69,-64,-62,-42,-43,-50,-58,-46,-64,-64,-62,-73,-71,-73,-69,-61,-47,15,176,850,1118,314,-85,-39,-38,-55,-64,-65,-50,-67,-60,-60,-49,-47,-46,-32,-32,-23
2019-10-16,08:40:17.738,-20,-28,0,31,54,73,115,129,138,146,134,113,98,91,54,45,16,5,1,2,-11,-14,-20,-15,-12,-9,-10,-6,-3,-2,-12,-2,-5,-7,-8,-5,-14,-3,-19,-19,-18,-16,-25,-34,-36,-36,-34,-41,-49,-55,-65,-69,-74,-81,-84,-71,-61,-57,-53,-45,-50,-51,-47,-53,-47,-52,-62,-57,-55,-53,-45,-65,-12,487,1297,958,49,-19,-46,-49,-61,-70,-79,-72,-69,-68,-65,-62,-74,-76,-65,-72,-65,-59,-43,-36,-16,-2,18,40,56,59,72,62,52,44,31,11,-1,-6,-7,6,-6,-23,-17,-31,-26,-28,-29,-14,-29,0,-16,-9,-12,-19,-17,-6
2019-10-16,08:40:18.738,11,17,22,13,13,0,-23,-36,-44,-46,-40,-48,-49,-50,-55,-65,-78,-61,-56,-43,-46,-41,-28,-16,-16,9,12,17,13,11,17,13,5,12,0,28,198,1010,1387,401,-16,-3,-19,-61,-65,-71,-74,-82,-73,-66,-49,-35,-33,-25,-19,-16,-6,-6,15,24,58,80,81,89,75,81,65,40,31,12,-15,-25,-47,-65,-87,-97,-105,-104,-116,-132,-123,-119,-119,-132,-122,-119,-101,-114,-105,-109,-115,-102,-108,-115,-98,-109,-115,-128,-105,-122,-139,-146,-123,-120,-115,-107,-123,-135,-144,-151,-143,-139,-128,-128,-116,-106,-105,-105,-104,-122,-120,-130,-130,-140,-154,-144,-152,-171
2019-10-16,08:40:19.738,-178,-151,-81,662,1086,429,-97,-113,-141,-132,-169,-177,-167,-175,-172,-145,-162,-163,-155,-141,-180,-181,-114,-97,-93,-95,-57,-56,-37,-20,-12,-5,-22,-8,-13,-44,-26,-28,-53,-48,-54,-77,-75,-72,-94,-103,-61,-56,-42,-50,-40,-33,-21,-10,5,17,15,0,18,32,30,45,25,30,36,35,51,76,93,91,73,150,143,142,146,122,145,158,168,164,178,172,175,203,188,140,195,914,1753,1263,365,274,214,171,201,182,180,182,159,173,188,182,204,193,178,216,197,209,193,228,243,205,291,313,309,308,290,279,246,233,199,163,145,124,119,103,81,68
2019-10-16,08:40:20.738,9,0,-2,-20,-40,-17,-18,-21,-34,-15,-76,-30,-28,-38,-41,-48,-84,-73,-73,-97,-99,-117,-122,-123,-131,-117,-117,-109,-114,-119,-110,-109,-117,-109,-111,-116,-100,-109,-110,-113,-119,-133,-109,81,628,640,-32,-159,-112,-115,-117,-122,-119,-123,-108,-118,-116,-113,-109,-107,-106,-82,-75,-73,-48,-26,3,27,50,76,102,91,54,54,59,30,0,-26,-42,-48,-63,-77,-75,-79,-96,-101,-95,-87,-99,-104,-108,-85,-85,-96,-104,-101,-112,-108,-103,-108,-103,-104,-113,-127,-138,-120,-117,-113,-111,-115,-111,-117,-116,-108,-111,-105,-108,-100,-89,-98,-104,-85,-86,-82,-81,-14,503,981
2019-10-16,08:40:21.738,516,-78,-56,-40,-49,-47,-53,-57,-58,-55,-40,-47,-47,-34,-28,4,24,27,49,65,90,123,166,190,206,225,232,216,183,161,122,103,79,62,37,-66,-8,44,43,41,-3,-17,-40,-67,-107,-25,-28,-48,-93,-95,-82,-46,-54,-57,-56,-75,-85,-104,-105,-110,-115,-97,-91,-93,-101,-98,-90,-100,-95,-93,-94,-94,-86,-80,-84,-72,-67,-65,-64,28,662,1092,433,-75,-51,-49,-60,-68,-62,-59,-61,-56,-60,-52,-47,-54,-45,-42,-43,-29,-16,0,12,25,41,74,96,105,107,101,92,78,55,37,27,10,4,-13,-16,-17,-26,-30,-36,-35,-34,-31,-35,-31
2019-10-16,08:40:22.738,-3,2,7,7,9,4,9,-2,-8,-24,-22,-31,-34,-30,-17,-18,-18,-19,-27,-16,-12,-21,-16,-17,-24,-19,-19,-9,-10,-28,-53,-53,208,1147,1483,515,28,11,-22,-51,-60,-65,-58,-63,-61,-51,-52,-55,-54,-51,-52,-56,-51,-45,-58,-46,-42,-35,-28,-19,-12,-7,-2,0,1,0,-10,-18,-25,-25,-32,-39,-45,-45,-43,-37,-33,-36,-38,-34,-37,-30,-32,-34,-30,-36,-38,-43,-62,-67,-65,-58,-46,-43,-45,-39,-46,-36,-38,-32,-34,-36,-39,-33,-34,-39,-44,-50,-51,-85,-47,528,1582,1551,352,47,4,-47,-70,-78,-80,-74,-78,-76,-76,-73,-72,-69
2019-10-16,08:40:23.738,-70,-70,-62,-53,-44,-37,-26,-16,-1,9,15,11,8,-7,-15,-20,-19,-26,-32,-34,-37,-42,-50,-55,-55,-56,-50,-52,-45,-43,-50,-47,-37,-43,-44,-36,-37,-41,-43,-44,-46,-55,-54,-71,-74,-72,-68,-73,-63,-61,-58,-33,-33,-48,-47,-50,-53,-57,-60,-71,-58,-51,-82,-98,152,1158,1746,831,96,28,-12,-42,-65,-67,-82,-71,-78,-72,-64,-63,-67,-54,-42,-50,-47,-32,-16,-1,-10,-9,22,36,43,3,2,4,-3,-14,-12,-26,-23,-50,-41,-55,-40,-29,-42,-32,4,-40,-79,-48,-25,-11,-4,-23,-28,-7,-1,-45,-36,-45,-36,-23,-62,-54,-25,-13
2019-10-16,08:40:24.738,-76,-69,-56,-61,-53,-51,-68,-58,-68,-98,-76,-58,-55,-103,-97,-96,30,803,1237,457,-47,-55,-70,-82,-97,-92,-85,-99,-95,-90,-73,-79,-68,-68,-40,-36,-20,-4,12,28,66,72,67,84,72,58,30,-9,-29,-51,-92,-109,-88,-127,-115,-146,-120,-148,-140,-125,-121,-117,-145,-109,-95,-95,-102,-73,-89,-77,-61,-58,-39,-41,-151,-37,-38,-43,-49,-54,-57,-51,-61,-104,-61,-28,-25,-20,-26,-22,-26,-32,-32,-61,-49,12,21,19,128,381,802,566,10,37,32,-42,10,38,26,50,44,57,30,68,74,91,96,110,129,147,177,203,227,254,280,286,292,276
2019-10-16,08:40:25.738,239,204,158,113,81,43,14,-6,-22,-27,-38,-40,-48,-51,-60,-68,-79,-67,-65,-74,-72,-76,-88,-83,-74,-70,-61,-100,-73,-77,-72,-70,-77,-64,-58,-49,-62,-74,-68,-65,-77,-86,-80,-72,-78,-76,-83,-86,-81,-85,-63,45,655,898,191,-135,-81,-86,-105,-103,-101,-104,-93,-97,-94,-88,-94,-88,-81,-81,-81,-69,-57,-47,-37,-13,3,18,24,20,12,-9,-24,-49,-76,-103,-125,-134,-147,-157,-146,-158,-161,-138,-143,-146,-136,-112,-114,-111,-89,-88,-88,-77,-81,-79,-84,-102,-105,-109,-106,-101,-83,-85,-76,-80,-83,-69,-70,-82,-73,-64,-78,-69,-55,-57,-49,-37
2019-10-16,08:40:26.738,-53,5,525,1358,1030,146,63,61,25,10,22,13,13,15,20,43,26,50,53,49,51,67,73,80,102,125,138,138,138,134,133,103,65,47,25,5,-23,-38,-52,-71,-72,-69,-78,-74,-54,-52,-67,-50,-54,-52,-43,-44,-46,-48,-45,-61,-45,-71,-61,-72,-101,-96,-75,-82,-61,-69,-67,-63,-54,-61,-74,-46,-40,-49,-38,-9,-12,-6,4,3,-11,7,359,1188,1128,259,81,90,76,54,52,53,57,53,47,52,53,56,56,62,61,67,79,81,94,109,133,151,158,168,173,158,136,120,83,59,31,14,0,-14,-39,-31,-34,-35,-31,-38,-32,-30
2019-10-16,08:40:27.738,-34,-19,-15,-27,-55,-47,-72,-79,-87,-82,-101,-108,-120,-121,-118,-92,-77,-68,-62,-73,-65,-69,-69,-77,-79,-80,-69,-74,-71,-72,-63,-74,0,173,784,814,20,-173,-98,-105,-130,-131,-112,-112,-112,-111,-108,-95,-93,-83,-70,-55,-37,-31,-24,-19,-4,2,-1,0,-37,-49,-42,-37,-26,-54,-73,-94,-93,-103,-115,-119,-116,-126,-121,-115,-90,-84,-74,-65,-57,-19,20,37,27,20,15,5,-12,-15,-30,-42,-36,-33,-32,-40,-38,-34,-27,-14,-13,-15,-16,-4,-23,-28,-20,-35,-26,-32,20,564,1075,606,-7,-9,-9,-26,-38,-33,-34,-32,-41,-26,-15,-18,-11,-15
2019-10-16,08:40:28.738,-3,3,14,30,36,61,62,83,105,119,121,115,103,84,60,36,1,-19,-28,-33,-46,-51,-55,-62,-71,-70,-60,-56,-62,-54,-48,-39,-41,-62,-53,-63,-74,-87,-98,-103,-101,-103,-102,-95,-89,-85,-78,-92,-79,-88,-89,-83,-80,-87,-89,-85,-94,-87,-86,-64,-27,88,378,312,-153,-153,-108,-85,-88,-97,-82,-84,-76,-75,-56,-51,-43,-46,-32,-18,-2,11,29,40,61,88,103,138,144,145,132,118,94,66,41,20,0,-12,-18,-24,-29,-30,-36,-42,-44,-46,-43,-43,-40,-25,-26,-25,-27,-30,-27,-37,-44,-56,-62,-64,-70,-71,-69,-50,-53,-55,-59,-52
2019-10-16,08:40:29.738,-48,-46,-43,-38,-45,-40,-40,-43,-37,-34,-33,35,274,853,844,86,-64,-36,-36,-53,-46,-58,-43,-52,-40,-24,-29,-26,-25,-12,-4,8,21,44,68,91,126,149,170,182,177,158,136,101,74,49,29,22,1,-4,-18,-23,-27,-32,-38,-29,-30,-22,-15,-18,-24,-12,-13,-17,-14,-28,-26,-26,-28,-47,-49,-60,-62,-77,-82,-74,-69,-66,-57,-65,-62,-59,-59,-57,-54,-54,-42,-51,-52,-44,-40,-42,16,288,980,965,105,-52,-30,-36,-55,-62,-67,-58,-54,-46,-47,-29,-20,-12,-4,0,12,35,47,68,89,114,126,144,149,144,130,112,77,50,33,7
2019-10-16,08:40:30.738,-8,-11,-18,-24,-35,-42,-42,-47,-43,-40,-42,-40,-41,-42,-36,-49,-51,-51,-62,-71,-54,-56,-44,-44,-59,-69,-76,-70,-67,-81,-104,-150,-112,-122,-128,-124,-85,-78,-71,-76,-57,-75,-100,-92,-59,-45,-98,-192,-214,285,705,281,-357,-344,-165,-179,-345,-148,-170,-139,-152,-184,-223,-227,-209,-277,-141,-73,-91,63,97,4,145,115,198,181,207,256,247,269,190,151,92,94,15,51,20,52,61,40,-25,68,-27,-18,73,15,-4,74,-288,97,143,54,16,6,34,-17,-10,75,-69,17,28,2,16,49,50,7,-30,-38,-16,27,-17,-17,2,-69,64,48,37,8
2019-10-16,08:40:31.738,26,6,-25,-32,-122,-6,-93,-16,16,12,-48,48,157,283,295,78,-144,-60,-60,-24,-186,17,25,13,24,0,-10,-10,-19,-14,0,2,11,33,60,82,96,156,203,196,191,190,162,144,129,70,28,-33,-54,-77,-57,-80,-93,-111,-114,-112,-111,-114,-85,-104,-53,-38,-40,-46,-60,-56,-71,-79,-91,-96,-116,-125,-96,-41,-30,-33,-22,-34,-48,-33,-37,62,-48,-78,-33,-228,-190,-188,-43,-26,-122,-92,-77,-38,57,247,823,1169,412,-91,17,-189,77,24,-118,-197,-118,-99,-199,-102,48,-123,-94,-55,-232,60,82,-7,41,62,-26,280,104,217,98,93,205,96
2019-10-16,08:40:32.738,165,144,34,-9,15,51,-184,157,101,29,4,-66,44,-52,-128,-48,122,120,41,27,-39,-111,-48,34,10,-172,14,-33,-6,-45,62,-88,-159,-54,76,-64,-128,7,-65,-250,-47,-57,-40,-7,-26,-43,-19,-138,0,-36,-61,-46,-61,-55,-31,-36,-21,-82,-8,205,590,553,3,-71,-40,-37,-91,-102,0,5,-29,-5,-37,2,-72,21,29,-34,51,29,-27,13,182,164,176,217,199,217,197,115,179,132,119,47,86,42,10,3,20,14,-12,-9,-29,25,-20,3,-2,-13,28,-5,17,9,-22,-29,0,-23,-34,-50,-120,-159,-148,-129,-114,-41,-6,-30,-48,-80
2019-10-16,08:40:33.738,-105,-159,80,62,-117,-187,-285,-236,-181,-104,-110,-117,-128,-128,-86,1,370,522,37,-187,-117,-92,-93,-89,-86,-70,-63,-60,-57,-47,-30,-26,-23,-8,15,15,47,57,85,132,151,178,194,194,201,178,151,111,73,42,16,0,-17,-23,-22,-32,-43,-31,-33,-46,-51,-41,-40,-41,-40,-42,-36,-41,-41,-37,-45,-45,-45,-43,-50,-53,-43,-53,-61,-79,-78,-83,-75,-88,-76,-73,-64,-64,-54,-49,-48,-46,-54,-45,-43,-37,-42,-48,-47,-41,-32,32,146,661,903,266,-99,-38,-24,-31,-39,-30,-43,-20,-30,-26,-26,-19,-22,-17,-17,13,16,36,58,79,97,133
2019-10-16,08:40:34.738,148,163,172,166,154,117,88,61,39,14,0,-16,-27,-28,-31,-39,-48,-42,-54,-46,-48,-41,-43,-43,-42,-43,-40,-42,-38,-38,-43,-50,-52,-53,-54,-60,-74,-89,-94,-99,-107,-109,-86,-95,-78,-83,-81,-57,-59,-63,-58,-59,-56,-63,-61,-63,-58,-65,-50,1,106,635,1012,392,-90,-49,-36,-52,-56,-57,-50,-51,-49,-37,-40,-33,-28,-28,-19,-9,9,28,47,75,99,121,142,162,168,161,139,116,82,61,39,18,6,-1,-18,-19,-21,-26,-35,-33,-26,-37,-36,-37,-32,-35,-36,-36,-35,-37,-40,-40,-42,-42,-46,-44,-53,-57,-64,-73,-79,-90,-94,-97
2019-10-16,08:40:35.738,-104,-85,-83,-74,-75,-70,-54,-63,-61,-67,-58,-62,-57,-57,-56,-56,-61,-37,40,206,637,589,-53,-111,-57,-54,-64,-63,-62,-59,-57,-52,-52,-46,-39,-33,-32,-11,-1,18,33,53,85,109,134,154,171,167,160,146,111,89,68,30,19,0,-7,-11,-25,-26,-34,-37,-40,-36,-34,-33,-29,-29,-39,-35,-34,-34,-44,-40,-36,-42,-50,-45,-53,-54,-62,-77,-83,-83,-87,-94,-91,-84,-66,-64,-68,-53,-51,-49,-45,-44,-45,-43,-49,-38,-44,-37,-18,82,231,638,636,-52,-122,-49,-38,-37,-50,-36,-26,-35,-30,-26,-22,-10,-2,-4,2,19,24,48,72,99
2019-10-16,08:40:36.738,114,136,161,168,169,156,139,117,93,56,34,8,1,-10,-15,-18,-32,-29,-31,-33,-36,-32,-31,-34,-30,-32,-37,-42,-43,-39,-43,-50,-43,-50,-57,-63,-68,-82,-83,-92,-95,-94,-95,-88,-77,-72,-65,-53,-49,-57,-54,-57,-56,-55,-54,-47,-52,-37,-5,87,414,820,476,-138,-73,-42,-49,-53,-48,-43,-44,-37,-34,-30,-27,-21,-17,-12,-1,14,23,45,68,78,100,120,146,147,143,130,110,79,57,32,17,1,-14,-15,-22,-33,-30,-35,-37,-35,-37,-36,-39,-34,-36,-38,-33,-34,-34,-41,-38,-45,-47,-52,-55,-71,-81,-80,-84,-92,-94,-83,-73,-65
2019-10-16,08:40:37.738,-60,-45,-42,-39,-37,-40,-35,-40,-42,-49,-44,-30,-16,61,229,679,677,-44,-82,-24,-19,-32,-34,-31,-30,-27,-21,-19,-13,-9,-2,2,7,20,34,52,62,85,110,131,148,149,153,143,125,97,71,54,31,23,-3,-1,-8,-11,-22,-16,-19,-20,-19,-14,-19,-18,-15,-19,-26,-28,-28,-26,-29,-33,-39,-41,-55,-58,-65,-69,-76,-82,-77,-70,-60,-57,-51,-43,-48,-43,-43,-44,-43,-50,-46,-48,-43,-33,10,86,356,689,322,-159,-75,-27,-38,-41,-37,-42,-31,-31,-27,-26,-18,-13,-1,2,14,21,42,56,73,104,121,142,150,153,147,140,116,89
2019-10-16,08:40:38.738,31,9,-10,-29,-36,-45,-55,-57,-59,-60,-65,-63,-65,-64,-64,-62,-61,-66,-65,-62,-63,-66,-66,-73,-81,-82,-86,-95,-102,-101,-107,-102,-97,-82,-79,-62,-63,-65,-58,-62,-58,-52,-51,-57,-60,-52,-27,83,188,459,467,-125,-172,-76,-33,-42,-44,-35,-32,-30,-20,-14,-4,-1,6,7,17,39,47,63,83,107,133,156,176,179,181,175,153,120,94,67,37,28,15,1,-9,-14,-16,-20,-20,-23,-22,-28,-30,-33,-25,-35,-35,-40,-37,-39,-29,-39,-56,-59,-69,-79,-90,-95,-85,-78,-65,-61,-50,-36,-52,-53,-50,-50,-49,-47,-52,-49,-37,-14,94,245
2019-10-16,08:40:39.738,587,505,-128,-114,-58,-34,-36,-26,-32,-34,-29,-23,-22,-11,-7,-13,-3,-1,8,31,38,57,80,103,128,147,153,153,150,122,98,71,46,21,7,-8,-13,-19,-26,-34,-37,-36,-37,-35,-37,-34,-35,-31,-41,-33,-35,-33,-42,-43,-54,-67,-69,-80,-93,-95,-88,-86,-67,-65,-61,-46,-45,-43,-43,-46,-45,-47,-48,-53,-51,-32,17,98,413,759,277,-153,-65,-25,-37,-41,-33,-27,-23,-27,-26,-17,-11,-7,0,1,12,17,35,52,76,96,110,125,130,137,125,110,87,63,45,27,9,-4,-16,-24,-34,-33,-37,-39,-41,-41,-38,-33,-36,-36,-33,-35
2019-10-16,08:40:40.738,3,1,-3,-2,-9,-19,-24,-36,-41,-50,-49,-37,-29,-23,-20,-14,-17,-16,-14,-16,-16,-15,-18,-16,-17,4,43,122,371,667,255,-152,-52,-4,-14,-18,-16,-11,-10,-7,-8,0,5,8,17,17,32,38,52,65,85,108,133,143,152,150,145,124,104,81,53,30,16,2,-4,-17,-24,-27,-27,-30,-34,-31,-36,-31,-39,-33,-42,-37,-45,-43,-40,-47,-55,-65,-67,-77,-82,-93,-87,-84,-63,-63,-66,-52,-52,-53,-53,-43,-48,-55,-52,-56,-42,0,120,240,457,347,-196,-146,-59,-38,-42,-43,-41,-37,-21,-27,-26,-15,-5,0,5,14,20,45,65,80
2019-10-16,08:40:41.738,104,133,149,160,168,169,154,122,110,76,46,23,2,-11,-23,-23,-26,-34,-37,-37,-33,-39,-37,-26,-29,-36,-29,-31,-38,-33,-41,-54,-66,-64,-74,-84,-96,-91,-80,-74,-64,-45,-49,-49,-47,-43,-43,-42,-38,-48,-40,-18,63,180,462,645,121,-188,-86,-40,-45,-39,-35,-36,-29,-28,-30,-20,-13,-14,-4,3,7,21,39,52,71,97,115,141,147,143,142,125,102,76,48,23,-1,-4,-24,-36,-43,-49,-46,-51,-58,-55,-53,-54,-53,-51,-47,-50,-53,-54,-54,-64,-74,-90,-89,-104,-109,-112,-100,-94,-80,-83,-62,-62,-67,-61,-59,-64,-55,-56,-59,-52
2019-10-16,08:40:42.738,-5,80,224,629,650,-41,-103,-33,-16,-26,-31,-26,-21,-18,-21,-14,-7,-6,4,8,11,23,37,50,65,82,104,119,131,133,129,120,102,81,54,34,12,1,-4,-14,-17,-25,-23,-27,-32,-32,-31,-32,-34,-27,-28,-26,-21,-21,-23,-33,-37,-52,-61,-69,-77,-83,-80,-75,-65,-61,-62,-46,-43,-44,-42,-49,-43,-45,-46,-44,-33,-15,60,179,568,608,-61,-102,-66,-45,-32,-57,-40,-35,-26,-12,-17,-3,-30,-34,13,21,26,23,44,55,72,89,85,112,104,103,94,75,47,20,3,-15,-26,-54,-47,-59,-56,-60,-61,-62,-53,-51,-59,-50,-54,-62
2019-10-16,08:40:43.738,-66,-72,-73,-76,-69,-73,-81,-86,-88,-104,-106,-94,-92,-80,-77,-76,-67,-76,-74,-67,-58,-62,-68,-64,-57,-51,-28,62,189,548,651,22,-147,-71,-48,-54,-60,-50,-37,-31,-26,-27,-37,-22,-15,-15,-12,-8,5,30,47,66,85,101,128,127,123,105,93,58,27,-8,-13,-46,-64,-76,-71,-66,-70,-67,-64,-62,-93,-63,-72,-52,-59,-51,-50,-49,-47,-32,-54,-64,-72,-73,-78,-93,-91,-74,-63,-34,-36,-53,-41,-46,-49,-49,-51,-58,-60,-44,-45,-9,60,177,538,688,156,-111,-19,4,1,9,18,32,34,50,50,69,156,81,61,117,97,87,63,140
2019-10-16,08:40:44.738,136,173,210,192,203,209,193,174,152,123,89,69,50,40,28,18,20,15,11,20,36,32,45,36,44,4,-9,-82,-113,-173,-215,-220,-229,-204,-211,-221,-218,-201,-185,-169,-141,-146,-124,-108,-112,-116,-107,-106,-106,-96,-85,-88,-48,-30,139,742,1271,565,-34,-21,-13,-40,-41,-46,-38,-33,-38,-39,-21,-18,-17,-5,-7,-11,-4,-2,0,4,18,24,44,51,53,58,46,40,32,19,16,-7,-8,-3,-6,-17,-18,-25,-27,-13,-13,-27,-19,-21,-16,-15,-10,-15,-14,-18,-28,-30,-45,-60,-58,-59,-47,-46,-44,-32,-31,-34,-37,-33,-15,-21,-32,-23,-34,-26
2019-10-16,08:40:45.738,37,-1,-7,590,1752,1688,524,217,148,80,57,31,22,19,21,27,22,17,21,21,12,7,-1,5,-4,-8,-16,-18,-21,-12,-15,-14,1,14,46,60,75,89,96,96,85,93,96,100,96,95,94,105,99,99,87,99,92,80,80,71,70,55,38,21,11,-3,-7,-11,-17,-22,-20,-21,-6,-13,16,-24,-15,-40,-28,-35,-38,-21,-24,-59,301,1421,1693,633,234,137,8,-5,-5,66,53,82,136,155,115,89,54,-12,-45,-47,-90,-152,-134,-98,-68,-51,-27,-7,7,32,61,96,84,91,95,184,162,137,114,154,149,141,154,137,133,137,130,128
2019-10-16,08:40:46.738,29,25,23,9,-4,-20,-30,-46,-50,-79,-95,-101,-101,-109,-115,-121,-122,-130,-143,-150,-167,-182,-184,-202,-219,-232,-198,-268,-252,581,1575,969,46,-120,-309,-369,-486,-654,-1031,-1348,-1514,-1580,-1674,-1774,-1507,-865,-891,-1269,-1337,-1237,-1193,-1249,-1323,-1376,-1419,-1452,-1449,-1442,-1420,-1389,-1391,-1413,-1420,-1420,-1392,-1354,-1355,-1341,-1319,-1429,-1165,-957,-584,-384,33,103,320,502,606,516,462,446,399,337,308,316,369,387,345,382,487,549,593,539,482,403,316,261,215,190,147,161,222,169,111,-136,144,1442,1897,777,141,-91,-372,-121,189,425,539,710,855,913,936,933,904,865,847,834,811,775
2019-10-16,08:40:47.738,659,611,581,555,500,414,421,338,241,140,-136,9,157,346,509,544,583,630,713,660,566,437,254,6,-253,-494,-748,-987,-1149,-1264,-1399,-1553,-1697,-1793,-1849,-1859,-1980,-1877,-1904,-1944,-1871,-1682,-1410,-1329,-1234,-1137,-1045,-999,-998,-995,-974,-874,-613,-225,121,621,1734,2276,1466,1089,1129,1191,1258,1359,1469,1559,1611,1671,1787,1738,1619,1673,1703,1649,1617,1563,1517,1455,1432,1470,1542,1578,1594,1606,1647,1664,1636,1625,1612,1599,1601,1569,1578,1550,1532,1523,1570,1553,1527,1472,1450,1333,852,-828,-2579,-3169,-3308,-3329,-3280,-3193,-3191,-3248,-3229,-3249,-3169,-3082,-2956,-2731,-2772,-2575,-2392,-2338,-2259,-2231,-2183,-2099,-1896,-1090
2019-10-16,08:40:48.738,988,1521,823,-305,1137,2090,1871,1902,2405,1787,899,3057,1718,970,872,-460,-1197,-1634,-408,-64,-83,-228,702,1490,2665,3936,4343,4456,4198,2854,1347,910,1196,2019,-1428,-1408,-1374,-1354,-1270,-1284,-1161,-1186,-1129,-1084,-1034,-991,-950,-911,-866,-791,-774,-717,-727,-659,-623,-531,-719,-747,-741,-631,-554,-474,-398,-300,-142,55,221,315,500,622,557,1016,887,841,604,421,252,209,312,448,416,748,906,736,501,763,1147,1654,1821,1999,2015,2022,1600,1282,1106,866,674,927,1139,1195,1200,1255,1122,1192,1226,1256,1215,975,-1076,-2292,-2359,-2357,-1766,-1985,-2629,-3582,-6002,-7384,-7371,-7360,-7349,-7340,-7331,-7324,-7317,-7311,-7306,-6806
2019-10-16,08:40:49.738,-2614,2046,975,-281,-743,-636,-1444,-1694,-1420,-1171,-987,-899,-770,-573,-186,197,402,484,396,-1833,-2538,3734,1992,3232,3123,2677,2317,2008,1754,1256,632,61,923,1460,1401,1409,1510,1588,1710,1770,1728,1698,1617,1533,1552,1661,1823,1901,1917,1932,1853,1737,1668,1586,1525,1425,1249,1076,877,749,699,751,907,1100,1141,1246,1487,1701,1667,1632,1445,1124,821,573,386,496,660,774,811,775,620,302,-152,-771,-348,24,21,84,55,304,460,499,417,388,405,344,284,256,636,867,745,552,451,403,341,275,114,-162,-235,-103,-24,-53,-119,-157,-194,-342,-643,-969,-818,-576,-479,-544,-730,-846,-837,-763,-747,-827
2019-10-16,08:40:50.738,-1858,-1948,-1983,-1934,-1917,-1961,-2021,-2053,-2075,-2112,-2156,-2185,-2172,-2117,-2019,-1916,-1896,-2052,-2388,-2864,-3004,-2622,-2223,-2082,-1879,-2316,-3037,-3439,-3066,-2819,-2662,-3000,-3048,-2889,-3099,-3042,-3038,-2987,-3085,-3118,-3148,-3128,-3213,-3213,-3246,-3293,-3333,-3363,-3392,-3403,-3444,-3511,-3492,-3597,-3694,-3527,-3013,5078,5060,5044,5030,5017,5005,4995,4987,4981,4976,4973,4972,4973,4976,4980,4987,4996,5007,5019,5034,5051,5071,5092,5116,5142,5170,5200,5232,5267,5304,5343,5385,5428,5474,5523,5573,5626,5681,5738,5798,5859,5923,5989,6057,6127,6200,6274,6351,6429,6509,6592,6676,6762,6850,6939,7031,7123,7218,7314,7447,7628,7713,7773,7858,7985,8202,8482,8755,8982,9133,9024
2019-10-16,08:40:51.738,-8562,-8479,-8261,-8051,-7972,-7941,-7856,-7777,-7664,-7469,-7290,-7232,-7194,-7066,-6856,-6625,-6218,-6285,-6193,-6215,-6043,-5877,-5578,-5161,-5171,-5352,-5290,-5021,-4706,-4589,-4609,-4610,-4515,-4370,-4260,-4159,-3989,-3890,-3829,-3711,-3539,-3413,-3327,-3319,-3341,-3279,-3151,-2975,-2814,-2752,-2716,-2635,-2551,-2481,-2457,-2418,-2429,-2433,-2267,-2061,-1918,-1791,-1633,-1459,-1319,-1395,-1446,-1443,-1399,-1310,-1208,-1104,-1062,-1021,-952,-884,-777,-663,-601,-578,-560,-455,-392,-327,-290,-238,-150,-100,-111,-170,-218,-227,-138,-24,37,54,67,86,120,129,151,181,193,144,132,150,184,237,297,317,314,328,404,490,537,499,410,344,326,347,383,417,428,444,463,516,582,608
2019-10-16,08:40:52.738,117,89,72,83,101,110,81,41,36,60,61,36,-6,-36,-25,1,-4,-35,-56,-53,8,4,-25,-21,5,22,30,34,28,36,44,44,46,44,30,12,-7,-6,23,38,14,-3,-7,-1,21,41,35,41,57,63,59,47,50,56,56,39,41,44,43,40,35,25,22,24,35,51,52,50,43,42,49,47,28,12,22,37,27,-5,-28,-24,1,38,37,17,17,35,41,28,17,23,27,42,50,38,31,30,29,10,-9,-4,-1,0,-13,-26,-12,6,10,13,14,25,29,34,44,31,21,20,30,32,22,15,26,25,14,14,8,-3,-26,-51
2019-10-16,08:40:53.738,-56,-44,-31,-46,-62,-77,-64,-49,-45,-45,-52,-43,-32,-22,-24,-4,4,-8,-13,1,5,9,4,13,11,14,-1,-9,-10,-1,2,16,19,26,27,30,33,33,35,37,46,41,37,47,51,46,34,25,18,19,20,14,25,31,18,9,6,17,20,20,25,36,16,27,41,46,39,35,27,34,39,27,7,24,31,12,8,11,20,31,33,25,11,5,31,50,60,38,22,41,62,36,-5,10,41,45,14,2,40,66,74,50,16,0,9,-7,-37,-70,-77,-49,11,43,39,9,-19,-46,-16,31,41,22,2,55,77,110,123,143,173,192
2019-10-16,08:40:54.738,224,227,241,176,99,115,191,144,96,-129,-365,-505,-755,-811,-782,-930,-785,-670,-744,-780,-740,-681,-530,-122,211,342,315,47,-163,-373,-508,-556,-517,-457,-368,-333,-253,-93,-70,-51,14,150,393,613,521,274,578,682,441,283,388,391,363,345,320,301,305,280,237,222,200,197,173,194,159,138,132,157,91,3,20,-1,-9,8,20,91,42,19,74,106,132,155,175,149,135,39,17,26,-25,-19,-31,-47,-81,-61,-30,-30,-43,-59,-53,-29,-25,-7,-26,-41,-34,-42,-23,-4,-20,-40,-26,-22,14,26,19,3,-17,-24,-42,-36,-31,-37,-32,-32,-37,-37,-37,-41
2019-10-16,08:40:55.738,-28,-26,-28,-3,3,4,9,7,1,4,9,9,4,2,-6,0,7,10,12,1,1,-6,-12,-4,-4,3,19,18,14,0,-9,-10,-5,0,3,27,75,91,70,53,53,48,32,26,24,19,26,37,44,26,27,42,60,87,145,72,53,55,71,22,18,31,44,46,39,27,30,22,40,18,2,-4,19,32,35,13,-18,-47,-51,-22,-21,-20,-46,-46,-51,-64,-76,-90,-117,-99,-101,-89,-65,-50,-94,-81,-65,-41,-63,-73,-61,-47,-83,-70,-72,-58,-31,-25,2,-20,-60,-72,-99,-98,-61,-79,-114,-74,-73,-73,-52,-17,-16,-23,-5,-10,-45,-58
2019-10-16,08:40:56.738,-85,-35,-26,-50,-61,-56,-62,-64,-841,-190,-87,-98,-117,-76,-56,-53,-33,-42,-49,-18,-5,-10,-20,-36,-16,-29,-72,-66,-58,-79,-100,-91,-62,-19,-16,-58,-87,-76,-60,-70,-81,-75,-69,-82,-120,-130,-90,-72,-86,-53,418,627,434,441,144,136,-34,-174,5,1062,1227,611,122,-160,-240,-213,-85,20,93,39,-125,-339,-524,-357,189,513,530,465,350,76,-49,-223,-284,-104,115,152,91,42,-8,-74,-109,-102,-81,106,157,127,90,98,153,241,341,434,506,624,906,833,579,324,315,477,599,591,528,530,572,597,606,576,439,413,395,381,365,352,323,309,366,440
2019-10-16,08:40:57.738,449,442,399,315,234,226,383,561,721,791,732,614,486,408,416,513,665,761,747,-761,-822,-806,-796,-785,-778,-764,-752,-743,-737,-728,-718,-706,-694,-684,-676,-664,-657,-646,-628,-582,-353,-71,-7,-62,-124,-156,-161,-158,-78,73,63,-138,-177,-102,-46,-307,-476,-467,-461,-456,-453,-437,-432,-423,-426,-421,-406,-397,-390,-386,-385,-384,-376,-371,-367,-360,-363,-341,-409,-483,-642,-954,-514,-85,-266,-64,163,302,326,374,403,606,197,62,-145,-275,-410,-226,-148,-130,-122,-49,30,24,-23,-26,-14,-13,-55,-72,-57,-44,-74,-75,-67,-68,-49,-6,-32,-56,-41,-40,-31,-28,0,-2,8,41
2019-10-16,08:40:58.738,151,162,138,89,57,52,56,63,72,93,119,139,151,147,157,158,121,85,80,99,109,116,132,180,206,215,224,240,259,245,219,231,235,227,211,221,230,233,255,275,303,320,326,335,344,346,333,323,322,322,317,318,335,338,325,338,348,327,309,313,312,324,312,323,345,337,319,297,312,355,356,330,307,266,74,128,144,124,95,80,58,45,47,49,46,38,29,5,-15,-45,-85,-110,-119,-134,-160,-177,-170,-169,-172,-163,-150,-130,-138,-144,-143,-156,-182,-214,-231,-234,-224,-225,-253,-279,-297,-318,-350,-375,-380,-380,-387,-395,-387,-396,-416,-439,-456,-454
2019-10-16,08:40:59.738,-450,-444,-445,-437,-443,-456,-466,-476,-480,-493,-501,-504,-499,-506,-512,-527,-543,-565,-582,-580,-577,-583,-589,-618,-663,-684,-699,-704,-676,-690,-676,-766,-688,-660,-592,-622,-702,-700,-633,-568,-513,-572,-406,-330,-61,-22,156,127,-19,338,296,185,231,482,368,311,377,443,438,351,325,363,455,360,611,683,666,700,690,726,620,560,707,661,678,600,599,686,679,666,738,617,605,539,572,627,569,567,507,470,414,310,336,325,327,300,289,331,328,247,175,148,117,72,54,46,49,101,113,135,158,169,181,190,196,225,256,270,250,209,162,126,74,93,45,-102,-91,-48
2019-10-16,08:41:00.738,-87,-202,-293,-298,-326,-478,-651,-401,-24,137,131,248,453,494,349,186,136,142,118,57,18,29,74,99,106,124,167,191,170,104,51,14,-30,-77,-106,-109,-119,-133,-144,-125,-108,-96,-72,-36,38,147,56,31,39,44,48,51,44,34,47,49,50,52,54,57,55,58,51,34,24,27,37,31,27,47,74,84,75,93,117,115,102,78,87,85,59,12,1,-3,-31,-59,-66,-85,-124,-151,-143,-117,-98,-66,-50,-27,-11,22,57,73,78,92,106,97,80,87,84,74,63,54,43,27,5,-9,-20,-51,-86,-103,-112,-124,-142,-172,-181,-161,-146,-130,-131,-120
2019-10-16,08:41:01.738,-167,-166,-202,-231,-243,-253,-269,-280,-277,-281,-278,-277,-253,-250,-241,-254,-262,-258,-238,-257,-302,-341,-373,-413,-435,-448,-458,-470,-520,-570,-612,-622,-587,-541,-460,-379,-331,-286,-222,-148,-80,20,109,155,226,318,374,434,485,502,420,332,280,228,172,134,105,72,39,34,23,-1,1,1,-17,-8,-20,-24,-17,-29,-80,-157,-210,-234,-228,-225,-193,-158,-145,-122,-134,-152,-158,-182,-155,-146,-161,-194,-201,-175,-192,-186,-160,-145,-158,-206,-210,-274,-273,-267,-264,-362,-675,-566,-576,-1019,-1666,-1809,-1595,-1819,-1827,-738,114,339,268,847,417,-218,-408,-582,-1228,-970,-224,135,242,776,1118,704
