0,0,0,75,76,77,77,77,77,77,76,76,75,75,74,73,71,70,69,68,67,65,64,64,63,63,64,64,65,65,66,66,67,68,68,67,67,67,66,67,67,67,67,67,67,67,68,68,69,69,69,68,68,68,67,67,67,66,66,66,66,67,68,69,70,72,73,74,74,74,74,73,71,70,69,68,68,68,68,68,68,69,69,69,69,69,69,70,71,72,73,74,75,75,75,74,74,72,71,71,70,70,69,69,69,69,68,68,68,68,68,68,68,68,68,68,68,68,67,67,67,67,68,68,68,68,68,69,69,69,69,69,70,71,72,72,72,72,73,73,75,76,78,79,80,80,80,80,79,79,78,78,78,77,77,77,76,77,77,76,76,76,76,77,78,79,79,79,79,79,79,79,79,79,79,78,77,76,75,75,75,76,76,76,76,76,75,75,74,73,72,72,72,72,72,72,73,74,74,75,76,76,76,77,77,77,77,76,76,76,76,76,76,76,75,75,75,75,75,75,74,74,74,73,73,72,72,71,71,71,71,70,70,70,70,70,70,70,70,70,70,71,70,70,70,70,70,70,69,68,67,67,68,68,68,68,68,68,69,69,69,70,70,71,71,71,71,71,71,71,71,72,73,75,77,79,80,81,81,81,81,82,83,84,86,89,92,94,96,99,101,103,104,104,102,99,97,94,91,90,90,90,91,91,91,91,91,91,90,90,90,90,90,90,90,90,90,89,89,88,88,87,87,86,86,86,87,87,87,87,87,87,86,86,85,85,85,85,85,86,86,87,87,87,87,87,86,85,84,83,83,83,83,83,83,83,83,83,83,82,82,81,80,80,79,79,78,78,79,79,80,81,81,82,82,82,82,82,82,82,82,82,82,82,83,83,83,84,84,85,85,85,85,85,85,85,85,86,87,88,88,89,90,89,88,88,87,87,88,89,90,91,91,90,89,88,87,85,85,84,84,84,84,84,84,85,85,85,86,86,87,87,86,86,85,85,84,84,84,84,85,85,86,87,86,86,85,85,84,84,84,84,84,84,85,85,85,86,86,86,87,87,87,87,87,87,87,87,88,88,89,90,90,90,90,90,90,90,90,89,88,88,87,87,87,88,88,89,89,90,90,90,90,90,90,90,90,90,90,90,90,90,90,89,89,88,88,88,88,88,88,88,88,88,88,87,87,86,85,84,83,83,83,83,83,83,83,83,83,84,84,84,85,85,85,85,85,84,84,84,85,86,86,87,88,88,88,89,89,89,89,89,88,86,84,82,80,79,79,80,81,83,84,85,86,86,86,86,86,86,86,85,84,83,82,81,79,79,79,78,77,76,75,74,74,74,73,73,73,72,72,71,71,71,71,71,70,70,70,70,70,69,69,69,69,69,69,69,69,68,68,68,68,68,68,68,67,67,67,67,67,67,66,66,66,66,66,66,65,65,65,64,64,64,64,64,65,65,65,65,65,65,65,64,63,62,62,61,61,61,61,61,61,62,63,64,65,66,66,67,67,66,66,66,65,65,64,64,63,63,63,63,63,63,64,64,65,66,66,66,65,64,64,63,62,62,62,62,62,63,63,63,64,64,65,65,66,66,66,67,68,68,69,69,70,70,70,70,70,69,68,68,67,67,67,66,66,65,64,64,64,64,63,63,63,63,64,64,63,63,64,64,64,64,63,63,62,62,61,61,61,61,61,61,61,61,61,61,61,61,61,61,61,61,62,62,62,61,62,62,62,61,61,61,60,60,60,61,61,61,61,61,61,62,63,63,63,63,63,63,63,63,63,63,62,62,63,63,63,62,62,63,63,63,63,63,63,64,64,64,65,65,66,66,67,67,68,68,67,67,66,65,64,64,64,64,64,64,63,63,63,63,63,63,63,63,62,62,62,62,62,61,61,62,62,61,61,61,61,62,62,62,63,64,66,71,75,81,86,90,91,92,92,93,92,92,92,92,93,94,95,96,97,98,99,100,100,100,99,98,95,93,90,87,85,83,81,79,77,77,76,75,75,75,76,76,77,78,78,79,79,78,78,78,77,76,75,75,74,73,74,74,74,75,75,75,74,73,73,72,71,72,73,73,74,75,75,75,75,75,75,75,75,75,77,78,80,81,81,80,79,78,77,76,76,75,75,74,74,74,75,75,75,75,74,74,73,73,73,73,74,74,75,75,75,74,72,70,69,67,66,66,66,67,68,69,70,71,71,71,71,70,70,69,69,68,68,68,68,68,68,68,68,69,70,70,71,72,73,73,72,72,71,71,70,70,70,70,70,70,70,70,70,70,71,72,72,73,73,74,74,75,75,76,77,79,82,84,87,89,91,92,92,91,90,88,86,83,81,80,79,78,78,78,79,79,80,81,81,81,81,81,81,81,81,82,83,83,84,85,85,85,85,84,84,84,84,84,84,84,84,84,84,83,83,82,81,80,80,79,79,79,79,79,79,78,78,78,78,78,79,79,79,79,79,79,79,80,80,81,82,83,83,84,84,84,84,83,83,82,82,81,81,81,81,81,80,80,80,81,81,81,80,80,80,80,79,79,79,79,78,78,79,79,80,80,81,81,81,81,80,80,80,80,80,80,80,80,80,80,80,80,80,80,79,79,79,79,78,78,78,78,78,80,81,82,84,85,85,85,84,83,82,82,81,81,81,81,81,81,81,81,80,80,80,80,81,81,81,82,82,82,82,82,81,81,81,81,80,80,80,80,80,80,80,79,79,79,80,81,82,82,83,84,84,84,84,83,83,83,82,82,82,82,82,82,82,82,83,83,83,84,84,84,84,84,84,84,84,84,84,84,85,86,87,88,89,89,88,87,86,86,85,85,85,85,86,86,86,87,87,87,88,88,88,88,88,87,87,87,87,87,87,87,87,87,87,88,88,89,89,90,90,90,90,90,90,89,90,90,90,90,90,91,91,91,91,91,91,91,91,90,90,90,90,90,90,90,90,90,90,89,89,88,88,87,87,87,87,87,87,87,87,87,87,87,87,87,88,89,90,91,92,93,93,93,93,92,91,91,91,92,93,94,95,96,97,99,100,101,102,103,103,104,104,104,104,103,103,103,103,103,103,102,101,100,99,98,97,96,95,95,94,94,94,95,96,97,98,98,98,98,98,98,98,98,99,99,100,100,101,100,101,101,101,102,102,102,103,104,105,105,105,105,105,105,104,104,104,104,105,105,106,107,108,108,109,109,109,110,110,111,111,112,113,114,115,117,118,119,119,120,121,122,123,123,123,123,122,121,120,120,120,120,120,120,120,120,120,120,121,122,122,123,123,123,123,123,122,122,122,122,123,123,124,125,125,126,126,126,126,126,126,126,127,127,128,128,127,127,126,126,125,125,125,125,125,125,124,124,124,125,126,127,128,130,131,131,132,133,133,134,134,134,135,136,137,138,138,139,139,139,138,137,135,133,131,129,127,125,123,122,120,118,117,115,114,114,113,112,112,111,111,111,111,111,110,109,107,106,104,104,103,103,102,102,101,101,101,101,102,103,104,105,106,107,108,108,107,107,106,106,105,105,105,105,105,104,103,102,101,101,101,101,102,102,103,103,104,105,106,107,109,110,110,110,110,110,110,110,110,111,111,111,111,111,111,111,111,111,111,112,112,112,112,113,113,114,114,114,114,114,115,115,116,117,117,117,116,115,115,114,114,114,114,114,114,114,114,114,114,114,114,114,114,114,114,114,114,114,114,113,113,112,112,111,111,110,110,110,111,111,111,111,111,111,111,111,111,112,113,114,114,114,114,114,113,113,112,111,110,110,111,111,112,112,112,112,112,111,111,110,110,110,111,111,112,112,111,111,110,110,109,110,110,110,110,110,110,110,110,110,110,110,111,112,112,112,112,111,111,111,111,110,110,110,110,110,110,110,110,111,112,113,114,114,115,116,117,118,119,119,120,120,120,120,120,120,120,120,120,120,119,119,119,118,118,118,118,119,119,118,118,118,118,118,119,119,119,120,120,120,120,120,120,120,119,119,118,118,118,117,117,118,119,120,120,120,120,120,120,120,121,122,123,124,125,126,125,124,123,122,121,120,120,120,120,120,120,120,121,121,121,122,123,124,125,127,128,129,130,130,130,130,130,130,129,129,129,129,129,129,129,129,128,128,127,127,126,125,124,123,122,121,120,120,120,120,120,120,120,120,120,119,118,117,116,116,115,116,118,119,121,122,121,120,118,116,115,114,115,115,114,113,111,109,108,107,106,106,106,105,104,104,102,100,99,97,96,96,96,96,97,97,97,97,97,96,96,96,95,94,93,92,92,91,91,91,91,91,91,90,89,89,88,88,88,88,88,89,88,88,87,86,85,84,83,83,83,83,83,83,83,82,82,82,82,82,82,83,83,82,82,82,82,83,83,84,84,85,85,85,85,86,86,86,87,87,86,85,84,83,82,81,81,81,82,83,84,85,86,87,85,84,83,82,81,81,81,82,82,83,83,83,83,83,83,82,83,83,83,84,85,86,88,89,91,93,94,94,94,93,91,89,87,85,84,84,83,83,83,83,83,83,84,84,85,85,84,83,82,81,80,79,79,79,79,79,79,79,79,80,80,82,83,86,89,92,95,97,99,101,102,102,101,99,98,96,95,94,94,93,92,90,88,87,85,85,85,85,85,84,84,84,84,84,84,84,85,86,88,91,93,96,97,98,98,96,94,92,89,88,87,89,90,92,93,94,94,94,94,93,92,91,91,90,90,89,88,87,86,85,84,83,83,84,86,88,90,92,93,94,95,95,96,97,98,99,100,101,102,102,103,104,104,105,105,106,105,105,105,105,106,106,108,108,109,110,110,110,110,111,112,113,114,115,116,117,118,119,120,121,122,123,123,123,123,123,124,124,125,126,127,127,128,128,129,129,130,130,131,131,132,133,134,135,136,137,138,139,140,141,141,142,142,143,143,144,144,144,144,144,143,143,142,142,142,142,142,142,142,142,142,143,143,144,144,144,145,146,146,148,149,149,150,151,151,152,152,152,151,151,151,150,151,151,151,151,152,152,152,152,153,153,153,153,153,153,153,153,153,153,153,153,153,154,154,155,155,156,156,157,157,157,157,157,156,156,155,154,153,152,151,150,149,148,148,146,145,143,141,140,139,138,137,137,138,137,137,136,134,133,132,132,132,131,130,129,127,125,124,122,121,119,119,119,119,120,121,121,119,117,114,111,108,107,105,105,106,108,110,112,113,114,112,109,106,103,100,99,99,101,102,104,105,106,106,107,106,106,105,103,102,101,100,100,100,101,102,103,104,105,106,107,108,109,110,111,111,111,110,110,109,108,107,107,106,107,107,108,109,109,110,109,109,109,108,108,108,108,108,108,108,108,107,106,106,105,105,105,106,107,107,107,105,103,101,99,97,98,98,98,98,98,98,97,96,95,95,95,95,95,95,95,95,94,94,93,93,93,92,92,91,90,89,89,89,89,90,90,91,92,92,93,94,95,97,98,100,101,102,103,104,105,106,106,106,106,106,106,106,106,106,106,106,107,108,109,110,111,112,112,113,113,114,114,113,112,111,110,108,107,107,106,106,107,108,109,110,111,112,113,114,116,117,118,120,121,122,123,125,126,128,129,130,131,133,134,135,136,137,137,137,138,138,139,139,140,141,141,142,142,142,142,143,143,144,145,146,146,147,148,148,149,149,150,150,150,150,150,151,151,152,153,155,155,156,157,157,158,159,160,161,161,162,163,163,163,163,163,164,164,165,166,168,169,169,170,170,170,170,170,171,171,171,171,171,171,170,170,170,170,170,170,170,170,170,171,172,172,173,174,174,174,175,176,177,178,179,179,179,179,179,179,178,177,177,176,175,174,174,174,174,173,172,171,171,170,170,170,169,169,168,167,167,166,165,164,164,163,163,163,163,162,162,160,158,156,153,150,148,145,144,142,141,140,139,137,136,135,134,133,133,133,133,133,133,132,132,131,131,131,132,132,131,130,128,126,124,122,121,122,123,124,124,123,121,119,117,115,115,115,115,116,117,118,118,117,117,117,116,115,114,113,112,111,111,111,111,111,111,112,111,110,109,108,108,107,107,107,107,106,106,106,106,106,106,105,104,104,103,103,103,103,103,103,103,104,105,106,107,106,105,104,103,102,103,104,105,106,106,105,104,102,101,100,99,99,99,99,99,99,100,101,102,103,104,104,104,104,103,102,102,101,101,101,101,102,103,104,105,106,105,104,103,101,100,99,98,97,97,97,97,97,97,97,97,97,97,96,96,96,95,95,95,95,95,95,96,96,96,96,96,97,97,97,96,96,96,96,96,97,98,99,100,100,101,101,101,101,101,102,102,101,100,98,96,94,93,93,93,94,95,95,96,97,96,94,92,91,89,88,89,90,90,92,93,93,93,93,92,92,92,92,93,93,94,95,95,96,96,96,97,97,97,97,97,98,98,99,99,99,99,99,99,99,98,97,96,95,95,95,94,94,94,94,93,93,92,92,91,91,91,90,90,89,88,87,88,89,90,92,93,94,95,95,95,96,96,96,96,97,98,99,100,101,102,104,105,107,109,111,113,114,114,114,114,114,114,114,114,114,114,114,113,113,113,114,115,118,121,124,126,127,127,127,127,128,128,128,128,127,126,125,124,122,118,115,108,99,90,84,78,77,76,76,78,84,93,102,113,123,126,125,124,120,116,115,115,114,113,112,112,111,111,111,111,111,111,111,111,111,109,108,107,105,104,104,104,104,101,98,95,92,89,92,94,94,94,95,92,90,91,90,90,91,91,91,92,93,93,94,94,94,97,97,96,96,96,93,93,93,93,96,100,103,106,109,109,114,119,118,110,103,89,74,65,62,59,57,57,61,66,70,68,70,67,64,61,67,70,73,77,80,79,79,79,79,79,80,80,82,84,86,89,91,91,92,91,91,91,92,93,94,94,95,95,97,98,99,101,102,102,104,106,107,108,110,113,116,118,121,123,123,124,125,123,120,120,122,125,132,139,143,143,143,142,141,142,145,144,140,137,133,127,128,130,129,131,133,133,134,135,136,134,133,133,132,132,132,127,123,118,113,111,112,113,113,117,121,126,135,146,153,158,162,163,163,163,163,163,163,162,162,159,153,148,141,134,128,126,125,126,128,133,138,142,146,149,150,150,150,148,