0,0,99,99,99,99,99,99,99,99,100,100,101,102,103,103,104,105,105,105,106,106,107,107,108,108,108,108,108,107,106,105,102,100,99,97,97,98,100,102,103,104,103,101,99,97,95,96,98,100,102,104,104,105,103,101,98,95,92,90,90,90,93,97,101,105,108,108,107,105,102,100,99,98,99,99,99,99,99,98,97,95,93,91,90,90,90,91,92,94,95,97,98,98,96,95,93,92,91,91,91,91,91,91,91,91,92,92,93,94,95,95,95,96,97,97,98,99,99,99,99,98,98,98,99,99,100,101,102,102,102,102,100,99,97,95,93,92,92,91,91,91,91,91,91,90,90,89,89,89,89,89,89,89,89,90,90,90,90,90,89,88,88,88,87,87,87,86,86,85,85,84,84,85,85,85,86,86,86,86,87,87,88,88,88,89,89,89,89,90,91,93,95,96,97,96,94,92,91,89,88,88,87,87,87,86,86,86,85,85,85,86,86,86,86,86,85,84,84,84,83,83,83,83,84,84,84,84,84,85,85,86,87,88,88,89,87,86,85,83,82,82,82,82,83,83,83,83,83,83,83,83,83,83,83,84,84,85,85,86,86,87,87,87,87,87,87,88,88,88,87,87,88,89,90,92,93,94,93,91,89,87,85,83,84,85,87,89,91,92,93,94,95,98,100,104,107,109,111,111,111,109,107,104,101,99,98,99,100,101,102,102,101,99,98,96,94,94,94,95,96,98,100,101,102,103,103,102,101,101,101,101,101,103,104,107,109,111,112,112,111,110,108,106,104,103,102,101,100,100,101,101,102,103,103,103,102,101,101,101,101,103,106,108,110,111,110,108,106,104,103,102,102,102,102,102,103,103,104,104,104,105,105,104,104,103,102,101,101,101,101,101,101,102,102,103,103,104,104,104,105,106,107,108,109,109,109,109,109,109,109,109,109,109,108,108,107,106,105,105,105,105,106,106,106,106,106,105,104,103,102,101,100,100,101,102,103,104,105,106,106,107,107,107,107,107,106,106,106,106,106,106,106,106,105,105,105,105,106,107,107,108,108,108,108,108,108,108,108,108,108,108,108,108,108,108,108,108,108,108,108,108,108,108,107,106,106,105,106,107,108,110,111,112,111,110,109,108,107,107,107,107,106,106,106,106,106,106,107,108,109,110,110,109,108,106,105,104,103,102,101,102,102,104,105,106,106,105,103,102,100,100,99,100,100,101,101,102,102,102,102,103,103,104,104,104,105,105,105,105,105,105,105,105,106,106,106,107,107,107,108,108,107,107,107,106,106,106,106,106,105,105,105,105,105,105,105,106,106,106,106,107,108,108,108,107,107,106,105,105,105,105,105,106,106,107,108,108,109,109,109,109,109,109,109,109,109,109,109,108,108,108,108,108,108,107,107,107,107,107,107,107,107,107,107,107,108,109,111,112,112,112,112,112,112,111,112,112,113,115,116,117,117,118,118,118,119,119,119,120,120,120,120,120,120,120,120,120,121,122,123,123,123,122,121,120,119,119,118,117,117,116,117,118,119,121,122,123,123,122,121,120,119,118,118,119,119,120,121,122,122,122,122,122,121,120,119,117,116,116,116,116,116,117,118,118,119,119,119,118,117,117,117,118,119,120,121,122,122,121,121,120,119,119,118,119,120,122,124,126,127,127,127,126,126,125,125,125,124,124,123,123,123,123,122,121,121,120,119,119,119,119,120,120,120,121,122,122,122,122,122,122,122,123,123,124,125,125,125,126,125,125,125,125,125,125,126,125,125,124,123,123,122,122,122,122,123,123,123,123,123,122,121,121,120,120,119,119,119,119,119,119,120,120,121,121,121,120,120,119,118,118,117,117,118,118,119,119,120,120,121,121,121,121,121,121,121,122,122,122,122,122,122,122,121,121,121,121,121,121,121,122,122,122,123,123,123,123,123,123,123,123,123,123,122,121,120,120,120,120,121,121,120,119,118,117,118,119,120,122,123,124,125,125,124,123,123,122,122,121,122,122,123,123,124,125,126,126,127,127,127,128,128,128,128,129,130,131,132,133,133,133,133,133,133,133,133,132,132,131,131,130,129,129,129,129,129,129,129,128,128,128,128,128,128,128,128,128,128,128,128,128,128,128,128,128,128,128,128,128,128,128,128,128,129,129,129,130,131,131,132,132,132,133,133,133,133,133,133,133,134,134,134,134,134,133,132,131,131,131,131,132,132,132,133,133,134,135,135,136,136,136,136,135,134,133,133,132,132,132,132,132,132,132,132,132,132,132,132,132,131,130,129,129,129,130,131,132,132,133,133,134,134,134,134,133,133,132,132,133,133,134,134,134,134,134,134,134,134,134,134,134,134,134,134,134,134,134,134,134,134,134,134,134,134,134,134,135,135,136,136,137,137,137,137,137,137,137,137,138,138,139,139,139,138,138,137,136,136,136,136,136,136,136,135,135,135,134,135,135,136,136,137,137,136,136,136,135,135,135,135,136,136,137,137,137,138,138,139,139,139,139,139,139,139,139,139,139,139,139,140,140,140,141,141,142,142,142,141,141,140,139,139,139,139,140,141,142,143,143,143,143,143,142,142,142,142,142,142,142,142,141,141,140,140,139,140,140,141,141,142,142,142,142,142,142,142,141,141,140,140,139,139,139,139,139,139,139,139,139,138,137,136,135,135,135,135,135,135,135,134,134,135,135,136,137,139,140,141,142,142,142,141,141,140,139,138,137,136,135,135,134,135,135,136,136,137,137,137,137,137,137,138,138,139,139,139,139,139,139,139,138,137,137,137,138,140,142,144,146,147,148,148,148,148,148,148,148,149,150,150,150,151,151,152,153,153,153,153,153,153,154,155,155,156,157,157,157,157,157,157,156,156,156,156,156,156,157,157,157,157,157,157,157,157,158,158,159,160,160,160,160,160,160,160,160,160,160,160,160,160,161,162,162,163,163,163,164,164,165,166,166,165,164,163,163,164,165,166,166,166,166,165,164,164,164,165,166,167,167,167,167,167,167,167,167,167,167,167,168,169,169,170,170,170,170,170,170,170,170,170,170,170,170,170,170,170,171,171,172,172,172,172,172,171,171,171,172,172,173,174,174,174,174,174,174,174,174,174,174,174,174,174,174,174,174,174,174,174,174,174,174,174,174,174,174,173,173,173,174,174,174,174,174,174,174,174,174,174,174,174,174,174,174,174,174,174,174,174,173,172,172,170,170,170,169,168,167,163,159,156,154,153,153,154,153,153,152,151,151,150,150,150,151,152,152,152,151,151,150,150,150,149,149,148,148,147,147,147,148,148,149,149,150,150,151,151,152,152,152,151,150,149,148,147,147,147,147,147,147,146,146,145,144,143,142,141,140,140,139,139,139,140,140,141,141,142,142,141,141,140,140,139,139,139,139,139,139,139,139,138,138,138,138,138,139,139,138,137,136,135,135,136,136,136,136,136,136,135,135,135,135,135,136,138,139,140,141,141,141,140,139,138,136,135,135,135,136,136,137,137,136,136,135,134,133,132,131,131,130,130,130,130,130,129,127,125,123,121,120,120,121,123,124,125,125,126,126,126,126,126,126,127,127,127,128,128,128,128,128,128,128,128,128,128,128,128,128,128,129,130,132,134,135,136,136,135,133,132,131,131,130,129,129,128,128,128,128,129,130,132,134,136,137,138,138,137,135,133,131,130,129,128,128,128,128,128,128,128,128,128,128,128,128,128,128,128,128,128,129,129,129,130,129,129,128,128,128,128,129,129,129,129,129,128,127,127,127,127,129,131,133,135,136,136,136,135,135,135,136,136,136,136,135,135,134,134,134,134,133,133,131,130,129,128,127,127,126,126,126,126,126,126,126,126,126,126,126,126,126,126,125,124,123,122,121,121,121,123,125,126,128,130,131,132,132,131,131,131,131,131,131,131,131,131,130,129,129,129,130,131,132,133,135,136,136,136,136,135,134,133,132,132,132,131,131,131,131,131,131,131,132,132,132,133,133,134,134,133,133,132,130,129,129,129,129,130,130,131,131,131,132,132,132,132,132,132,132,132,132,132,132,131,131,130,130,130,130,130,131,131,132,132,132,132,132,132,132,133,134,135,135,135,134,133,132,132,132,131,131,131,132,132,132,132,131,131,131,130,130,130,130,130,130,130,130,130,130,130,130,130,130,131,131,132,132,133,134,134,134,134,133,133,132,132,132,133,133,134,135,136,136,137,136,136,135,135,134,133,133,132,132,132,133,133,134,135,136,136,137,137,137,137,136,136,135,135,135,135,136,136,137,137,137,137,137,137,137,137,137,137,137,137,137,137,138,139,140,141,141,142,141,141,140,140,139,140,140,140,140,141,141,141,140,140,139,139,139,139,139,139,139,138,138,138,138,139,139,140,141,141,142,141,141,140,139,138,138,137,137,137,137,137,137,136,136,136,136,136,136,136,135,134,133,133,133,133,135,136,138,139,139,138,138,137,137,136,136,135,135,134,134,134,135,135,135,135,136,136,136,137,137,137,137,137,137,137,136,136,136,136,137,137,137,137,137,137,137,137,137,137,137,137,137,137,137,137,137,138,138,139,140,140,141,141,142,142,142,142,142,142,142,141,141,140,140,139,139,139,139,138,138,137,137,137,137,137,137,136,136,136,136,137,137,137,138,138,139,139,139,139,139,139,139,139,140,141,142,143,144,144,145,145,145,145,145,144,143,142,142,143,143,144,144,144,144,144,144,144,143,143,142,142,142,142,142,142,142,142,142,143,143,144,144,144,144,144,144,144,144,144,144,144,144,144,144,144,144,144,144,144,144,144,144,144,144,145,146,146,147,147,147,147,148,148,149,149,150,150,150,150,150,150,150,149,149,148,148,147,147,148,148,149,149,150,150,150,150,150,150,150,150,150,151,151,152,154,155,156,156,155,155,154,153,153,153,153,153,153,153,153,153,153,153,153,153,153,153,153,153,153,153,153,153,153,153,153,153,153,152,152,151,151,150,150,150,150,150,150,151,151,152,153,154,155,155,156,155,155,154,154,153,153,153,153,152,152,152,152,152,153,153,153,153,153,153,152,152,151,151,151,151,152,153,153,153,153,153,153,153,153,154,155,156,157,158,159,160,159,159,158,158,157,156,154,153,151,151,150,150,150,150,150,150,151,151,151,151,151,151,150,150,150,150,150,151,151,152,153,153,153,153,153,153,153,153,154,155,155,156,157,157,157,157,157,157,158,158,159,159,160,160,160,160,160,160,160,160,160,160,160,159,159,158,157,157,157,157,157,157,157,156,155,155,154,153,153,153,154,155,155,156,157,157,157,157,157,157,157,157,157,157,157,156,156,155,154,154,154,154,155,156,157,157,158,159,160,161,162,162,163,163,163,163,163,163,163,163,163,163,163,163,163,163,163,163,163,163,163,163,163,164,165,166,166,167,168,169,169,170,170,170,171,171,171,171,171,171,171,171,171,172,173,173,174,174,174,174,174,174,174,174,174,174,174,174,174,174,174,174,174,174,174,174,174,174,174,174,174,175,176,177,178,179,179,179,179,179,179,179,179,179,179,179,179,179,179,179,179,179,179,179,179,179,179,179,179,179,179,179,179,180,181,182,182,182,182,182,182,182,182,182,181,181,180,179,180,181,181,182,182,182,182,182,182,182,182,182,182,182,182,183,183,184,184,184,184,183,183,182,182,182,182,182,182,182,182,182,182,182,182,182,182,182,182,182,182,182,182,182,182,182,182,182,182,181,181,181,181,182,182,182,181,181,180,179,178,178,177,177,176,175,174,174,174,174,174,174,174,174,174,174,172,171,170,170,169,170,170,170,170,170,170,170,169,169,168,167,167,167,167,166,166,165,164,163,163,162,161,160,159,158,158,159,159,160,160,160,159,159,158,157,157,157,157,157,157,157,157,157,157,157,157,156,155,155,154,153,154,154,154,154,154,153,153,152,152,151,150,149,149,148,148,148,149,149,150,150,150,150,150,150,150,150,150,150,150,150,150,150,150,150,150,150,148,147,145,143,141,139,137,136,135,135,134,134,134,133,133,133,134,135,136,136,136,135,134,133,132,132,132,132,132,132,133,133,134,134,134,134,134,134,134,133,133,133,133,133,134,134,134,134,134,134,134,134,134,134,135,135,136,136,137,138,138,139,139,139,139,139,138,138,137,137,138,139,140,141,142,143,144,144,144,144,144,144,143,143,142,142,142,142,142,142,142,142,141,141,140,140,140,140,141,141,142,141,141,140,140,139,139,139,139,139,139,139,139,138,138,137,137,137,137,137,137,137,137,137,137,137,137,136,136,135,135,134,134,134,134,134,134,134,133,133,132,132,132,132,132,132,132,132,132,132,132,132,132,133,133,134,134,135,135,136,136,137,137,137,137,137,137,137,137,137,137,137,137,137,137,137,137,137,136,136,135,135,135,135,135,135,134,134,134,134,134,134,134,135,135,136,136,137,137,137,137,137,137,138,138,139,139,139,139,139,139,139,139,139,138,137,136,136,136,136,136,137,137,138,138,139,139,138,137,136,135,135,134,134,134,134,134,134,134,134,134,134,134,135,135,136,136,137,137,137,137,137,137,137,136,136,135,135,134,134,135,135,136,137,139,140,141,141,142,142,142,141,141,140,140,139,139,139,139,139,139,139,139,139,139,139,139,139,139,139,139,138,138,138,139,140,141,141,142,142,142,142,142,142,141,141,141,140,140,140,140,140,140,140,141,141,142,143,143,144,144,144,143,143,142,142,142,142,142,141,141,140,140,139,138,138,137,137,137,137,137,137,137,137,137,137,137,137,137,136,136,135,135,135,134,134,134,134,134,134,134,135,135,136,137,138,139,139,139,139,140,140,141,141,142,142,142,142,142,141,141,140,140,140,140,141,141,142,142,142,142,142,142,142,142,142,142,142,142,143,143,143,144,144,144,144,143,143,142,141,141,140,140,139,139,139,140,140,140,140,140,139,139,139,139,139,139,139,139,139,138,138,137,137,137,137,137,137,137,137,138,138,139,139,139,139,139,138,138,137,137,137,137,137,137,137,137,137,137,137,137,137,137,137,136,136,136,136,137,137,137,137,137,137,137,137,137,137,137,138,138,139,139,139,138,138,137,137,137,137,137,137,137,137,137,137,137,138,138,139,139,139,139,139,139,139,139,139,139,139,139,138,138,137,137,137,137,137,137,137,137,138,138,139,139,139,139,139,139,139,139,139,139,139,139,139,139,139,139,140,140,141,141,142,142,142,143,143,144,144,144,144,144,144,144,144,144,144,144,144,144,144,144,144,144,144,145,145,146,146,147,147,146,146,145,145,144,144,144,143,143,142,142,142,142,142,142,142,141,141,141,141,141,141,142,142,142,142,142,142,142,143,143,144,144,144,144,144,144,144,144,144,144,145,145,146,146,147,147,147,148,148,149,149,150,150,150,150,150,150,150,150,150,150,150,150,149,148,148,148,149,149,150,150,150,151,151,152,152,152,152,152,152,153,153,152,152,151,151,151,151,151,150,150,150,150,151,151,152,152,153,153,153,153,153,153,153,153,153,153,153,153,153,153,153,154,154,155,155,156,156,157,157,157,157,157,157,157,157,157,157,156,156,156,156,156,157,157,157,157,157,157,157,157,157,157,157,157,157,157,157,157,157,157,157,157,157,156,156,155,154,154,153,153,152,151,151,150,150,150,150,150,150,151,151,152,153,153,153,153,153,153,153,153,153,153,153,153,153,153,153,153,153,153,153,153,153,153,153,153,153,153,153,154,154,154,154,154,154,154,153,153,153,153,153,154,155,155,156,157,157,157,158,159,159,160,160,160,160,159,159,158,158,158,159,159,159,159,159,159,159,159,159,158,158,158,158,159,159,159,160,160,160,160,160,161,161,162,163,163,163,163,162,161,161,160,159,159,158,158,157,157,157,157,157,157,157,157,157,157,157,157,157,157,157,158,158,160,161,162,162,163,163,163,163,163,163,163,163,164,165,166,166,167,167,167,167,167,168,169,170,170,170,170,170,170,170,171,171,172,172,173,173,174,174,174,174,174,174,174,174,174,174,174,174,174,174,174,174,174,174,174,174,174,174,175,175,176,177,178,178,179,179,179,179,179,179,179,179,179,179,179,179,179,179,179,179,179,179,179,179,179,179,179,179,179,179,179,179,179,179,179,179,179,180,180,181,181,182,182,182,182,182,182,182,182,182,182,182,182,182,182,181,181,180,180,180,181,181,182,182,182,182,182,182,182,182,182,182,182,182,182,181,182,182,182,182,183,183,183,182,183,183,184,185,186,186,187,186,186,185,185,185,186,185,185,185,185,186,187,187,187,186,185,184,183,183,183,183,184,185,186,187,187,187,187,187,187,187,187,186,185,184,183,182,182,181,180,179,179,179,179,179,178,178,177,177,174,173,170,168,166,164,164,163,163,162,161,161,160,160,160,159,158,157,156,154,152,150,149,146,145,143,143,143,143,144,144,144,144,143,141,139,138,137,137,137,137,136,136,135,134,132,131,130,129,129,129,129,129,128,128,