0,0,0,60,60,60,61,61,61,61,61,61,61,63,64,65,67,68,69,69,70,70,69,68,68,67,66,66,65,65,65,66,66,66,65,64,63,62,61,59,59,59,58,58,58,58,58,59,59,59,59,59,59,59,60,61,62,65,68,71,73,75,76,75,73,72,70,67,66,64,63,63,62,63,63,63,64,64,64,64,65,65,65,65,65,65,65,65,66,66,66,65,65,65,65,65,66,66,66,66,67,67,67,67,67,67,68,69,71,72,74,75,75,75,76,77,79,81,83,85,87,90,92,94,96,97,97,98,98,98,98,97,95,92,87,80,74,70,66,65,66,67,68,70,72,73,75,75,76,76,76,76,78,79,81,84,86,87,88,89,89,89,88,88,88,89,89,90,91,91,92,92,92,92,92,91,91,91,91,92,92,93,94,95,95,96,96,96,96,96,96,96,97,97,98,98,98,98,97,97,96,96,96,95,95,95,95,95,95,96,96,96,96,96,96,96,96,96,96,96,95,95,95,95,95,95,95,95,94,94,94,94,94,94,95,95,95,95,95,94,94,94,93,93,93,93,93,93,93,93,93,93,93,93,93,93,94,94,94,94,94,94,94,94,94,94,94,94,95,95,95,95,95,96,95,94,93,93,92,91,91,91,91,91,91,92,93,93,94,95,95,95,95,94,94,93,92,91,91,91,91,91,91,90,90,90,89,89,89,89,89,89,90,90,90,90,90,91,91,91,91,91,91,90,90,90,89,89,89,89,90,90,89,89,89,89,88,88,87,87,88,88,89,90,91,90,90,89,89,88,88,89,90,91,92,93,93,93,93,93,92,92,92,92,92,92,92,92,91,92,92,92,92,92,92,92,91,89,88,86,84,84,83,84,84,85,85,86,86,87,87,87,88,89,89,90,91,91,91,91,91,90,90,90,90,90,90,90,90,90,90,90,90,90,89,89,90,90,90,90,90,90,90,90,90,90,89,89,89,88,88,88,89,89,89,89,89,90,90,91,92,93,94,95,95,96,97,98,100,101,103,104,104,103,102,100,98,97,95,96,97,97,98,99,99,100,101,101,102,103,104,104,105,106,106,106,107,107,107,108,108,108,108,108,108,108,108,107,107,107,106,106,106,105,105,105,105,105,105,104,104,104,104,105,105,105,105,105,105,105,105,105,105,105,106,106,107,107,108,108,108,108,108,108,107,107,106,106,106,107,108,108,109,110,111,111,112,112,112,111,110,110,109,108,108,109,109,109,109,109,109,109,108,107,106,105,105,106,106,106,107,107,106,106,105,104,103,102,101,101,101,101,102,103,104,104,105,106,106,106,106,106,107,107,107,108,108,109,109,109,109,109,108,108,108,108,107,107,107,106,106,106,106,106,106,106,106,106,106,105,105,105,105,105,106,106,106,107,107,107,107,107,106,106,106,106,107,108,108,109,109,110,110,110,110,110,109,109,110,110,110,110,111,111,111,111,110,110,109,108,108,107,107,107,107,108,108,108,108,108,108,109,109,109,110,110,110,110,110,110,109,108,107,106,106,106,106,107,108,108,109,109,109,109,109,109,109,109,109,109,109,110,110,110,111,111,111,111,112,112,113,113,114,114,114,114,113,112,111,109,108,107,106,106,106,107,108,108,109,109,109,109,109,109,108,108,107,107,106,106,106,106,106,106,107,107,108,109,110,111,112,112,112,111,111,110,110,111,112,113,114,115,116,118,119,120,120,121,122,123,124,125,125,126,125,125,124,123,123,122,122,122,122,123,124,125,125,126,127,127,128,128,128,128,128,128,128,128,127,127,127,126,125,125,124,123,123,123,124,124,124,125,125,125,125,125,125,125,124,124,124,125,126,127,128,129,129,130,131,132,133,133,134,134,134,134,134,134,135,135,136,136,137,137,136,136,136,136,136,136,137,137,137,137,137,137,137,137,137,137,137,137,137,137,137,137,138,138,139,139,139,139,139,139,139,140,140,140,140,140,140,140,139,139,139,139,139,139,139,139,140,140,140,141,141,142,142,141,141,140,140,141,141,142,142,142,142,142,142,142,142,142,142,143,143,144,144,144,143,143,142,142,142,142,142,141,141,141,140,141,141,141,141,140,140,139,139,139,139,139,139,139,139,139,139,139,139,139,139,139,139,139,139,139,139,140,140,141,141,142,142,142,142,142,142,142,142,142,142,142,142,142,143,144,145,146,147,147,147,147,147,147,147,147,147,147,147,147,148,148,148,149,150,150,150,150,150,150,150,150,150,150,150,150,150,149,149,148,147,146,145,145,144,144,144,144,144,144,144,144,144,144,144,144,144,144,144,144,144,145,145,145,145,145,144,144,144,144,144,144,144,144,143,143,142,142,142,142,142,142,143,143,144,144,144,145,146,146,147,147,147,148,148,149,149,150,150,150,150,150,151,151,152,152,153,153,153,153,153,154,154,155,156,156,157,157,157,157,156,156,155,155,154,154,154,154,155,156,156,157,157,157,157,157,157,157,157,157,157,157,157,158,159,159,160,161,161,161,162,162,162,162,162,161,161,160,160,160,161,161,162,163,163,163,162,161,161,160,160,160,160,160,160,160,160,160,160,160,160,160,161,161,162,163,163,163,163,163,164,164,165,166,167,167,167,166,166,166,166,166,166,167,167,167,167,167,167,167,167,167,167,167,167,167,167,167,167,167,167,167,167,167,167,167,167,167,166,166,165,165,165,166,166,166,166,166,166,165,165,165,164,164,164,163,163,163,163,164,164,164,164,164,164,163,163,163,163,162,161,161,160,160,159,159,158,157,157,156,155,154,153,152,151,150,149,149,148,148,147,147,147,146,146,145,145,144,144,144,143,143,142,141,141,140,140,139,138,138,137,137,136,136,135,135,134,134,134,133,132,132,131,131,130,130,130,130,130,130,130,130,130,130,130,130,129,129,128,127,127,127,127,127,127,128,128,128,127,126,125,123,122,121,121,120,119,118,118,117,117,116,116,116,116,116,116,116,116,116,117,117,117,117,116,116,115,115,115,115,115,116,116,116,116,116,115,115,114,114,114,115,115,115,115,115,114,114,114,114,114,114,114,114,114,114,114,114,114,114,115,115,115,116,116,116,116,116,116,116,116,116,116,116,116,116,116,116,116,116,116,116,115,115,115,115,116,118,119,121,121,121,120,119,118,117,116,116,116,116,117,117,117,118,118,117,117,116,116,117,117,118,119,119,119,119,119,118,117,117,117,116,116,116,117,117,117,118,118,118,118,118,117,117,117,117,117,117,117,118,118,118,118,118,118,117,117,117,116,116,117,117,117,118,118,118,118,117,117,117,117,117,117,117,118,118,118,118,117,117,116,115,114,113,112,111,111,111,111,111,111,111,111,111,111,111,111,111,111,111,111,112,112,112,112,112,112,111,111,111,111,111,112,112,112,112,112,112,111,111,111,111,111,111,112,112,113,113,114,113,113,112,111,111,110,110,110,110,111,111,111,111,111,111,111,112,112,113,114,115,117,117,118,118,118,118,118,118,118,118,118,118,118,119,119,119,120,120,120,120,120,120,120,120,120,120,120,120,119,119,119,119,119,119,120,120,120,121,121,121,121,121,121,120,120,121,121,121,121,120,120,120,120,120,120,120,120,121,121,121,121,121,120,120,119,119,119,119,119,119,120,120,120,121,121,121,121,120,119,118,118,117,117,118,118,118,118,119,119,119,119,120,120,120,120,120,120,120,120,119,119,119,119,118,119,119,119,119,120,120,120,120,120,120,121,121,121,121,121,121,121,121,121,121,121,122,122,122,122,122,122,122,121,121,121,121,121,121,121,121,120,120,120,120,120,120,120,121,121,121,121,121,121,121,121,122,122,122,123,123,123,123,123,122,121,120,120,119,119,119,119,119,119,120,119,119,119,119,119,119,119,119,118,118,118,117,117,117,117,117,118,118,118,119,119,120,120,121,121,121,121,120,120,120,119,118,117,117,116,116,116,116,116,117,118,118,119,119,120,119,119,119,118,118,118,118,119,119,119,120,120,119,119,119,119,118,118,119,119,119,120,120,119,119,118,118,117,118,119,120,121,122,122,122,122,122,121,121,121,121,120,120,120,120,120,120,120,120,121,121,120,120,120,120,119,119,118,118,118,119,119,120,120,121,121,122,123,123,123,123,123,123,123,123,124,125,125,126,128,129,130,131,131,132,132,132,132,132,132,133,133,133,134,134,135,135,136,136,137,137,137,137,137,137,138,138,139,139,139,139,139,139,140,140,141,141,142,141,141,140,140,139,139,139,139,139,139,139,139,140,140,141,141,142,142,141,141,141,140,140,140,140,140,140,140,141,141,142,142,142,142,143,143,144,144,144,144,144,145,146,146,147,148,149,149,150,150,150,150,149,149,148,148,147,147,147,147,147,147,147,146,146,145,145,146,146,147,148,148,148,149,149,148,148,147,146,146,146,145,146,146,147,148,149,149,150,150,151,151,151,151,151,151,150,150,150,150,150,149,149,149,149,150,150,150,150,150,150,150,150,150,150,150,150,150,150,150,151,151,151,152,153,153,153,153,153,153,153,153,153,153,153,153,153,153,153,153,153,153,153,153,153,152,151,151,150,150,151,151,152,152,153,153,154,154,154,154,154,154,153,153,153,153,153,153,153,153,153,153,153,153,154,155,155,155,155,155,154,155,155,156,156,157,157,157,156,156,155,154,154,153,153,154,154,155,156,156,157,157,157,157,157,157,157,157,157,157,157,157,157,157,156,156,155,154,154,153,153,153,154,154,154,154,154,153,153,153,153,153,153,154,154,154,154,154,153,153,152,152,151,151,150,150,151,151,152,153,153,153,153,154,154,155,156,156,157,157,158,158,159,159,159,158,158,157,157,158,159,159,160,160,160,160,160,160,159,158,158,157,157,158,158,159,159,160,161,161,162,163,163,163,163,163,163,163,163,164,164,165,166,166,166,167,167,167,167,167,167,167,167,167,168,169,169,169,169,169,170,170,170,170,170,170,170,169,168,167,167,167,167,167,166,166,166,167,167,168,168,168,167,167,167,167,168,169,169,170,169,169,169,170,170,170,170,170,169,169,170,170,170,169,169,168,168,168,169,169,170,170,171,171,171,171,171,171,171,171,171,172,171,172,172,173,174,174,174,174,173,173,173,173,174,173,173,172,172,172,172,172,172,171,171,172,172,173,174,174,174,174,174,174,174,173,173,173,174,174,173,172,172,170,170,170,170,170,170,169,169,168,167,167,166,165,164,164,163,163,162,161,161,159,158,158,157,157,157,157,156,155,154,153,151,151,150,150,150,150,150,150,150,150,149,149,148,148,147,147,147,147,146,146,145,145,144,144,143,143,142,141,141,140,140,140,140,139,139,140,140,140,140,140,139,139,139,139,139,138,138,137,137,136,136,135,135,134,134,134,134,134,134,134,134,134,134,134,134,134,133,133,132,131,131,131,130,130,130,130,130,130,129,129,128,128,128,128,128,128,128,128,128,128,128,128,128,128,128,127,127,126,126,126,126,126,126,126,126,126,126,126,126,126,126,126,126,125,124,123,122,122,122,122,123,124,125,126,127,128,129,130,131,132,132,132,132,131,131,131,130,130,130,130,130,130,131,131,131,131,131,131,130,129,128,127,127,127,127,128,128,128,128,128,127,127,126,125,125,124,124,123,123,122,121,120,119,118,118,118,118,118,119,120,120,120,120,120,120,120,120,119,119,118,118,118,118,119,119,120,121,121,121,121,121,120,120,120,120,120,120,120,120,119,119,119,119,118,118,118,119,120,120,121,121,121,121,120,120,120,120,120,120,121,121,121,121,121,121,121,121,121,120,120,120,119,119,119,119,119,120,119,119,119,118,118,118,117,117,117,117,117,117,118,118,118,118,118,118,118,117,117,117,116,115,115,115,114,114,114,114,114,114,114,115,115,116,116,117,117,118,118,119,119,119,120,120,120,120,120,120,120,121,122,123,124,125,125,126,126,125,124,123,122,121,120,120,120,120,121,121,121,121,122,122,122,122,122,122,122,122,122,123,123,123,123,123,122,122,122,122,122,122,121,121,121,121,121,121,121,122,122,123,123,123,123,123,123,123,123,123,123,122,122,122,122,122,122,123,123,123,123,123,123,123,123,123,123,122,122,121,122,122,123,123,123,123,124,124,125,125,125,125,125,124,124,123,123,123,123,122,122,122,122,121,121,120,120,120,120,120,121,122,123,123,124,124,124,124,124,123,123,123,122,122,122,121,122,122,123,123,123,123,123,123,123,123,123,123,124,124,125,125,125,125,124,124,123,123,124,125,125,126,128,128,128,128,127,126,125,124,123,123,123,123,123,124,125,126,127,128,128,128,127,127,126,125,123,123,122,122,122,122,123,123,123,123,123,123,123,123,124,124,123,123,122,121,121,120,120,120,120,120,120,120,120,120,121,122,122,123,123,123,123,123,123,123,123,123,123,123,123,123,123,123,123,123,123,123,122,122,123,123,124,124,125,125,126,126,125,125,124,123,123,124,124,125,125,126,126,125,125,125,125,125,125,126,127,128,128,128,127,127,126,125,125,125,125,126,126,126,126,126,126,126,126,126,126,126,126,126,126,126,126,126,126,126,126,126,126,126,126,126,126,126,126,126,126,126,127,127,127,128,128,129,129,130,131,132,133,133,134,134,134,135,135,136,136,137,138,139,140,141,141,142,142,142,142,142,142,142,142,142,142,143,143,144,145,145,146,146,147,148,148,148,148,148,148,147,146,145,145,144,144,144,144,144,144,144,144,144,144,145,146,146,147,147,147,147,146,146,145,144,144,144,144,145,145,146,147,148,148,149,151,151,153,153,154,154,154,153,153,153,153,153,153,153,154,154,155,155,156,156,156,156,155,155,154,154,154,154,154,155,155,156,157,157,157,158,158,157,156,155,154,153,154,154,155,156,157,157,157,158,159,159,160,159,159,159,159,159,159,159,159,160,160,160,160,160,160,160,160,160,159,160,160,160,160,160,160,160,160,160,160,160,160,160,160,160,161,161,162,162,163,163,162,162,161,160,160,160,160,160,160,160,159,159,158,157,157,157,157,157,158,158,158,158,157,157,157,157,157,158,159,159,160,160,160,160,160,160,160,160,160,160,160,161,161,161,162,162,163,163,163,162,162,161,161,161,160,160,160,161,161,162,162,162,162,161,161,161,161,162,162,162,162,162,161,161,160,160,160,160,160,161,161,161,161,161,161,162,162,161,160,160,159,159,158,158,158,158,158,159,159,160,160,160,160,160,160,160,161,161,161,161,161,161,161,161,160,160,159,159,160,161,162,162,163,164,164,163,163,163,163,163,163,164,164,165,166,166,167,167,167,167,168,169,170,170,170,169,169,169,169,169,169,170,171,172,172,172,172,172,170,170,170,170,169,170,170,170,170,170,170,170,170,171,171,170,170,171,171,172,172,173,173,172,173,173,173,173,174,174,174,174,174,174,174,174,174,174,174,174,174,174,174,174,174,174,174,174,174,173,174,174,173,173,172,171,170,171,172,172,173,174,175,174,174,174,175,175,175,174,174,174,174,174,175,175,176,177,179,179,179,179,178,177,176,176,176,176,176,176,176,177,178,177,178,179,179,179,179,177,177,176,176,175,175,176,176,177,178,180,180,182,183,184,186,189,191,191,189,187,183,178,178,178,178,180,183,189,194,199,201,202,198,193,187,183,178,176,176,176,176,176,176,175,175,175,175,174,173,172,172,171,170,169,169,168,166,165,164,164,163,162,162,161,160,160,160,160,159,158,158,157,157,157,156,155,154,153,151,151,150,150,150,150,149,149,148,148,147,147,147,146,145,144,143,143,143,143,143,142,142,142,141,141,141,140,140,140,140,140,140,140,140,139,138,137,136,135,135,135,136,137,138,138,138,137,136,135,133,132,131,131,130,130,130,131,131,133,134,135,136,137,137,137,135,134,133,132,132,132,132,133,134,135,137,138,139,139,139,138,137,135,133,132,130,