0,0,160,160,160,160,160,160,160,161,161,162,163,163,163,163,163,163,163,163,163,163,163,163,163,163,162,162,161,160,160,160,159,158,158,157,157,157,157,156,156,155,154,153,152,151,150,148,148,147,147,146,146,145,144,142,141,140,139,138,137,136,134,133,130,128,125,122,119,118,120,122,122,123,121,117,114,112,110,110,109,109,108,107,107,106,106,106,105,106,107,109,110,112,112,112,112,112,111,110,110,110,109,108,109,108,108,109,110,111,112,113,113,113,111,110,109,108,108,109,111,112,113,112,110,108,106,104,105,0,0,0,0,207,207,165,144,130,104,79,79,80,81,82,83,84,86,88,90,92,93,93,93,93,94,94,94,95,95,95,96,96,96,95,95,95,95,94,95,95,96,96,96,95,95,95,95,95,95,95,96,97,97,98,98,98,98,97,96,95,94,94,94,95,95,96,96,96,95,94,93,93,93,93,94,94,95,96,97,98,100,102,106,109,113,116,119,121,123,125,126,127,128,129,130,131,131,131,132,133,133,134,135,135,136,137,138,138,139,140,141,142,143,143,144,145,145,146,146,147,147,148,148,149,149,150,150,150,150,150,150,150,150,150,151,151,152,153,153,153,153,153,153,153,153,153,153,153,153,153,153,153,153,154,154,154,154,154,154,153,154,154,155,156,156,157,157,157,157,157,157,157,157,157,157,157,157,157,157,157,157,157,157,157,157,157,157,157,157,157,157,157,157,157,157,157,157,157,157,157,157,157,157,157,157,157,157,157,157,157,157,157,157,157,157,157,157,157,157,157,157,157,157,157,157,157,157,157,157,157,157,157,157,157,156,156,156,155,155,155,154,154,154,154,154,154,154,154,153,153,153,153,153,153,153,153,153,153,154,154,155,156,156,157,157,157,157,157,157,157,157,157,157,157,157,158,158,159,159,159,159,159,159,159,160,160,160,160,160,160,160,160,161,161,162,162,163,163,163,163,163,163,163,163,163,163,163,163,163,163,163,163,163,163,163,163,163,163,163,163,163,163,163,163,163,163,163,163,163,163,163,163,162,162,162,161,161,161,160,160,160,160,160,160,160,160,160,160,160,160,160,160,160,160,160,160,160,161,161,162,162,163,163,163,163,163,163,162,162,161,161,161,160,160,160,160,161,161,162,162,163,163,163,163,163,163,163,163,163,163,163,163,163,163,163,163,163,163,163,163,163,163,163,163,162,162,162,162,162,162,162,162,162,161,160,160,160,160,160,160,160,160,160,160,160,160,160,161,161,162,163,163,163,163,163,163,164,164,165,166,166,166,166,167,167,167,167,167,167,167,167,167,167,167,167,167,167,167,167,167,167,168,169,169,170,170,170,170,170,170,170,170,170,170,170,170,170,170,170,170,170,170,170,170,170,170,170,170,170,170,170,170,170,170,170,170,170,170,170,170,170,170,170,170,170,170,170,170,170,169,169,169,169,169,168,167,167,167,167,167,167,167,167,167,166,165,164,164,163,162,161,161,160,160,159,158,157,156,154,152,151,149,148,147,146,146,145,144,143,142,141,139,138,137,135,134,133,132,132,131,131,130,130,0,0,244,238,237,236,235,223,216,209,200,193,193,193,195,202,206,212,216,221,221,222,222,224,222,224,226,225,223,220,214,0,0,123,125,125,123,122,120,116,113,110,107,105,104,103,103,103,105,107,110,112,114,113,111,109,106,104,102,101,101,0,0,0,0,0,87,87,81,84,86,88,0,0,0,60,78,84,87,88,0,0,92,92,92,93,94,94,95,96,97,97,98,99,99,100,100,101,101,102,103,104,105,105,104,102,100,98,96,0,0,0,60,79,86,90,92,101,102,103,103,104,104,105,105,106,106,107,107,106,105,103,102,101,101,101,102,103,104,104,105,104,104,103,102,101,101,102,103,104,106,108,110,112,114,115,117,118,119,120,121,122,124,125,126,128,128,130,131,132,132,133,134,135,135,136,136,137,137,137,137,137,137,138,139,140,141,142,143,143,145,146,146,147,148,148,149,150,150,150,151,151,152,153,153,153,153,153,153,153,153,153,154,154,155,156,156,157,157,157,157,157,157,157,157,157,157,157,157,157,157,157,157,157,157,157,157,157,158,159,159,160,160,160,160,160,160,160,160,160,160,160,160,160,160,160,160,160,160,160,160,160,160,160,160,160,160,160,160,160,160,160,160,160,160,160,160,160,160,160,160,160,160,160,160,159,159,159,159,159,160,160,160,160,160,160,160,160,160,160,160,160,160,160,160,160,160,160,160,160,160,160,160,160,160,160,160,160,160,160,160,160,160,160,160,160,160,160,160,160,160,160,160,161,161,162,163,163,163,163,163,163,163,163,163,163,163,164,165,166,166,167,167,167,167,167,167,167,167,167,167,167,167,167,167,167,167,167,167,167,167,167,167,167,167,167,167,167,167,167,167,167,167,167,167,167,167,167,167,167,167,167,167,167,167,167,167,167,167,167,167,167,167,167,167,167,167,167,167,167,167,167,167,167,167,167,167,167,167,167,167,167,167,167,167,167,167,167,167,167,167,167,167,167,167,167,167,167,167,167,167,168,168,169,168,168,168,168,169,169,169,169,169,169,169,169,169,169,169,169,169,170,170,170,170,170,170,170,170,170,170,170,170,170,170,170,170,170,170,170,170,170,170,170,170,170,170,170,170,170,170,170,170,170,170,170,171,171,172,172,173,174,174,174,174,174,174,174,174,174,174,174,174,174,174,174,174,174,174,174,174,174,174,174,174,174,174,174,174,174,174,174,174,174,174,175,175,176,177,177,178,178,178,178,178,178,178,179,179,179,179,179,179,179,179,179,179,179,179,179,179,179,179,179,179,179,179,179,179,179,179,179,178,177,177,176,175,174,174,174,173,172,172,171,170,169,169,168,167,166,166,165,163,162,161,160,159,158,158,157,157,157,156,156,155,154,152,151,150,148,148,147,147,146,146,145,144,143,141,139,138,137,136,136,135,135,135,134,134,134,133,133,132,132,132,132,131,130,129,128,127,126,126,126,125,125,124,123,123,124,126,128,132,132,131,127,124,119,116,115,115,114,113,112,112,111,111,112,112,112,112,112,111,111,112,112,112,112,111,109,107,107,107,107,107,107,107,107,107,106,106,106,106,107,107,107,108,108,108,108,108,108,107,107,106,106,105,105,105,105,105,106,106,107,107,108,108,109,110,109,108,107,105,104,104,105,106,107,107,108,109,111,110,110,109,106,104,104,104,104,104,103,102,101,102,104,104,107,109,109,109,110,0,0,0,0,0,0,0,0,0,0,0,0,275,275,240,223,189,144,99,75,51,51,51,55,65,76,87,98,105,105,105,106,107,107,108,108,108,108,108,107,107,107,106,106,105,105,104,104,104,105,106,108,111,113,114,116,117,119,120,121,122,123,125,126,127,128,129,130,132,132,133,134,135,136,137,138,139,140,140,141,141,142,142,143,143,144,145,145,146,146,147,148,148,149,150,150,150,151,151,152,152,153,153,153,153,154,155,155,156,157,157,157,157,157,157,157,157,157,157,157,157,157,157,157,157,157,157,157,157,157,157,157,157,157,157,157,157,157,157,157,157,157,157,158,159,159,160,160,160,160,160,160,160,160,161,161,162,163,163,163,163,163,163,163,163,163,163,163,163,164,164,164,165,166,166,166,167,167,167,167,167,167,167,167,167,167,167,167,167,167,167,167,167,167,167,167,167,167,167,167,167,167,167,167,167,167,167,167,166,166,166,166,166,166,166,167,167,167,167,167,167,167,167,167,167,168,169,169,170,170,170,170,170,170,170,170,170,170,170,169,169,169,169,169,169,170,170,170,170,170,170,170,170,170,170,170,170,170,170,170,170,170,170,170,170,170,170,171,171,171,171,172,171,171,171,171,170,170,170,170,170,170,170,170,170,170,170,170,170,170,170,170,170,170,170,170,170,170,170,170,170,171,172,172,173,174,174,174,174,174,174,174,174,174,174,174,174,174,174,174,174,174,174,174,174,173,173,173,172,172,173,174,174,174,174,174,174,174,174,174,174,174,174,174,174,174,174,174,174,174,174,174,174,174,174,174,174,174,174,174,174,174,174,174,174,174,174,174,174,174,174,175,175,175,176,176,177,177,178,178,179,179,179,179,179,179,179,179,179,179,179,179,179,179,179,179,179,179,179,179,179,179,179,179,179,179,179,179,179,180,180,180,181,181,182,182,182,182,182,182,182,182,182,182,182,182,182,182,182,182,182,182,182,182,182,182,182,182,182,182,182,182,182,182,182,182,182,182,182,182,181,181,180,179,179,178,177,176,175,174,174,174,174,174,0,0,0,0,0,0,0,0,0,0,0,0,226,226,176,144,129,98,67,66,71,72,72,72,72,72,72,71,71,71,70,70,70,69,69,68,67,67,66,66,66,66,66,66,66,65,65,65,64,64,64,63,63,63,63,62,62,62,61,61,61,61,71,82,93,104,115,115,115,114,114,114,115,115,116,116,117,117,117,118,117,117,118,118,118,118,119,119,120,121,121,120,119,118,117,116,116,116,116,115,115,115,114,115,115,115,116,116,116,116,116,116,116,116,115,115,114,112,111,110,109,109,109,110,111,112,112,112,111,109,108,107,106,106,107,107,107,108,108,108,108,107,107,106,105,105,105,105,105,106,106,106,106,106,106,106,105,105,106,107,108,109,109,109,109,108,108,107,106,106,105,106,107,108,108,109,109,108,107,106,105,103,102,102,102,102,103,104,104,104,105,106,106,107,108,109,110,111,112,113,114,115,116,117,119,119,120,121,122,122,123,123,123,123,123,123,123,123,123,123,124,124,125,126,127,127,128,128,128,128,128,128,128,128,128,128,129,129,128,128,127,127,126,126,125,124,124,123,123,122,121,121,120,120,120,120,120,120,120,120,120,120,120,120,120,120,120,119,118,116,114,112,111,109,109,109,110,110,111,111,111,111,111,111,111,112,114,115,117,119,120,120,121,122,122,123,123,123,123,123,123,123,124,124,125,126,126,127,127,128,129,129,130,131,131,132,132,132,133,133,134,134,134,135,135,136,136,137,137,137,137,137,137,137,137,137,137,136,136,136,135,135,135,134,134,135,135,134,134,133,132,132,132,132,132,132,132,131,131,130,129,128,127,126,126,125,125,124,123,122,121,120,119,118,117,115,115,115,115,116,118,119,120,121,121,121,121,121,121,120,120,120,120,120,119,119,119,119,118,119,119,120,121,122,122,123,123,123,123,123,122,122,121,121,120,120,119,118,118,117,117,116,116,116,116,115,115,116,116,117,118,119,119,119,119,119,118,118,118,118,119,119,119,119,120,119,119,119,118,118,117,117,117,116,116,116,116,116,116,116,116,115,115,115,115,115,116,117,118,118,119,119,120,120,121,121,122,122,122,122,122,122,122,121,121,121,121,121,121,121,121,121,121,121,121,121,121,121,121,121,121,121,121,122,122,122,123,124,125,125,126,126,126,127,127,128,129,129,130,131,131,131,132,132,132,133,133,134,135,135,136,136,137,137,138,138,139,139,139,139,139,139,139,139,139,139,139,139,139,139,139,139,139,139,139,139,139,138,137,136,135,134,133,132,131,130,129,129,128,127,125,125,124,123,123,123,123,123,123,122,122,122,121,121,121,121,120,120,120,120,120,120,120,121,121,121,121,121,121,121,121,121,122,122,123,123,124,125,125,126,126,126,127,127,128,129,129,130,131,132,132,132,132,132,132,133,133,134,134,134,134,134,134,134,134,134,134,135,135,136,136,137,137,137,137,138,138,139,139,139,139,139,139,139,139,139,139,139,139,139,139,139,139,139,139,140,140,141,141,142,142,142,142,142,142,142,142,142,142,142,142,142,142,142,142,143,143,143,144,144,144,144,144,144,144,144,144,144,144,144,145,145,146,146,147,147,147,147,147,147,147,147,147,147,147,147,147,147,148,148,148,149,150,150,150,150,150,150,150,150,150,150,150,150,150,150,150,150,150,150,150,149,149,148,148,147,147,147,147,147,147,146,146,146,146,146,146,145,144,142,140,139,137,136,136,135,135,134,134,134,134,134,133,133,132,132,132,132,132,132,132,132,131,131,130,130,130,130,130,129,128,127,124,122,121,120,120,121,122,122,123,123,123,123,123,123,122,122,122,122,123,124,125,126,127,128,129,129,130,130,130,130,131,131,131,132,132,132,132,132,131,131,131,130,130,130,130,130,130,130,130,130,130,130,130,129,128,128,127,126,126,126,126,126,126,126,126,126,126,126,126,126,126,126,126,127,127,128,128,128,129,130,131,131,132,132,132,132,133,133,134,134,134,134,134,135,135,136,136,137,137,138,138,139,139,140,140,141,141,142,143,143,144,144,144,144,145,146,146,147,147,147,147,146,146,145,145,144,144,143,143,142,141,141,140,140,139,139,138,137,135,132,130,128,127,127,127,127,127,127,125,123,120,118,116,116,116,117,118,119,120,120,121,122,122,123,123,123,123,124,124,125,125,126,126,126,126,126,125,124,121,119,117,116,115,117,118,119,120,120,121,121,122,122,121,117,113,109,106,104,105,107,110,113,115,117,119,120,121,121,120,119,117,115,114,114,115,117,118,120,120,120,119,117,116,114,114,114,115,117,118,120,121,122,122,120,117,115,111,109,108,108,109,110,111,112,112,113,113,114,114,114,114,114,114,113,113,113,114,114,115,115,116,116,116,116,116,117,117,118,118,119,119,118,117,115,113,111,111,111,111,113,114,115,115,115,115,115,114,114,115,116,116,117,118,117,117,117,116,116,117,117,118,119,119,120,120,121,121,121,121,121,121,120,120,120,120,120,121,121,121,122,122,123,123,123,123,123,122,121,119,119,118,118,119,120,122,123,124,125,125,124,121,117,113,108,104,99,97,95,94,95,95,97,99,101,103,104,105,105,105,105,104,105,105,106,106,107,107,107,108,108,109,111,113,114,116,117,118,118,118,118,117,117,117,117,117,117,118,119,120,120,120,121,119,115,114,111,106,104,102,99,97,96,