0,0,126,102,97,95,94,88,91,92,93,94,96,98,101,102,104,104,105,105,105,105,106,106,107,108,108,109,109,110,110,111,111,112,112,111,111,110,110,109,109,109,109,109,108,108,107,106,105,104,102,101,99,97,97,97,97,98,98,98,98,97,96,95,95,95,96,96,96,96,95,95,95,95,95,95,94,92,91,89,87,85,85,86,87,89,90,91,91,90,89,88,88,88,89,91,92,93,94,94,94,94,93,91,89,87,85,84,84,84,84,83,83,84,86,88,91,94,97,98,98,98,98,97,96,95,95,94,94,92,90,87,85,82,82,82,83,84,85,86,85,85,84,83,82,80,79,79,81,83,86,89,91,90,88,86,84,82,81,84,87,90,93,96,96,96,95,94,94,93,93,94,94,93,90,86,83,80,79,81,84,87,89,90,91,90,89,88,88,88,90,91,93,94,94,95,95,96,95,95,94,92,91,90,90,90,91,92,94,96,97,98,99,99,99,99,100,100,100,100,100,99,99,99,99,99,99,99,99,99,99,99,99,99,99,99,99,104,109,114,119,125,121,118,114,111,108,101,95,0,0,0,183,165,159,156,154,147,147,147,146,145,142,136,134,132,134,134,138,139,140,137,138,138,136,134,132,130,128,127,127,125,119,113,108,103,101,102,104,105,106,106,107,108,109,109,109,106,104,102,101,99,99,99,100,100,100,100,101,101,101,101,104,107,106,103,100,92,85,81,80,84,89,94,99,108,113,116,120,125,125,123,123,122,120,120,120,123,126,134,142,149,154,157,156,152,148,141,135,125,114,104,94,86,82,80,78,78,78,78,78,78,78,78,78,78,78,78,78,78,78,78,78,78,78,78,78,78,78,78,78,78,78,78,78,76,75,74,72,71,71,71,72,73,75,76,77,79,79,79,79,79,78,78,78,78,77,78,76,74,72,72,68,70,71,72,72,75,75,75,76,76,76,76,76,77,79,82,84,86,87,86,86,85,84,83,82,81,79,77,74,73,72,71,72,73,74,75,77,78,79,80,80,79,78,78,78,78,78,78,78,78,78,79,79,78,79,80,81,80,77,73,69,65,64,63,63,62,62,61,61,61,61,62,62,62,63,63,62,62,61,60,60,60,61,61,62,63,65,66,68,68,69,68,67,66,66,64,64,64,64,64,65,66,67,69,70,72,73,73,73,72,72,72,72,72,73,73,74,74,74,75,75,75,76,77,79,81,83,86,87,89,89,90,91,93,93,93,94,92,90,89,88,88,88,90,94,100,105,105,109,109,107,104,105,102,99,95,93,92,88,86,84,82,79,78,78,77,77,76,76,75,74,74,74,73,73,73,73,74,74,74,73,73,73,74,75,76,76,76,76,76,76,75,75,75,75,75,76,77,78,78,79,79,79,78,78,77,77,77,77,77,77,77,77,77,78,78,79,80,80,82,84,87,91,99,104,111,114,117,116,112,103,97,90,82,77,73,69,66,64,63,63,64,65,67,71,74,76,79,80,80,80,80,79,78,76,74,73,72,72,72,73,73,74,75,76,76,76,76,76,76,76,76,77,78,79,79,80,80,78,76,74,71,68,67,66,66,67,68,69,70,70,70,70,70,69,69,68,68,67,67,67,67,67,67,67,67,67,67,67,67,67,67,67,67,67,67,66,66,66,66,66,66,66,67,67,67,67,67,67,67,67,67,66,66,66,67,67,68,68,68,68,70,72,73,75,77,76,75,75,75,75,77,79,80,81,82,81,81,81,81,81,81,81,81,81,81,81,81,82,82,83,83,83,83,84,85,86,88,89,90,91,91,92,94,96,97,99,100,101,102,102,102,103,103,103,104,104,104,104,106,107,108,109,110,110,110,110,110,110,111,112,113,114,114,115,116,117,118,119,120,121,122,124,124,125,125,125,124,126,125,125,125,125,123,124,125,125,125,126,125,126,126,127,127,128,128,128,128,128,133,136,140,145,147,148,150,151,153,156,156,159,161,161,163,165,168,169,171,170,172,172,175,181,184,191,194,199,202,206,207,211,214,216,217,217,215,210,208,207,206,207,208,208,208,207,207,207,207,207,206,188,177,159,142,128,131,127,129,130,129,127,127,126,126,125,124,124,125,126,127,129,129,130,130,130,130,130,130,130,130,130,130,130,130,129,129,129,129,129,129,129,129,129,129,129,128,128,128,128,128,128,128,128,128,128,128,128,129,129,128,128,128,128,128,127,127,127,127,127,127,128,129,130,130,131,131,132,132,132,133,135,136,138,139,141,141,141,141,141,140,140,139,137,134,132,128,124,121,120,121,125,129,134,136,136,136,136,136,136,136,136,136,136,135,135,134,134,134,134,134,134,134,134,134,134,133,133,132,132,132,132,133,133,134,134,134,135,135,135,136,136,136,135,136,136,136,137,137,137,137,137,136,136,136,135,135,135,134,133,132,132,131,129,128,127,125,124,123,123,122,122,122,122,122,121,121,121,121,122,123,124,125,126,127,127,127,128,129,132,134,137,139,140,140,140,141,141,141,141,138,136,132,129,126,125,123,123,123,122,122,122,123,123,124,125,125,125,126,126,126,127,127,127,128,128,128,128,128,128,128,128,128,128,128,129,129,130,130,130,131,131,131,132,132,132,132,132,132,132,132,133,134,135,136,136,137,138,138,139,139,139,139,139,139,139,139,139,140,140,141,141,142,142,142,142,142,142,143,143,142,142,142,142,142,141,140,139,138,136,135,134,133,133,132,133,133,134,135,136,137,138,139,140,141,142,142,142,142,142,142,142,142,142,143,143,144,144,144,144,144,145,145,145,145,145,145,145,144,144,144,144,144,145,145,145,145,145,145,145,144,144,144,144,143,143,142,142,142,142,142,142,142,142,142,142,142,142,142,142,142,142,142,142,142,142,142,142,141,141,140,140,139,139,139,138,138,138,138,139,139,139,139,139,138,137,136,135,135,134,134,134,133,133,132,132,132,131,130,130,129,130,131,133,135,138,140,145,149,154,156,156,150,146,140,134,132,131,128,127,125,124,125,124,124,123,122,121,120,120,120,120,120,121,122,124,125,125,125,125,124,124,123,123,123,124,124,125,126,127,128,129,130,131,132,132,132,132,132,132,132,132,133,133,134,134,134,134,134,134,134,134,135,135,136,136,137,137,137,137,137,137,137,137,137,137,137,138,138,139,139,139,140,140,140,141,141,142,142,142,142,142,142,142,142,142,142,142,142,142,142,142,142,142,142,142,142,142,142,142,142,142,142,142,142,142,142,142,142,143,143,144,144,145,146,146,147,147,147,147,147,147,147,147,147,147,146,146,145,145,145,146,146,147,147,147,147,147,147,147,147,147,147,147,147,147,147,147,147,147,147,147,147,147,147,147,147,147,147,147,147,147,147,147,147,147,147,147,147,147,147,147,147,147,146,146,145,144,144,144,144,144,144,144,144,144,144,144,144,145,145,146,146,147,147,146,146,145,144,144,144,144,144,144,144,144,144,144,144,143,143,143,144,144,144,144,144,144,144,144,144,145,145,146,146,147,147,147,147,147,147,147,147,147,147,147,147,147,147,147,147,147,147,147,147,147,147,147,147,147,147,147,147,147,147,147,147,146,146,146,146,146,147,147,147,148,148,149,149,149,148,148,147,147,147,147,148,148,148,149,149,148,148,148,148,148,148,148,147,147,147,147,147,147,147,147,147,147,147,147,147,147,148,148,148,148,148,148,148,148,147,147,147,147,147,148,148,148,148,148,148,148,149,149,150,150,150,150,150,150,150,150,149,148,148,148,147,147,147,147,147,147,147,147,147,147,147,147,147,147,147,147,147,147,147,147,147,147,147,147,147,147,148,148,149,149,150,150,149,148,148,148,148,148,148,148,148,148,148,148,149,150,150,151,151,152,152,153,153,153,153,153,152,152,151,151,150,150,150,149,149,149,150,150,150,150,150,150,150,150,150,150,150,150,150,150,150,150,150,149,148,148,148,148,149,149,150,150,150,150,150,150,150,150,150,150,150,150,150,150,150,150,150,150,150,150,150,149,149,148,148,148,148,148,147,147,147,146,146,145,143,143,142,141,140,140,139,139,139,139,139,138,138,137,137,137,137,137,138,138,139,139,139,139,139,139,138,138,139,139,139,138,138,138,138,138,139,139,139,139,139,139,139,139,139,139,139,140,140,140,140,140,140,140,140,140,140,140,140,139,139,139,139,139,139,139,139,139,139,138,138,137,137,137,137,136,135,134,133,133,132,132,132,132,132,132,132,131,130,129,128,127,127,127,127,127,127,128,128,128,128,128,128,128,129,129,130,131,131,131,132,132,132,132,133,133,133,132,132,132,132,133,133,134,135,136,136,137,137,138,138,139,139,139,139,140,140,141,141,142,143,143,144,144,144,144,144,144,144,144,145,146,146,147,148,148,149,150,151,151,152,152,152,152,151,151,150,150,150,150,150,150,151,151,151,152,152,151,151,151,150,150,150,150,150,150,150,150,150,150,151,151,152,153,153,153,153,153,153,154,154,154,154,154,153,153,153,153,153,153,153,153,153,153,153,153,153,153,153,154,154,155,156,156,157,157,157,157,157,157,157,157,157,156,156,155,154,154,153,152,151,151,150,149,149,148,148,147,147,147,147,147,147,147,147,147,147,147,147,147,148,148,149,150,151,152,152,154,155,155,156,157,157,158,158,158,157,157,156,154,153,152,151,150,149,149,148,148,148,148,149,149,150,150,150,150,150,150,150,150,150,150,150,150,150,150,149,149,148,147,146,146,145,144,143,142,140,139,138,137,136,135,134,133,132,132,131,131,130,129,128,126,125,123,122,121,121,120,119,117,116,116,115,115,115,115,115,114,113,112,111,109,109,110,112,112,113,114,114,113,117,115,112,113,117,117,120,122,122,119,115,115,114,113,113,113,114,115,116,118,120,122,123,125,125,126,126,127,127,128,129,130,131,131,132,133,133,134,135,136,137,138,139,140,141,142,143,143,145,146,146,147,148,148,149,149,150,150,151,151,152,152,153,153,153,153,153,153,153,153,153,153,153,153,153,153,153,153,153,153,153,153,153,153,153,153,153,153,153,153,153,153,153,153,153,153,153,153,153,153,153,153,153,153,152,152,151,151,150,150,150,150,149,149,148,148,147,147,147,147,147,147,147,147,147,147,147,147,147,147,147,147,147,147,147,146,146,145,145,144,144,144,144,143,143,142,141,141,140,140,139,139,139,139,139,138,138,137,137,137,136,136,135,135,134,134,134,134,135,135,135,135,134,133,132,131,131,131,131,131,132,133,133,134,135,136,137,138,139,139,139,139,139,138,138,137,136,136,135,135,134,134,134,133,133,133,133,133,134,134,135,135,136,137,138,139,139,139,139,139,139,139,139,139,139,139,139,139,139,139,140,140,141,141,142,142,143,143,144,144,145,146,146,147,147,147,147,147,147,147,148,148,148,149,150,150,150,150,150,150,151,151,152,152,153,153,153,153,153,153,154,154,155,155,156,156,157,156,156,155,155,154,154,154,154,154,154,154,154,154,154,153,153,153,153,153,153,153,154,154,155,155,156,155,155,155,154,154,155,155,154,154,154,153,153,153,153,153,153,153,153,153,153,153,153,153,153,153,153,153,152,152,151,151,151,152,153,153,153,153,153,153,153,153,153,153,153,153,153,153,153,153,153,153,153,153,153,153,152,152,152,151,151,151,151,150,150,150,150,150,150,150,150,150,150,150,150,150,150,150,150,150,150,150,151,151,151,152,152,153,153,153,153,153,153,153,153,153,153,153,153,153,154,154,155,155,156,156,157,157,157,157,157,157,157,158,158,159,159,158,157,157,157,157,157,157,157,157,157,157,157,158,159,160,161,161,162,163,163,163,163,163,163,163,162,161,161,160,160,160,160,160,160,160,160,160,160,160,160,160,160,161,161,160,160,160,160,160,160,160,160,160,159,159,158,158,157,157,157,157,157,157,157,157,156,156,155,154,154,153,153,153,153,153,153,153,153,153,153,153,153,153,153,153,152,152,151,151,150,149,149,149,149,149,150,150,150,150,150,150,150,150,150,150,150,150,151,151,152,152,153,153,153,153,153,153,153,153,153,152,152,151,150,149,148,148,148,147,147,147,147,147,147,147,147,147,147,147,147,146,146,145,144,145,146,146,147,147,147,147,147,147,147,148,148,148,149,149,150,150,150,150,150,151,151,152,153,153,153,153,153,154,154,155,156,156,157,157,157,157,157,157,157,157,157,157,157,157,157,157,157,157,157,157,157,157,157,157,157,157,157,157,157,157,157,157,157,157,157,157,157,158,158,159,159,159,160,160,160,160,160,160,160,160,160,160,160,160,160,160,160,160,160,160,160,160,160,159,159,159,159,158,158,158,158,158,159,159,159,159,158,157,157,157,157,157,157,157,157,157,157,157,157,158,159,159,160,160,160,160,160,160,160,160,160,160,160,160,159,159,158,158,157,157,157,157,157,157,157,157,157,157,157,157,157,157,157,157,157,157,157,157,157,158,159,159,160,160,160,160,160,160,160,160,159,159,158,157,157,157,157,157,157,157,157,157,157,157,157,157,157,157,157,157,157,157,157,157,157,157,157,157,157,157,158,158,158,157,157,157,157,157,157,157,157,157,157,156,156,155,154,154,153,153,153,153,153,153,153,153,154,154,155,156,156,157,157,157,158,159,159,160,160,160,160,160,160,160,160,160,160,160,160,160,159,158,158,157,157,157,157,157,157,157,157,157,157,157,157,157,157,157,157,157,157,157,157,157,157,157,157,157,157,157,157,157,157,157,157,157,157,157,156,155,155,154,153,153,152,152,151,151,150,150,150,150,150,150,149,148,148,147,147,147,147,146,146,145,145,144,145,146,146,147,147,147,147,147,147,147,146,145,144,142,141,139,137,136,135,135,136,137,139,140,141,141,141,141,140,140,140,140,141,141,142,142,142,142,141,141,140,140,140,140,141,142,143,143,144,144,144,144,144,144,144,144,144,144,144,144,145,146,146,147,148,148,149,150,150,150,150,150,150,150,151,151,152,152,153,154,155,155,157,158,158,159,161,161,162,163,163,163,163,163,163,163,163,163,163,163,163,163,163,163,163,163,163,163,163,163,163,163,163,163,163,163,163,163,163,163,163,163,163,163,162,161,161,160,160,160,160,160,160,160,159,159,158,157,157,157,157,158,158,159,160,160,160,160,160,160,160,160,160,160,160,160,160,160,160,160,160,160,160,160,160,161,161,162,163,163,163,163,163,163,163,163,163,163,163,163,163,163,163,163,163,163,163,163,163,163,163,163,163,163,163,163,163,163,163,163,163,163,163,163,163,163,163,163,163,162,162,162,161,161,161,162,162,163,163,163,163,163,163,163,163,163,163,163,163,163,163,163,163,163,163,163,163,163,163,163,163,163,163,163,163,163,163,163,163,163,163,163,163,163,163,163,163,163,163,163,164,164,165,166,166,167,167,167,167,167,167,167,167,167,167,167,167,167,167,167,167,167,167,167,167,167,167,167,167,167,167,167,167,166,166,165,164,163,163,163,163,163,162,162,161,160,160,160,160,159,159,159,159,159,160,160,160,160,159,159,158,158,158,158,158,158,158,157,157,157,156,155,155,154,153,153,153,153,153,153,153,153,152,151,150,149,148,148,147,147,147,146,146,145,144,144,144,144,144,145,146,146,147,148,148,148,149,150,150,150,150,151,151,152,152,152,152,151,151,150,150,150,149,148,148,147,147,147,147,147,147,147,147,147,147,147,147,147,147,147,147,148,148,149,150,151,151,152,152,153,153,154,154,155,156,156,157,157,157,157,156,156,155,155,155,155,156,156,157,157,157,157,157,157,157,157,157,158,158,159,160,160,160,160,160,159,159,158,157,157,157,157,157,157,157,157,157,156,155,155,154,153,152,151,150,149,148,148,148,148,148,148,147,146,146,145,144,143,143,142,142,142,142,142,142,142,142,142,142,142,142,141,141,141,140,140,140,140,140,139,138,138,137,136,135,135,134,134,134,133,132,131,130,130,129,128,128,127,126,126,127,128,129,129,129,129,128,127,127,126,126,126,125,125,124,124,124,125,126,126,127,127,127,127,127,126,126,126,125,125,125,124,124,123,123,123,124,125,126,126,127,128,128,128,128,128,128,129,130,130,131,132,131,131,130,129,129,128,127,127,126,126,126,126,126,126,126,126,125,124,122,120,119,118,118,118,118,119,118,118,118,118,117,118,117,117,117,119,118,121,121,120,117,117,115,115,115,116,117,118,119,121,121,121,121,120,119,118,117,116,115,115,115,116,117,118,118,117,116,116,115,116,117,119,120,121,122,123,124,125,126,127,128,129,130,130,130,130,130,130,130,129,129,128,128,127,126,126,126,126,125,125,125,124,124,124,124,125,125,125,126,126,126,126,127,127,127,127,126,126,126,126,126,126,126,126,126,125,125,123,123,122,121,122,122,122,123,125,126,128,129,130,132,133,134,135,136,136,137,137,138,138,139,141,142,144,145,146,149,150,152,154,156,157,158,159,160,160,160,160,160,161,161,162,163,163,163,163,164,164,165,166,167,167,167,167,167,167,167,167,167,167,167,167,167,167,167,167,167,167,167,167,167,167,167,167,167,166,166,165,164,163,162,162,161,160,160,160,160,160,159,159,159,159,159,159,159,160,160,160,160,160,160,160,160,160,160,160,160,160,159,159,158,157,157,157,157,156,155,155,154,153,153,153,153,153,153,153,153,152,151,151,150,149,148,147,145,144,142,141,140,140,139,139,139,139,139,138,137,136,134,133,132,132,132,132,133,133,134,134,134,134,134,134,135,135,136,136,137,137,138,138,139,139,139,139,139,138,138,137,137,137,138,138,138,138,138,139,139,138,138,138,137,137,137,136,135,134,133,131,131,130,129,129,129,129,129,129,130,130,129,128,127,126,126,126,126,125,124,123,122,121,120,120,120,120,120,120,120,120,120,120,120,120,120,120,121,122,123,124,124,125,125,126,126,127,127,127,127,127,127,126,126,126,126,126,126,126,126,126,126,126,126,127,127,128,127,127,127,126,126,126,126,127,128,129,130,131,132,133,133,134,135,136,137,137,136,136,135,135,134,134,134,134,133,133,132,131,130,129,128,127,126,127,128,129,130,132,133,134,135,136,137,138,139,140,142,143,143,144,144,145,146,146,147,147,147,147,147,147,147,147,147,148,148,149,149,151,151,152,153,153,154,155,155,156,157,157,157,157,157,157,157,157,158,158,159,160,160,160,160,160,160,160,160,160,160,160,160,161,161,162,163,163,163,163,163,163,163,163,163,163,163,162,161,161,160,160,160,159,159,158,157,157,157,156,156,155,154,154,153,153,153,153,153,153,153,153,153,153,153,153,153,153,153,153,153,153,152,152,151,150,149,149,148,148,147,146,146,145,144,142,141,141,140,140,139,139,139,139,139,139,138,137,136,135,134,133,133,132,132,132,132,132,132,131,131,130,129,129,129,129,130,130,130,129,129,128,127,128,128,129,129,129,129,128,128,127,126,126,125,124,123,122,120,118,117,115,113,111,112,114,117,120,123,125,126,127,128,129,130,131,132,132,133,134,135,135,136,136,137,137,137,138,138,139,139,140,141,141,142,143,143,144,145,145,146,146,147,147,148,148,149,149,150,150,150,150,150,150,150,150,150,150,150,150,150,149,149,148,147,146,146,146,146,146,147,147,146,146,145,145,144,144,144,144,144,144,143,143,142,141,140,139,138,137,137,137,137,137,136,135,133,131,129,127,126,126,126,126,125,124,123,122,121,119,119,118,117,117,117,116,115,114,114,114,114,114,113,111,110,109,107,108,108,109,110,110,111,110,109,110,115,117,122,126,127,126,128,127,128,129,130,131,131,132,132,132,132,132,133,134,135,136,137,138,139,141,142,143,145,146,146,147,147,147,146,146,145,145,145,145,145,146,146,146,147,147,146,146,145,145,144,143,142,141,140,138,137,135,134,133,132,131,131,130,129,128,126,125,123,122,122,121,121,120,119,118,117,116,115,114,114,114,114,114,113,112,111,111,112,113,114,115,115,114,112,111,111,111,112,113,113,113,113,112,111,111,111,115,115,119,121,121,118,116,112,109,108,107,107,106,107,109,110,112,114,115,116,116,116,116,117,117,118,119,121,122,123,123,123,122,122,122,121,121,122,122,121,121,119,117,116,114,114,114,114,115,116,117,117,116,115,115,115,116,117,119,120,121,121,121,122,122,122,123,123,123,123,123,123,122,120,119,117,116,116,117,118,118,119,119,119,117,116,115,114,113,112,112,112,112,111,111,110,110,110,110,109,108,108,109,111,113,116,118,119,119,118,118,117,116,116,117,117,117,117,116,114,113,112,110,110,108,107,107,106,104,102,100,98,96,96,97,99,101,103,105,107,113,119,126,132,134,129,124,118,112,110,109,109,110,110,111,112,113,114,114,113,111,110,108,107,107,108,110,112,114,115,116,117,117,118,119,119,119,120,120,119,119,118,116,114,112,110,109,109,109,109,109,109,108,107,106,105,106,106,107,108,109,110,110,110,111,111,111,111,112,112,111,111,110,108,107,105,104,103,102,